Time,sample,Type,Sub,Chan,Num,Aux
0:00.8,295,(,0,0,0,
0:00.8,310,p,0,0,0,
0:00.9,330,),0,0,0,
0:00.9,350,(,0,0,1,
0:01.0,369,N,0,0,0,
0:01.0,385,),0,0,1,
0:01.2,439,(,0,0,2,
0:01.3,468,t,0,0,4,
0:01.4,516,t,0,0,4,
0:01.4,536,),0,0,2,
0:01.6,587,(,0,0,0,
0:01.6,604,p,0,0,0,
0:01.7,628,),0,0,0,
0:01.7,643,(,0,0,1,
0:01.8,661,N,0,0,0,
0:01.8,670,),0,0,1,
0:02.1,758,(,0,0,2,
0:02.1,782,t,0,0,0,
0:02.2,818,),0,0,2,
0:02.4,865,(,0,0,0,
0:02.4,884,p,0,0,0,
0:02.5,907,),0,0,0,
0:02.5,924,(,0,0,1,
0:02.6,945,N,0,0,0,
0:02.6,959,),0,0,1,
0:02.8,1042,(,0,0,2,
0:02.9,1063,t,0,0,0,
0:03.0,1111,),0,0,2,
0:03.1,1146,(,0,0,0,
0:03.2,1167,p,0,0,0,
0:03.3,1191,),0,0,0,
0:03.3,1213,(,0,0,1,
0:03.4,1230,N,0,0,0,
0:03.4,1238,),0,0,1,
0:03.6,1306,(,0,0,2,
0:03.6,1321,t,0,0,4,
0:03.7,1365,t,0,0,4,
0:03.8,1382,),0,0,2,
0:03.9,1432,(,0,0,0,
0:04.0,1455,p,0,0,0,
0:04.0,1475,),0,0,0,
0:04.1,1495,(,0,0,1,
0:04.2,1514,N,0,0,0,
0:04.2,1528,),0,0,1,
0:04.4,1595,(,0,0,2,
0:04.4,1611,t,0,0,4,
0:04.5,1649,t,0,0,4,
0:04.6,1676,),0,0,2,
0:04.8,1728,(,0,0,0,
0:04.8,1746,p,0,0,0,
0:04.9,1768,),0,0,0,
0:04.9,1789,(,0,0,1,
0:05.0,1808,N,0,0,0,
0:05.0,1817,),0,0,1,
0:05.2,1888,(,0,0,2,
0:05.2,1901,t,0,0,1,
0:05.3,1931,),0,0,2,
0:05.4,1965,(,0,0,0,
0:05.5,1982,p,0,0,0,
0:05.5,2001,),0,0,0,
0:05.6,2024,(,0,0,1,
0:05.6,2043,N,0,0,0,
0:05.7,2053,),0,0,1,
0:05.9,2129,(,0,0,2,
0:05.9,2140,t,0,0,4,
0:06.0,2184,t,0,0,4,
0:06.1,2207,),0,0,2,
0:06.4,2321,(,0,0,0,
0:06.4,2338,p,0,0,0,
0:06.5,2367,),0,0,0,
0:06.6,2382,(,0,0,1,
0:06.6,2402,N,0,0,0,
0:06.7,2418,),0,0,1,
0:06.9,2486,(,0,0,2,
0:06.9,2506,t,0,0,4,
0:07.0,2539,t,0,0,4,
0:07.1,2576,),0,0,2,
0:07.2,2625,(,0,0,0,
0:07.3,2642,p,0,0,0,
0:07.4,2665,),0,0,0,
0:07.4,2686,(,0,0,1,
0:07.5,2705,N,0,0,0,
0:07.5,2718,),0,0,1,
0:07.6,2771,(,0,0,2,
0:07.7,2801,t,0,0,4,
0:07.8,2834,t,0,0,4,
0:08.0,2886,),0,0,2,
0:08.1,2921,(,0,0,0,
0:08.1,2937,p,0,0,0,
0:08.2,2961,),0,0,0,
0:08.2,2979,(,0,0,1,
0:08.3,2996,N,0,0,0,
0:08.3,3007,),0,0,1,
0:08.5,3093,(,0,0,2,
0:08.6,3119,t,0,0,0,
0:08.7,3163,),0,0,2,
0:08.9,3206,(,0,0,0,
0:08.9,3222,p,0,0,0,
0:09.0,3244,),0,0,0,
0:09.0,3264,(,0,0,1,
0:09.1,3281,N,0,0,0,
0:09.1,3296,),0,0,1,
0:09.3,3378,(,0,0,2,
0:09.4,3404,t,0,0,0,
0:09.5,3443,),0,0,2,
0:09.6,3483,(,0,0,0,
0:09.7,3498,p,0,0,0,
0:09.7,3520,),0,0,0,
0:09.8,3541,(,0,0,1,
0:09.8,3558,N,0,0,0,
0:09.9,3572,),0,0,1,
0:10.0,3635,(,0,0,2,
0:10.1,3653,t,0,0,4,
0:10.2,3691,t,0,0,4,
0:10.3,3708,),0,0,2,
0:10.4,3776,(,0,0,0,
0:10.5,3795,p,0,0,0,
0:10.6,3820,),0,0,0,
0:10.6,3843,(,0,0,1,
0:10.7,3861,N,0,0,0,
0:10.7,3870,),0,0,1,
0:10.9,3942,(,0,0,2,
0:10.9,3957,t,0,0,4,
0:11.0,3990,t,0,0,4,
0:11.2,4041,),0,0,2,
0:11.3,4084,(,0,0,0,
0:11.4,4106,p,0,0,0,
0:11.4,4126,),0,0,0,
0:11.5,4145,(,0,0,1,
0:11.5,4169,N,0,0,0,
0:11.6,4183,),0,0,1,
0:11.8,4270,(,0,0,2,
0:11.9,4303,t,0,0,0,
0:12.0,4344,),0,0,2,
0:12.1,4381,(,0,0,0,
0:12.2,4402,p,0,0,0,
0:12.3,4429,),0,0,0,
0:12.3,4446,(,0,0,1,
0:12.4,4465,N,0,0,0,
0:12.4,4480,),0,0,1,
0:12.6,4568,(,0,0,2,
0:12.8,4609,t,0,0,0,
0:12.8,4633,),0,0,2,
0:13.0,4685,(,0,0,0,
0:13.0,4700,p,0,0,0,
0:13.1,4723,),0,0,0,
0:13.1,4744,(,0,0,1,
0:13.2,4763,N,0,0,0,
0:13.2,4780,),0,0,1,
0:13.4,4846,(,0,0,2,
0:13.5,4861,t,0,0,4,
0:13.7,4938,t,0,0,4,
0:13.7,4950,),0,0,2,
0:13.8,4980,(,0,0,0,
0:13.8,4998,p,0,0,0,
0:13.9,5019,),0,0,0,
0:14.0,5041,(,0,0,1,
0:14.0,5059,N,0,0,0,
0:14.0,5067,),0,0,1,
0:14.2,5139,(,0,0,2,
0:14.3,5150,t,0,0,4,
0:14.4,5189,t,0,0,4,
0:14.5,5230,),0,0,2,
0:14.6,5264,(,0,0,0,
0:14.6,5284,p,0,0,0,
0:14.7,5310,),0,0,0,
0:14.8,5328,(,0,0,1,
0:14.8,5345,N,0,0,0,
0:14.8,5353,),0,0,1,
0:15.1,5446,(,0,0,2,
0:15.2,5475,t,0,0,0,
0:15.2,5496,),0,0,2,
0:15.4,5554,(,0,0,0,
0:15.4,5577,p,0,0,0,
0:15.5,5594,),0,0,0,
0:15.5,5611,(,0,0,1,
0:15.6,5632,N,0,0,0,
0:15.6,5642,),0,0,1,
0:15.8,5712,(,0,0,2,
0:15.9,5727,t,0,0,4,
0:16.0,5767,t,0,0,4,
0:16.0,5791,),0,0,2,
0:16.2,5838,(,0,0,0,
0:16.2,5855,p,0,0,0,
0:16.3,5879,),0,0,0,
0:16.3,5899,(,0,0,1,
0:16.4,5917,N,0,0,0,
0:16.4,5925,),0,0,1,
0:16.6,5993,(,0,0,2,
0:16.6,6010,t,0,0,4,
0:16.8,6048,t,0,0,4,
0:16.9,6088,),0,0,2,
0:17.0,6130,(,0,0,0,
0:17.0,6146,p,0,0,0,
0:17.1,6174,),0,0,0,
0:17.2,6195,(,0,0,1,
0:17.2,6213,N,0,0,0,
0:17.3,6228,),0,0,1,
0:17.4,6293,(,0,0,2,
0:17.5,6310,t,0,0,4,
0:17.6,6347,t,0,0,4,
0:17.7,6388,),0,0,2,
0:17.8,6440,(,0,0,0,
0:17.9,6461,p,0,0,0,
0:18.0,6483,),0,0,0,
0:18.0,6506,(,0,0,1,
0:18.1,6526,N,0,0,0,
0:18.1,6541,),0,0,1,
0:18.4,6629,(,0,0,2,
0:18.5,6663,t,0,0,0,
0:18.5,6690,),0,0,2,
0:18.7,6738,(,0,0,0,
0:18.7,6758,p,0,0,0,
0:18.8,6780,),0,0,0,
0:18.8,6801,(,0,0,1,
0:18.9,6822,N,0,0,0,
0:18.9,6838,),0,0,1,
0:19.1,6897,(,0,0,2,
0:19.2,6916,t,0,0,4,
0:19.3,6963,t,0,0,4,
0:19.4,6992,),0,0,2,
0:19.5,7024,(,0,0,0,
0:19.5,7040,p,0,0,0,
0:19.6,7064,),0,0,0,
0:19.6,7087,(,0,0,1,
0:19.7,7105,N,0,0,0,
0:19.7,7118,),0,0,1,
0:19.9,7178,(,0,0,2,
0:19.9,7196,t,0,0,4,
0:20.0,7233,t,0,0,4,
0:20.2,7272,),0,0,2,
0:20.3,7308,(,0,0,0,
0:20.3,7330,p,0,0,0,
0:20.4,7352,),0,0,0,
0:20.4,7369,(,0,0,1,
0:20.5,7390,N,0,0,0,
0:20.5,7400,),0,0,1,
0:20.7,7487,(,0,0,2,
0:20.8,7513,t,0,0,0,
0:20.9,7547,),0,0,2,
0:21.0,7588,(,0,0,0,
0:21.1,7607,p,0,0,0,
0:21.2,7633,),0,0,0,
0:21.2,7650,(,0,0,1,
0:21.3,7668,N,0,0,0,
0:21.3,7684,),0,0,1,
0:21.5,7748,(,0,0,2,
0:21.5,7764,t,0,0,4,
0:21.6,7803,t,0,0,4,
0:21.7,7817,),0,0,2,
0:21.8,7870,(,0,0,0,
0:21.9,7888,p,0,0,0,
0:21.9,7913,),0,0,0,
0:22.0,7933,(,0,0,1,
0:22.0,7952,N,0,0,0,
0:22.1,7967,),0,0,1,
0:22.3,8031,(,0,0,2,
0:22.3,8047,t,0,0,4,
0:22.4,8084,t,0,0,4,
0:22.5,8126,),0,0,2,
0:22.6,8162,(,0,0,0,
0:22.7,8181,p,0,0,0,
0:22.7,8206,),0,0,0,
0:22.8,8223,(,0,0,1,
0:22.9,8245,N,0,0,0,
0:22.9,8253,),0,0,1,
0:23.1,8326,(,0,0,2,
0:23.1,8339,t,0,0,4,
0:23.2,8376,t,0,0,4,
0:23.4,8424,),0,0,2,
0:23.4,8454,(,0,0,0,
0:23.5,8480,p,0,0,0,
0:23.6,8498,),0,0,0,
0:23.6,8519,(,0,0,1,
0:23.7,8538,N,0,0,0,
0:23.7,8551,),0,0,1,
0:23.9,8623,(,0,0,2,
0:23.9,8635,t,0,0,4,
0:24.1,8677,t,0,0,4,
0:24.1,8700,),0,0,2,
0:24.3,8755,(,0,0,0,
0:24.3,8771,p,0,0,0,
0:24.4,8798,),0,0,0,
0:24.4,8817,(,0,0,1,
0:24.5,8836,N,0,0,0,
0:24.5,8854,),0,0,1,
0:24.7,8920,(,0,0,2,
0:24.8,8938,t,0,0,4,
0:24.9,8973,t,0,0,4,
0:25.0,9009,),0,0,2,
0:25.1,9054,(,0,0,0,
0:25.2,9076,p,0,0,0,
0:25.2,9100,),0,0,0,
0:25.3,9121,(,0,0,1,
0:25.3,9140,N,0,0,0,
0:25.4,9156,),0,0,1,
0:25.5,9215,(,0,0,2,
0:25.6,9233,t,0,0,4,
0:25.7,9266,t,0,0,4,
0:25.8,9312,),0,0,2,
0:25.9,9350,(,0,0,0,
0:26.0,9373,p,0,0,0,
0:26.1,9396,),0,0,0,
0:26.1,9411,(,0,0,1,
0:26.1,9430,N,0,0,0,
0:26.2,9445,),0,0,1,
0:26.4,9527,(,0,0,2,
0:26.5,9553,t,0,0,0,
0:26.6,9589,),0,0,2,
0:26.7,9627,(,0,0,0,
0:26.8,9654,p,0,0,0,
0:26.8,9671,),0,0,0,
0:26.9,9691,(,0,0,1,
0:26.9,9709,N,0,0,0,
0:27.0,9723,),0,0,1,
0:27.1,9784,(,0,0,2,
0:27.2,9798,t,0,0,4,
0:27.3,9838,t,0,0,4,
0:27.4,9875,),0,0,2,
0:27.5,9919,(,0,0,0,
0:27.5,9935,p,0,0,0,
0:27.6,9956,),0,0,0,
0:27.7,9976,(,0,0,1,
0:27.7,9997,N,0,0,0,
0:27.8,10011,),0,0,1,
0:27.9,10076,(,0,0,2,
0:28.0,10091,t,0,0,4,
0:28.1,10123,t,0,0,4,
0:28.1,10135,),0,0,2,
0:28.3,10202,(,0,0,0,
0:28.3,10222,p,0,0,0,
0:28.4,10242,),0,0,0,
0:28.5,10261,(,0,0,1,
0:28.5,10281,N,0,0,0,
0:28.6,10296,),0,0,1,
0:28.7,10358,(,0,0,2,
0:28.8,10381,t,0,0,4,
0:28.9,10413,t,0,0,4,
0:28.9,10431,),0,0,2,
0:29.1,10503,(,0,0,0,
0:29.2,10523,p,0,0,0,
0:29.2,10547,),0,0,0,
0:29.3,10567,(,0,0,1,
0:29.4,10590,N,0,0,0,
0:29.4,10598,),0,0,1,
0:29.6,10675,(,0,0,2,
0:29.6,10689,t,0,0,4,
0:29.8,10732,t,0,0,4,
0:29.8,10755,),0,0,2,
0:30.0,10812,(,0,0,0,
0:30.0,10827,p,0,0,0,
0:30.1,10857,),0,0,0,
0:30.2,10874,(,0,0,1,
0:30.2,10893,N,0,0,0,
0:30.3,10909,),0,0,1,
0:30.5,11001,(,0,0,2,
0:30.6,11025,t,0,0,0,
0:30.7,11083,),0,0,2,
0:30.8,11110,(,0,0,0,
0:30.9,11127,p,0,0,0,
0:30.9,11153,),0,0,0,
0:31.0,11173,(,0,0,1,
0:31.0,11190,N,0,0,0,
0:31.1,11204,),0,0,1,
0:31.2,11265,(,0,0,2,
0:31.3,11286,t,0,0,4,
0:31.4,11328,t,0,0,4,
0:31.5,11354,),0,0,2,
0:31.6,11399,(,0,0,0,
0:31.7,11418,p,0,0,0,
0:31.7,11442,),0,0,0,
0:31.8,11461,(,0,0,1,
0:31.8,11479,N,0,0,0,
0:31.9,11494,),0,0,1,
0:32.1,11557,(,0,0,2,
0:32.1,11574,t,0,0,4,
0:32.3,11639,t,0,0,4,
0:32.3,11658,),0,0,2,
0:32.5,11701,(,0,0,0,
0:32.5,11721,p,0,0,0,
0:32.6,11741,),0,0,0,
0:32.6,11761,(,0,0,1,
0:32.7,11780,N,0,0,0,
0:32.7,11790,),0,0,1,
0:33.2,11984,(,0,0,0,
0:33.3,12001,p,0,0,0,
0:33.4,12031,),0,0,0,
0:33.4,12048,(,0,0,1,
0:33.5,12065,N,0,0,0,
0:33.5,12078,),0,0,1,
0:33.7,12160,(,0,0,2,
0:33.8,12187,t,0,0,0,
0:33.8,12202,),0,0,2,
0:34.0,12263,(,0,0,0,
0:34.1,12289,p,0,0,0,
0:34.1,12308,),0,0,0,
0:34.2,12327,(,0,0,1,
0:34.3,12349,N,0,0,0,
0:34.3,12363,),0,0,1,
0:34.5,12424,(,0,0,2,
0:34.5,12441,t,0,0,4,
0:34.6,12479,t,0,0,4,
0:34.7,12510,),0,0,2,
0:34.8,12562,(,0,0,0,
0:34.9,12578,p,0,0,0,
0:35.0,12603,),0,0,0,
0:35.0,12626,(,0,0,1,
0:35.1,12644,N,0,0,0,
0:35.1,12658,),0,0,1,
0:35.3,12724,(,0,0,2,
0:35.3,12740,t,0,0,4,
0:35.4,12776,t,0,0,4,
0:35.5,12801,),0,0,2,
0:35.7,12863,(,0,0,0,
0:35.7,12883,p,0,0,0,
0:35.8,12909,),0,0,0,
0:35.9,12928,(,0,0,1,
0:35.9,12948,N,0,0,0,
0:36.0,12963,),0,0,1,
0:36.2,13038,(,0,0,2,
0:36.2,13050,t,0,0,4,
0:36.4,13117,t,0,0,4,
0:36.4,13138,),0,0,2,
0:36.6,13179,(,0,0,0,
0:36.6,13203,p,0,0,0,
0:36.7,13221,),0,0,0,
0:36.7,13241,(,0,0,1,
0:36.8,13265,N,0,0,0,
0:36.8,13279,),0,0,1,
0:37.1,13373,(,0,0,2,
0:37.2,13407,t,0,0,0,
0:37.3,13448,),0,0,2,
0:37.4,13483,(,0,0,0,
0:37.5,13500,p,0,0,0,
0:37.5,13521,),0,0,0,
0:37.6,13544,(,0,0,1,
0:37.6,13561,N,0,0,0,
0:37.7,13574,),0,0,1,
0:37.8,13640,(,0,0,2,
0:37.9,13654,t,0,0,4,
0:38.0,13692,t,0,0,4,
0:38.1,13726,),0,0,2,
0:38.2,13767,(,0,0,0,
0:38.2,13785,p,0,0,0,
0:38.3,13806,),0,0,0,
0:38.3,13822,(,0,0,1,
0:38.4,13841,N,0,0,0,
0:38.4,13857,),0,0,1,
0:38.6,13922,(,0,0,2,
0:38.7,13936,t,0,0,4,
0:38.8,13969,t,0,0,4,
0:38.9,14005,),0,0,2,
0:39.0,14050,(,0,0,0,
0:39.0,14067,p,0,0,0,
0:39.1,14096,),0,0,0,
0:39.1,14111,(,0,0,1,
0:39.2,14130,N,0,0,0,
0:39.2,14143,),0,0,1,
0:39.8,14341,(,0,0,0,
0:39.8,14361,p,0,0,0,
0:39.9,14387,),0,0,0,
0:40.0,14403,(,0,0,1,
0:40.0,14421,N,0,0,0,
0:40.0,14432,),0,0,1,
0:40.3,14522,(,0,0,2,
0:40.4,14548,t,0,0,0,
0:40.4,14563,),0,0,2,
0:40.6,14632,(,0,0,0,
0:40.6,14651,p,0,0,0,
0:40.7,14672,),0,0,0,
0:40.8,14690,(,0,0,1,
0:40.8,14709,N,0,0,0,
0:40.9,14724,),0,0,1,
0:41.0,14790,(,0,0,2,
0:41.1,14805,t,0,0,4,
0:41.2,14839,t,0,0,4,
0:41.2,14853,),0,0,2,
0:41.4,14923,(,0,0,0,
0:41.5,14942,p,0,0,0,
0:41.5,14968,),0,0,0,
0:41.6,14990,(,0,0,1,
0:41.6,15010,N,0,0,0,
0:41.7,15018,),0,0,1,
0:41.8,15076,(,0,0,2,
0:41.9,15102,t,0,0,4,
0:42.1,15157,t,0,0,4,
0:42.2,15194,),0,0,2,
0:42.2,15224,(,0,0,0,
0:42.3,15247,p,0,0,0,
0:42.4,15271,),0,0,0,
0:42.4,15289,(,0,0,1,
0:42.5,15309,N,0,0,0,
0:42.5,15323,),0,0,1,
0:42.8,15410,(,0,0,2,
0:42.8,15440,t,0,0,0,
0:42.9,15464,),0,0,2,
0:43.1,15522,(,0,0,0,
0:43.1,15547,p,0,0,0,
0:43.2,15569,),0,0,0,
0:43.2,15587,(,0,0,1,
0:43.3,15606,N,0,0,0,
0:43.4,15624,),0,0,1,
0:43.5,15689,(,0,0,2,
0:43.6,15704,t,0,0,4,
0:43.7,15738,t,0,0,4,
0:43.8,15780,),0,0,2,
0:43.9,15819,(,0,0,0,
0:43.9,15837,p,0,0,0,
0:44.0,15861,),0,0,0,
0:44.1,15881,(,0,0,1,
0:44.1,15898,N,0,0,0,
0:44.2,15912,),0,0,1,
0:44.3,15973,(,0,0,2,
0:44.4,15990,t,0,0,4,
0:44.5,16025,t,0,0,4,
0:44.6,16064,),0,0,2,
0:44.7,16107,(,0,0,0,
0:44.7,16122,p,0,0,0,
0:44.8,16147,),0,0,0,
0:44.8,16163,(,0,0,1,
0:44.9,16182,N,0,0,0,
0:44.9,16199,),0,0,1,
0:45.1,16258,(,0,0,2,
0:45.2,16276,t,0,0,4,
0:45.3,16315,t,0,0,4,
0:45.3,16335,),0,0,2,
0:45.5,16385,(,0,0,0,
0:45.5,16406,p,0,0,0,
0:45.6,16428,),0,0,0,
0:45.6,16444,(,0,0,1,
0:45.7,16463,N,0,0,0,
0:45.7,16479,),0,0,1,
0:46.3,16672,(,0,0,0,
0:46.3,16693,p,0,0,0,
0:46.4,16712,),0,0,0,
0:46.4,16734,(,0,0,1,
0:46.5,16754,N,0,0,0,
0:46.5,16771,),0,0,1,
0:46.7,16833,(,0,0,2,
0:46.8,16856,t,0,0,4,
0:46.9,16900,t,0,0,4,
0:46.9,16914,),0,0,2,
0:47.1,16973,(,0,0,0,
0:47.1,16991,p,0,0,0,
0:47.2,17016,),0,0,0,
0:47.3,17038,(,0,0,1,
0:47.3,17057,N,0,0,0,
0:47.4,17071,),0,0,1,
0:47.6,17137,(,0,0,2,
0:47.6,17153,t,0,0,4,
0:47.8,17242,t,0,0,4,
0:47.9,17256,),0,0,2,
0:47.9,17274,(,0,0,0,
0:48.0,17300,p,0,0,0,
0:48.1,17319,),0,0,0,
0:48.1,17338,(,0,0,1,
0:48.2,17357,N,0,0,0,
0:48.2,17367,),0,0,1,
0:48.4,17459,(,0,0,2,
0:48.6,17496,t,0,0,0,
0:48.6,17516,),0,0,2,
0:48.8,17576,(,0,0,0,
0:48.8,17593,p,0,0,0,
0:48.9,17616,),0,0,0,
0:48.9,17636,(,0,0,1,
0:49.0,17656,N,0,0,0,
0:49.0,17673,),0,0,1,
0:49.6,17864,(,0,0,0,
0:49.6,17882,p,0,0,0,
0:49.7,17905,),0,0,0,
0:49.7,17927,(,0,0,1,
0:49.8,17946,N,0,0,0,
0:49.8,17954,),0,0,1,
0:50.0,18021,(,0,0,2,
0:50.1,18039,t,0,0,4,
0:50.1,18066,t,0,0,4,
0:50.2,18097,),0,0,2,
0:50.4,18146,(,0,0,0,
0:50.4,18163,p,0,0,0,
0:50.5,18188,),0,0,0,
0:50.5,18205,(,0,0,1,
0:50.6,18226,N,0,0,0,
0:50.6,18240,),0,0,1,
0:50.8,18297,(,0,0,2,
0:50.8,18316,t,0,0,4,
0:50.9,18347,t,0,0,4,
0:51.0,18387,),0,0,2,
0:51.1,18429,(,0,0,0,
0:51.2,18449,p,0,0,0,
0:51.3,18472,),0,0,0,
0:51.3,18491,(,0,0,1,
0:51.4,18513,N,0,0,0,
0:51.4,18521,),0,0,1,
0:51.6,18595,(,0,0,2,
0:51.6,18605,t,0,0,4,
0:51.7,18635,t,0,0,4,
0:51.9,18684,),0,0,2,
0:51.9,18714,(,0,0,0,
0:52.0,18730,p,0,0,0,
0:52.1,18756,),0,0,0,
0:52.1,18773,(,0,0,1,
0:52.2,18794,N,0,0,0,
0:52.2,18808,),0,0,1,
0:52.4,18867,(,0,0,2,
0:52.4,18887,t,0,0,4,
0:52.5,18919,t,0,0,4,
0:52.6,18957,),0,0,2,
0:52.7,18997,(,0,0,0,
0:52.8,19019,p,0,0,0,
0:52.8,19039,),0,0,0,
0:52.9,19061,(,0,0,1,
0:52.9,19079,N,0,0,0,
0:53.0,19088,),0,0,1,
0:53.2,19161,(,0,0,2,
0:53.2,19178,t,0,0,4,
0:53.3,19214,t,0,0,4,
0:53.4,19229,),0,0,2,
0:53.6,19298,(,0,0,0,
0:53.6,19318,p,0,0,0,
0:53.7,19343,),0,0,0,
0:53.7,19367,(,0,0,1,
0:53.8,19387,N,0,0,0,
0:53.8,19396,),0,0,1,
0:54.1,19476,(,0,0,2,
0:54.1,19487,t,0,0,4,
0:54.2,19519,t,0,0,4,
0:54.3,19554,),0,0,2,
0:54.4,19607,(,0,0,0,
0:54.5,19626,p,0,0,0,
0:54.5,19653,),0,0,0,
0:54.6,19672,(,0,0,1,
0:54.7,19692,N,0,0,0,
0:54.7,19701,),0,0,1,
0:54.9,19793,(,0,0,2,
0:55.0,19819,t,0,0,0,
0:55.2,19874,),0,0,2,
0:55.3,19909,(,0,0,0,
0:55.3,19927,p,0,0,0,
0:55.4,19949,),0,0,0,
0:55.4,19970,(,0,0,1,
0:55.5,19988,N,0,0,0,
0:55.5,20002,),0,0,1,
0:55.7,20059,(,0,0,2,
0:55.7,20083,t,0,0,4,
0:55.8,20122,t,0,0,4,
0:55.9,20142,),0,0,2,
0:56.0,20193,(,0,0,0,
0:56.1,20209,p,0,0,0,
0:56.1,20228,),0,0,0,
0:56.2,20254,(,0,0,1,
0:56.3,20270,N,0,0,0,
0:56.3,20284,),0,0,1,
0:56.5,20341,(,0,0,2,
0:56.5,20359,t,0,0,1,
0:56.6,20386,),0,0,2,
0:56.8,20473,(,0,0,0,
0:56.9,20491,p,0,0,0,
0:56.9,20512,),0,0,0,
0:57.0,20536,(,0,0,1,
0:57.0,20553,N,0,0,0,
0:57.1,20563,),0,0,1,
0:57.3,20648,(,0,0,2,
0:57.4,20675,t,0,0,0,
0:57.5,20715,),0,0,2,
0:57.6,20756,(,0,0,0,
0:57.7,20774,p,0,0,0,
0:57.7,20795,),0,0,0,
0:57.8,20817,(,0,0,1,
0:57.8,20836,N,0,0,0,
0:57.9,20845,),0,0,1,
0:58.0,20913,(,0,0,2,
0:58.1,20930,t,0,0,4,
0:58.2,20962,t,0,0,4,
0:58.3,20993,),0,0,2,
0:58.4,21044,(,0,0,0,
0:58.5,21069,p,0,0,0,
0:58.5,21091,),0,0,0,
0:58.6,21111,(,0,0,1,
0:58.6,21130,N,0,0,0,
0:58.7,21146,),0,0,1,
0:58.9,21206,(,0,0,2,
0:58.9,21230,t,0,0,4,
0:59.0,21263,t,0,0,4,
0:59.1,21294,),0,0,2,
0:59.2,21344,(,0,0,0,
0:59.3,21361,p,0,0,0,
0:59.4,21384,),0,0,0,
0:59.4,21403,(,0,0,1,
0:59.5,21422,N,0,0,0,
0:59.5,21440,),0,0,1,
0:59.7,21504,(,0,0,2,
0:59.7,21524,t,0,0,4,
0:59.8,21557,t,0,0,4,
1:00.0,21603,),0,0,2,
1:00.1,21645,(,0,0,0,
1:00.1,21664,p,0,0,0,
1:00.2,21689,),0,0,0,
1:00.3,21709,(,0,0,1,
1:00.3,21728,N,0,0,0,
1:00.3,21741,),0,0,1,
1:00.6,21832,(,0,0,2,
1:00.7,21858,t,0,0,0,
1:00.8,21919,),0,0,2,
1:00.9,21944,(,0,0,0,
1:01.0,21961,p,0,0,0,
1:01.0,21987,),0,0,0,
1:01.1,22009,(,0,0,1,
1:01.1,22028,N,0,0,0,
1:01.2,22042,),0,0,1,
1:01.4,22113,(,0,0,2,
1:01.4,22129,t,0,0,4,
1:01.5,22156,t,0,0,4,
1:01.6,22200,),0,0,2,
1:01.7,22243,(,0,0,0,
1:01.8,22261,p,0,0,0,
1:01.8,22280,),0,0,0,
1:01.9,22303,(,0,0,1,
1:02.0,22320,N,0,0,0,
1:02.0,22338,),0,0,1,
1:02.2,22395,(,0,0,2,
1:02.2,22412,t,0,0,4,
1:02.3,22453,t,0,0,4,
1:02.4,22486,),0,0,2,
1:02.5,22525,(,0,0,0,
1:02.6,22542,p,0,0,0,
1:02.6,22563,),0,0,0,
1:02.7,22583,(,0,0,1,
1:02.7,22601,N,0,0,0,
1:02.8,22610,),0,0,1,
1:02.9,22670,(,0,0,2,
1:03.0,22690,t,0,0,4,
1:03.1,22721,t,0,0,4,
1:03.2,22762,),0,0,2,
1:03.3,22802,(,0,0,0,
1:03.4,22824,p,0,0,0,
1:03.4,22846,),0,0,0,
1:03.5,22862,(,0,0,1,
1:03.5,22880,N,0,0,0,
1:03.5,22888,),0,0,1,
1:03.8,22974,(,0,0,2,
1:03.8,23002,t,0,0,0,
1:04.0,23047,),0,0,2,
1:04.1,23082,(,0,0,0,
1:04.1,23100,p,0,0,0,
1:04.2,23125,),0,0,0,
1:04.2,23145,(,0,0,1,
1:04.3,23162,N,0,0,0,
1:04.3,23171,),0,0,1,
1:04.5,23243,(,0,0,2,
1:04.6,23256,t,0,0,4,
1:04.6,23290,t,0,0,4,
1:04.8,23330,),0,0,2,
1:04.9,23367,(,0,0,0,
1:04.9,23386,p,0,0,0,
1:05.0,23411,),0,0,0,
1:05.0,23433,(,0,0,1,
1:05.1,23452,N,0,0,0,
1:05.1,23467,),0,0,1,
1:05.3,23536,(,0,0,2,
1:05.4,23556,t,0,0,1,
1:05.5,23580,),0,0,2,
1:05.7,23670,(,0,0,0,
1:05.8,23690,p,0,0,0,
1:05.8,23713,),0,0,0,
1:05.9,23737,(,0,0,1,
1:05.9,23755,N,0,0,0,
1:06.0,23769,),0,0,1,
1:06.2,23837,(,0,0,2,
1:06.2,23853,t,0,0,4,
1:06.3,23890,t,0,0,4,
1:06.5,23944,),0,0,2,
1:06.5,23971,(,0,0,0,
1:06.6,23989,p,0,0,0,
1:06.7,24014,),0,0,0,
1:06.7,24032,(,0,0,1,
1:06.8,24052,N,0,0,0,
1:06.8,24067,),0,0,1,
1:07.0,24128,(,0,0,2,
1:07.0,24152,t,0,0,4,
1:07.1,24184,t,0,0,4,
1:07.3,24228,),0,0,2,
1:07.4,24265,(,0,0,0,
1:07.4,24282,p,0,0,0,
1:07.5,24306,),0,0,0,
1:07.5,24326,(,0,0,1,
1:07.6,24344,N,0,0,0,
1:07.6,24358,),0,0,1,
1:07.8,24417,(,0,0,2,
1:07.8,24438,t,0,0,4,
1:07.9,24472,t,0,0,4,
1:08.1,24517,),0,0,2,
1:08.1,24547,(,0,0,0,
1:08.2,24564,p,0,0,0,
1:08.2,24585,),0,0,0,
1:08.3,24607,(,0,0,1,
1:08.4,24624,N,0,0,0,
1:08.4,24638,),0,0,1,
1:08.6,24697,(,0,0,2,
1:08.6,24719,t,0,0,4,
1:08.7,24759,t,0,0,4,
1:08.8,24796,),0,0,2,
1:08.9,24834,(,0,0,0,
1:09.0,24850,p,0,0,0,
1:09.0,24875,),0,0,0,
1:09.1,24893,(,0,0,1,
1:09.2,24912,N,0,0,0,
1:09.2,24921,),0,0,1,
1:09.4,24984,(,0,0,2,
1:09.4,25002,t,0,0,4,
1:09.5,25035,t,0,0,4,
1:09.6,25071,),0,0,2,
1:09.7,25116,(,0,0,0,
1:09.8,25133,p,0,0,0,
1:09.8,25160,),0,0,0,
1:09.9,25178,(,0,0,1,
1:09.9,25196,N,0,0,0,
1:10.0,25210,),0,0,1,
1:10.2,25280,(,0,0,2,
1:10.2,25290,t,0,0,4,
1:10.3,25318,t,0,0,4,
1:10.4,25357,),0,0,2,
1:10.5,25402,(,0,0,0,
1:10.6,25420,p,0,0,0,
1:10.6,25446,),0,0,0,
1:10.7,25465,(,0,0,1,
1:10.7,25484,N,0,0,0,
1:10.8,25499,),0,0,1,
1:11.0,25561,(,0,0,2,
1:11.0,25582,t,0,0,4,
1:11.1,25615,t,0,0,4,
1:11.2,25659,),0,0,2,
1:11.3,25696,(,0,0,0,
1:11.4,25714,p,0,0,0,
1:11.5,25740,),0,0,0,
1:11.5,25759,(,0,0,1,
1:11.6,25779,N,0,0,0,
1:11.6,25796,),0,0,1,
1:11.8,25861,(,0,0,2,
1:11.8,25879,t,0,0,4,
1:11.9,25919,t,0,0,4,
1:12.0,25948,),0,0,2,
1:12.2,26003,(,0,0,0,
1:12.2,26020,p,0,0,0,
1:12.3,26046,),0,0,0,
1:12.4,26064,(,0,0,1,
1:12.4,26087,N,0,0,0,
1:12.4,26096,),0,0,1,
1:12.7,26192,(,0,0,2,
1:12.8,26217,t,0,0,0,
1:12.9,26265,),0,0,2,
1:13.0,26302,(,0,0,0,
1:13.1,26320,p,0,0,0,
1:13.1,26348,),0,0,0,
1:13.2,26367,(,0,0,1,
1:13.2,26385,N,0,0,0,
1:13.3,26400,),0,0,1,
1:13.5,26492,(,0,0,2,
1:13.6,26515,t,0,0,0,
1:13.7,26545,),0,0,2,
1:13.8,26592,(,0,0,0,
1:13.9,26614,p,0,0,0,
1:13.9,26634,),0,0,0,
1:14.0,26651,(,0,0,1,
1:14.0,26669,N,0,0,0,
1:14.1,26683,),0,0,1,
1:14.2,26747,(,0,0,2,
1:14.3,26767,t,0,0,4,
1:14.4,26797,t,0,0,4,
1:14.5,26823,),0,0,2,
1:14.6,26874,(,0,0,0,
1:14.7,26892,p,0,0,0,
1:14.7,26916,),0,0,0,
1:14.8,26932,(,0,0,1,
1:14.8,26951,N,0,0,0,
1:14.9,26965,),0,0,1,
1:15.0,27029,(,0,0,2,
1:15.1,27044,t,0,0,4,
1:15.2,27074,t,0,0,4,
1:15.3,27121,),0,0,2,
1:15.4,27157,(,0,0,0,
1:15.4,27176,p,0,0,0,
1:15.5,27201,),0,0,0,
1:15.6,27217,(,0,0,1,
1:15.6,27236,N,0,0,0,
1:15.6,27251,),0,0,1,
1:15.8,27311,(,0,0,2,
1:15.9,27331,t,0,0,4,
1:16.0,27362,t,0,0,4,
1:16.1,27412,),0,0,2,
1:16.2,27456,(,0,0,0,
1:16.3,27474,p,0,0,0,
1:16.3,27495,),0,0,0,
1:16.4,27518,(,0,0,1,
1:16.4,27535,N,0,0,0,
1:16.5,27549,),0,0,1,
1:16.7,27614,(,0,0,2,
1:16.7,27629,t,0,0,4,
1:16.8,27662,t,0,0,4,
1:16.9,27696,),0,0,2,
1:17.0,27751,(,0,0,0,
1:17.1,27768,p,0,0,0,
1:17.2,27795,),0,0,0,
1:17.2,27812,(,0,0,1,
1:17.3,27832,N,0,0,0,
1:17.3,27851,),0,0,1,
1:17.5,27912,(,0,0,2,
1:17.5,27930,t,0,0,4,
1:17.6,27964,t,0,0,4,
1:17.7,27980,),0,0,2,
1:17.9,28051,(,0,0,0,
1:17.9,28068,p,0,0,0,
1:18.0,28091,),0,0,0,
1:18.0,28109,(,0,0,1,
1:18.1,28131,N,0,0,0,
1:18.1,28140,),0,0,1,
1:18.3,28207,(,0,0,2,
1:18.4,28224,t,0,0,4,
1:18.5,28261,t,0,0,4,
1:18.6,28302,),0,0,2,
1:18.7,28345,(,0,0,0,
1:18.7,28364,p,0,0,0,
1:18.8,28392,),0,0,0,
1:18.9,28410,(,0,0,1,
1:18.9,28430,N,0,0,0,
1:19.0,28444,),0,0,1,
1:19.1,28510,(,0,0,2,
1:19.2,28523,t,0,0,4,
1:19.3,28560,t,0,0,4,
1:19.4,28598,),0,0,2,
1:19.5,28643,(,0,0,0,
1:19.6,28662,p,0,0,0,
1:19.6,28685,),0,0,0,
1:19.7,28706,(,0,0,1,
1:19.7,28725,N,0,0,0,
1:19.8,28740,),0,0,1,
1:20.0,28809,(,0,0,2,
1:20.0,28823,t,0,0,4,
1:20.1,28859,t,0,0,4,
1:20.2,28897,),0,0,2,
1:20.3,28929,(,0,0,0,
1:20.4,28951,p,0,0,0,
1:20.4,28971,),0,0,0,
1:20.5,28991,(,0,0,1,
1:20.5,29013,N,0,0,0,
1:20.6,29027,),0,0,1,
1:20.7,29087,(,0,0,2,
1:20.8,29106,t,0,0,4,
1:20.9,29139,t,0,0,4,
1:21.0,29174,),0,0,2,
1:21.1,29215,(,0,0,0,
1:21.2,29232,p,0,0,0,
1:21.2,29257,),0,0,0,
1:21.3,29275,(,0,0,1,
1:21.3,29293,N,0,0,0,
1:21.4,29306,),0,0,1,
1:21.5,29366,(,0,0,2,
1:21.6,29383,t,0,0,4,
1:21.7,29420,t,0,0,4,
1:21.8,29465,),0,0,2,
1:21.9,29499,(,0,0,0,
1:22.0,29521,p,0,0,0,
1:22.0,29543,),0,0,0,
1:22.1,29559,(,0,0,1,
1:22.1,29579,N,0,0,0,
1:22.2,29594,),0,0,1,
1:22.3,29659,(,0,0,2,
1:22.4,29671,t,0,0,4,
1:22.5,29703,t,0,0,4,
1:22.6,29761,),0,0,2,
1:22.7,29789,(,0,0,0,
1:22.8,29811,p,0,0,0,
1:22.8,29834,),0,0,0,
1:22.9,29852,(,0,0,1,
1:22.9,29872,N,0,0,0,
1:23.0,29888,),0,0,1,
1:23.2,29957,(,0,0,2,
1:23.2,29975,t,0,0,4,
1:23.3,30008,t,0,0,4,
1:23.4,30048,),0,0,2,
1:23.6,30096,(,0,0,0,
1:23.6,30117,p,0,0,0,
1:23.7,30139,),0,0,0,
1:23.7,30162,(,0,0,1,
1:23.8,30181,N,0,0,0,
1:23.8,30195,),0,0,1,
1:24.0,30259,(,0,0,2,
1:24.1,30277,t,0,0,4,
1:24.2,30312,t,0,0,4,
1:24.3,30353,),0,0,2,
1:24.4,30405,(,0,0,0,
1:24.5,30424,p,0,0,0,
1:24.5,30447,),0,0,0,
1:24.6,30467,(,0,0,1,
1:24.6,30486,N,0,0,0,
1:24.7,30494,),0,0,1,
1:24.8,30560,(,0,0,2,
1:24.9,30579,t,0,0,4,
1:25.0,30614,t,0,0,4,
1:25.1,30659,),0,0,2,
1:25.2,30697,(,0,0,0,
1:25.3,30716,p,0,0,0,
1:25.3,30740,),0,0,0,
1:25.4,30760,(,0,0,1,
1:25.4,30778,N,0,0,0,
1:25.5,30792,),0,0,1,
1:25.7,30877,(,0,0,2,
1:25.8,30899,t,0,0,0,
1:25.9,30936,),0,0,2,
1:26.0,30987,(,0,0,0,
1:26.1,31003,p,0,0,0,
1:26.1,31024,),0,0,0,
1:26.2,31045,(,0,0,1,
1:26.2,31064,N,0,0,0,
1:26.3,31078,),0,0,1,
1:26.5,31140,(,0,0,2,
1:26.5,31155,t,0,0,1,
1:26.6,31180,),0,0,2,
1:26.8,31267,(,0,0,0,
1:26.9,31285,p,0,0,0,
1:26.9,31308,),0,0,0,
1:27.0,31329,(,0,0,1,
1:27.0,31347,N,0,0,0,
1:27.0,31355,),0,0,1,
1:27.2,31419,(,0,0,2,
1:27.3,31437,t,0,0,4,
1:27.4,31471,t,0,0,4,
1:27.5,31510,),0,0,2,
1:27.6,31554,(,0,0,0,
1:27.6,31571,p,0,0,0,
1:27.7,31595,),0,0,0,
1:27.8,31614,(,0,0,1,
1:27.8,31635,N,0,0,0,
1:27.9,31649,),0,0,1,
1:28.4,31843,(,0,0,0,
1:28.5,31861,p,0,0,0,
1:28.5,31887,),0,0,0,
1:28.6,31906,(,0,0,1,
1:28.6,31927,N,0,0,0,
1:28.7,31942,),0,0,1,
1:28.9,32004,(,0,0,2,
1:28.9,32025,t,0,0,4,
1:29.0,32062,t,0,0,4,
1:29.1,32100,),0,0,2,
1:29.2,32139,(,0,0,0,
1:29.3,32158,p,0,0,0,
1:29.4,32184,),0,0,0,
1:29.4,32203,(,0,0,1,
1:29.5,32223,N,0,0,0,
1:29.5,32238,),0,0,1,
1:29.7,32303,(,0,0,2,
1:29.7,32319,t,0,0,4,
1:29.8,32360,t,0,0,4,
1:30.0,32413,),0,0,2,
1:30.1,32443,(,0,0,0,
1:30.1,32461,p,0,0,0,
1:30.2,32488,),0,0,0,
1:30.3,32508,(,0,0,1,
1:30.3,32529,N,0,0,0,
1:30.3,32538,),0,0,1,
1:30.5,32614,(,0,0,2,
1:30.6,32630,t,0,0,4,
1:30.7,32666,t,0,0,4,
1:30.8,32709,),0,0,2,
1:30.9,32753,(,0,0,0,
1:31.0,32776,p,0,0,0,
1:31.1,32798,),0,0,0,
1:31.1,32815,(,0,0,1,
1:31.2,32835,N,0,0,0,
1:31.2,32849,),0,0,1,
1:31.7,33046,(,0,0,0,
1:31.8,33066,p,0,0,0,
1:31.9,33089,),0,0,0,
1:31.9,33105,(,0,0,1,
1:32.0,33126,N,0,0,0,
1:32.0,33141,),0,0,1,
1:32.2,33195,(,0,0,2,
1:32.2,33216,t,0,0,4,
1:32.3,33259,t,0,0,4,
1:32.4,33296,),0,0,2,
1:32.5,33323,(,0,0,0,
1:32.6,33343,p,0,0,0,
1:32.6,33364,),0,0,0,
1:32.7,33384,(,0,0,1,
1:32.7,33402,N,0,0,0,
1:32.8,33412,),0,0,1,
1:32.9,33475,(,0,0,2,
1:33.0,33493,t,0,0,4,
1:33.1,33527,t,0,0,4,
1:33.2,33566,),0,0,2,
1:33.3,33611,(,0,0,0,
1:33.4,33628,p,0,0,0,
1:33.4,33653,),0,0,0,
1:33.5,33671,(,0,0,1,
1:33.5,33690,N,0,0,0,
1:33.6,33699,),0,0,1,
1:33.7,33761,(,0,0,2,
1:33.8,33777,t,0,0,4,
1:33.9,33809,t,0,0,4,
1:34.0,33846,),0,0,2,
1:34.1,33895,(,0,0,0,
1:34.2,33914,p,0,0,0,
1:34.2,33937,),0,0,0,
1:34.3,33956,(,0,0,1,
1:34.3,33979,N,0,0,0,
1:34.4,33993,),0,0,1,
1:34.9,34188,(,0,0,0,
1:35.0,34208,p,0,0,0,
1:35.0,34229,),0,0,0,
1:35.1,34254,(,0,0,1,
1:35.2,34273,N,0,0,0,
1:35.2,34290,),0,0,1,
1:35.4,34354,(,0,0,2,
1:35.4,34373,t,0,0,1,
1:35.5,34398,),0,0,2,
1:35.7,34487,(,0,0,0,
1:35.8,34509,p,0,0,0,
1:35.9,34532,),0,0,0,
1:35.9,34554,(,0,0,1,
1:36.0,34574,N,0,0,0,
1:36.0,34588,),0,0,1,
1:36.2,34653,(,0,0,2,
1:36.3,34671,t,0,0,4,
1:36.4,34709,t,0,0,4,
1:36.5,34742,),0,0,2,
1:36.6,34792,(,0,0,0,
1:36.6,34809,p,0,0,0,
1:36.7,34832,),0,0,0,
1:36.8,34850,(,0,0,1,
1:36.8,34869,N,0,0,0,
1:36.8,34877,),0,0,1,
1:37.0,34951,(,0,0,2,
1:37.1,34968,t,0,0,4,
1:37.2,35003,t,0,0,4,
1:37.3,35046,),0,0,2,
1:37.4,35081,(,0,0,0,
1:37.5,35106,p,0,0,0,
1:37.5,35129,),0,0,0,
1:37.6,35148,(,0,0,1,
1:37.6,35167,N,0,0,0,
1:37.7,35182,),0,0,1,
1:37.9,35247,(,0,0,2,
1:37.9,35266,t,0,0,4,
1:38.0,35300,t,0,0,4,
1:38.1,35333,),0,0,2,
1:38.2,35378,(,0,0,0,
1:38.3,35394,p,0,0,0,
1:38.3,35415,),0,0,0,
1:38.4,35436,(,0,0,1,
1:38.4,35454,N,0,0,0,
1:38.5,35468,),0,0,1,
1:38.6,35527,(,0,0,2,
1:38.7,35545,t,0,0,4,
1:38.8,35582,t,0,0,4,
1:38.9,35623,),0,0,2,
1:39.0,35660,(,0,0,0,
1:39.1,35676,p,0,0,0,
1:39.1,35699,),0,0,0,
1:39.2,35718,(,0,0,1,
1:39.2,35735,N,0,0,0,
1:39.2,35745,),0,0,1,
1:39.4,35810,(,0,0,2,
1:39.5,35823,t,0,0,4,
1:39.5,35854,t,0,0,4,
1:39.7,35896,),0,0,2,
1:39.8,35936,(,0,0,0,
1:39.8,35953,p,0,0,0,
1:39.9,35978,),0,0,0,
1:39.9,35998,(,0,0,1,
1:40.0,36015,N,0,0,0,
1:40.0,36023,),0,0,1,
1:40.2,36095,(,0,0,2,
1:40.3,36109,t,0,0,4,
1:40.3,36136,t,0,0,4,
1:40.4,36149,),0,0,2,
1:40.6,36225,(,0,0,0,
1:40.6,36247,p,0,0,0,
1:40.7,36270,),0,0,0,
1:40.8,36288,(,0,0,1,
1:40.8,36308,N,0,0,0,
1:40.8,36318,),0,0,1,
1:41.0,36382,(,0,0,2,
1:41.1,36404,t,0,0,4,
1:41.2,36439,t,0,0,4,
1:41.2,36452,),0,0,2,
1:41.4,36522,(,0,0,0,
1:41.5,36540,p,0,0,0,
1:41.5,36562,),0,0,0,
1:41.6,36585,(,0,0,1,
1:41.6,36604,N,0,0,0,
1:41.7,36619,),0,0,1,
1:41.8,36682,(,0,0,2,
1:41.9,36702,t,0,0,4,
1:42.0,36740,t,0,0,4,
1:42.1,36786,),0,0,2,
1:42.3,36830,(,0,0,0,
1:42.3,36849,p,0,0,0,
1:42.4,36871,),0,0,0,
1:42.4,36895,(,0,0,1,
1:42.5,36915,N,0,0,0,
1:42.5,36923,),0,0,1,
1:42.8,37017,(,0,0,2,
1:42.8,37040,t,0,0,0,
1:42.9,37070,),0,0,2,
1:43.1,37132,(,0,0,0,
1:43.1,37149,p,0,0,0,
1:43.2,37173,),0,0,0,
1:43.3,37196,(,0,0,1,
1:43.3,37214,N,0,0,0,
1:43.4,37228,),0,0,1,
1:43.6,37314,(,0,0,2,
1:43.7,37342,t,0,0,0,
1:43.8,37392,),0,0,2,
1:43.9,37420,(,0,0,0,
1:43.9,37438,p,0,0,0,
1:44.0,37458,),0,0,0,
1:44.1,37480,(,0,0,1,
1:44.1,37498,N,0,0,0,
1:44.2,37512,),0,0,1,
1:44.3,37572,(,0,0,2,
1:44.4,37588,t,0,0,4,
1:44.5,37625,t,0,0,4,
1:44.5,37654,),0,0,2,
1:44.7,37701,(,0,0,0,
1:44.7,37721,p,0,0,0,
1:44.8,37741,),0,0,0,
1:44.8,37763,(,0,0,1,
1:44.9,37781,N,0,0,0,
1:44.9,37796,),0,0,1,
1:45.1,37860,(,0,0,2,
1:45.2,37875,t,0,0,4,
1:45.3,37912,t,0,0,4,
1:45.4,37950,),0,0,2,
1:45.5,37995,(,0,0,0,
1:45.5,38012,p,0,0,0,
1:45.6,38032,),0,0,0,
1:45.7,38053,(,0,0,1,
1:45.7,38070,N,0,0,0,
1:45.7,38080,),0,0,1,
1:45.9,38141,(,0,0,2,
1:45.9,38156,t,0,0,4,
1:46.1,38198,t,0,0,4,
1:46.2,38257,),0,0,2,
1:46.3,38275,(,0,0,0,
1:46.3,38296,p,0,0,0,
1:46.4,38320,),0,0,0,
1:46.4,38337,(,0,0,1,
1:46.5,38355,N,0,0,0,
1:46.5,38369,),0,0,1,
1:47.1,38567,(,0,0,0,
1:47.1,38587,p,0,0,0,
1:47.2,38611,),0,0,0,
1:47.3,38628,(,0,0,1,
1:47.3,38650,N,0,0,0,
1:47.3,38659,),0,0,1,
1:47.6,38754,(,0,0,2,
1:47.7,38796,t,0,0,0,
1:47.8,38822,),0,0,2,
1:47.9,38867,(,0,0,0,
1:48.0,38885,p,0,0,0,
1:48.0,38913,),0,0,0,
1:48.1,38930,(,0,0,1,
1:48.1,38949,N,0,0,0,
1:48.2,38963,),0,0,1,
1:48.3,39022,(,0,0,2,
1:48.4,39043,t,0,0,4,
1:48.5,39077,t,0,0,4,
1:48.6,39129,),0,0,2,
1:48.7,39166,(,0,0,0,
1:48.8,39184,p,0,0,0,
1:48.9,39211,),0,0,0,
1:48.9,39229,(,0,0,1,
1:49.0,39251,N,0,0,0,
1:49.0,39262,),0,0,1,
1:49.6,39463,(,0,0,0,
1:49.6,39480,p,0,0,0,
1:49.7,39508,),0,0,0,
1:49.7,39525,(,0,0,1,
1:49.8,39546,N,0,0,0,
1:49.8,39560,),0,0,1,
1:50.4,39745,(,0,0,0,
1:50.4,39762,p,0,0,0,
1:50.5,39784,),0,0,0,
1:50.5,39805,(,0,0,1,
1:50.6,39824,N,0,0,0,
1:50.6,39838,),0,0,1,
1:50.8,39901,(,0,0,2,
1:50.8,39915,t,0,0,4,
1:50.9,39946,t,0,0,4,
1:51.0,39988,),0,0,2,
1:51.1,40019,(,0,0,0,
1:51.2,40036,p,0,0,0,
1:51.2,40055,),0,0,0,
1:51.3,40077,(,0,0,1,
1:51.3,40095,N,0,0,0,
1:51.4,40108,),0,0,1,
1:51.5,40168,(,0,0,2,
1:51.6,40183,t,0,0,4,
1:51.7,40223,t,0,0,4,
1:51.8,40269,),0,0,2,
1:51.9,40297,(,0,0,0,
1:51.9,40319,p,0,0,0,
1:52.0,40343,),0,0,0,
1:52.1,40361,(,0,0,1,
1:52.1,40381,N,0,0,0,
1:52.2,40395,),0,0,1,
1:52.4,40467,(,0,0,2,
1:52.4,40478,t,0,0,4,
1:52.5,40514,t,0,0,4,
1:52.6,40553,),0,0,2,
1:52.7,40591,(,0,0,0,
1:52.8,40616,p,0,0,0,
1:52.8,40636,),0,0,0,
1:52.9,40654,(,0,0,1,
1:52.9,40676,N,0,0,0,
1:53.0,40690,),0,0,1,
1:53.5,40887,(,0,0,0,
1:53.6,40905,p,0,0,0,
1:53.7,40934,),0,0,0,
1:53.7,40951,(,0,0,1,
1:53.8,40969,N,0,0,0,
1:53.8,40984,),0,0,1,
1:54.0,41050,(,0,0,2,
1:54.0,41068,t,0,0,4,
1:54.1,41103,t,0,0,4,
1:54.3,41154,),0,0,2,
1:54.4,41186,(,0,0,0,
1:54.4,41207,p,0,0,0,
1:54.5,41230,),0,0,0,
1:54.5,41248,(,0,0,1,
1:54.6,41270,N,0,0,0,
1:54.6,41279,),0,0,1,
1:54.8,41339,(,0,0,2,
1:54.8,41363,t,0,0,4,
1:54.9,41397,t,0,0,4,
1:55.0,41422,),0,0,2,
1:55.2,41484,(,0,0,0,
1:55.2,41502,p,0,0,0,
1:55.3,41526,),0,0,0,
1:55.4,41547,(,0,0,1,
1:55.4,41566,N,0,0,0,
1:55.4,41579,),0,0,1,
1:55.7,41663,(,0,0,2,
1:55.7,41683,t,0,0,0,
1:55.9,41726,),0,0,2,
1:56.0,41769,(,0,0,0,
1:56.0,41784,p,0,0,0,
1:56.1,41808,),0,0,0,
1:56.1,41831,(,0,0,1,
1:56.2,41848,N,0,0,0,
1:56.2,41863,),0,0,1,
1:56.4,41928,(,0,0,2,
1:56.5,41942,t,0,0,4,
1:56.5,41971,t,0,0,4,
1:56.6,42004,),0,0,2,
1:56.7,42041,(,0,0,0,
1:56.8,42062,p,0,0,0,
1:56.8,42077,),0,0,0,
1:56.9,42097,(,0,0,1,
1:56.9,42115,N,0,0,0,
1:57.0,42129,),0,0,1,
1:57.1,42191,(,0,0,2,
1:57.2,42212,t,0,0,4,
1:57.3,42239,t,0,0,4,
1:57.4,42277,),0,0,2,
1:57.5,42334,(,0,0,0,
1:57.6,42353,p,0,0,0,
1:57.7,42379,),0,0,0,
1:57.7,42395,(,0,0,1,
1:57.8,42415,N,0,0,0,
1:57.8,42423,),0,0,1,
1:58.0,42514,(,0,0,2,
1:58.1,42537,t,0,0,0,
1:58.2,42586,),0,0,2,
1:58.3,42615,(,0,0,0,
1:58.4,42634,p,0,0,0,
1:58.5,42661,),0,0,0,
1:58.5,42676,(,0,0,1,
1:58.6,42696,N,0,0,0,
1:58.6,42712,),0,0,1,
1:58.8,42773,(,0,0,2,
1:58.8,42798,t,0,0,4,
1:58.9,42829,t,0,0,4,
1:59.0,42871,),0,0,2,
1:59.2,42912,(,0,0,0,
1:59.2,42930,p,0,0,0,
1:59.3,42954,),0,0,0,
1:59.3,42976,(,0,0,1,
1:59.4,42995,N,0,0,0,
1:59.4,43014,),0,0,1,
1:59.6,43073,(,0,0,2,
1:59.7,43100,t,0,0,4,
1:59.8,43137,t,0,0,4,
1:59.9,43191,),0,0,2,
2:00.0,43224,(,0,0,0,
2:00.1,43241,p,0,0,0,
2:00.1,43265,),0,0,0,
2:00.2,43286,(,0,0,1,
2:00.2,43306,N,0,0,0,
2:00.3,43314,),0,0,1,
2:00.5,43385,(,0,0,2,
2:00.5,43402,t,0,0,4,
2:00.6,43434,t,0,0,4,
2:00.7,43464,),0,0,2,
2:00.9,43524,(,0,0,0,
2:00.9,43540,p,0,0,0,
2:01.0,43563,),0,0,0,
2:01.0,43583,(,0,0,1,
2:01.1,43602,N,0,0,0,
2:01.1,43616,),0,0,1,
2:01.3,43678,(,0,0,2,
2:01.3,43695,t,0,0,4,
2:01.4,43731,t,0,0,4,
2:01.5,43748,),0,0,2,
2:01.7,43812,(,0,0,0,
2:01.7,43830,p,0,0,0,
2:01.8,43856,),0,0,0,
2:01.8,43872,(,0,0,1,
2:01.9,43891,N,0,0,0,
2:01.9,43906,),0,0,1,
2:02.1,43959,(,0,0,2,
2:02.1,43985,t,0,0,4,
2:02.2,44022,t,0,0,4,
2:02.3,44036,),0,0,2,
2:02.4,44090,(,0,0,0,
2:02.5,44111,p,0,0,0,
2:02.5,44135,),0,0,0,
2:02.6,44151,(,0,0,1,
2:02.6,44171,N,0,0,0,
2:02.7,44184,),0,0,1,
2:02.8,44240,(,0,0,2,
2:02.9,44258,t,0,0,4,
2:03.0,44289,t,0,0,4,
2:03.1,44333,),0,0,2,
2:03.2,44373,(,0,0,0,
2:03.3,44392,p,0,0,0,
2:03.3,44417,),0,0,0,
2:03.4,44434,(,0,0,1,
2:03.4,44454,N,0,0,0,
2:03.5,44463,),0,0,1,
2:03.6,44526,(,0,0,2,
2:03.7,44544,t,0,0,4,
2:03.8,44580,t,0,0,4,
2:03.9,44621,),0,0,2,
2:04.0,44661,(,0,0,0,
2:04.1,44680,p,0,0,0,
2:04.1,44702,),0,0,0,
2:04.2,44723,(,0,0,1,
2:04.2,44742,N,0,0,0,
2:04.3,44755,),0,0,1,
2:04.5,44842,(,0,0,2,
2:04.6,44872,t,0,0,0,
2:04.7,44900,),0,0,2,
2:04.8,44948,(,0,0,0,
2:04.9,44966,p,0,0,0,
2:04.9,44988,),0,0,0,
2:05.0,45010,(,0,0,1,
2:05.0,45029,N,0,0,0,
2:05.1,45043,),0,0,1,
2:05.2,45104,(,0,0,2,
2:05.3,45128,t,0,0,4,
2:05.4,45161,t,0,0,4,
2:05.5,45205,),0,0,2,
2:05.6,45242,(,0,0,0,
2:05.7,45260,p,0,0,0,
2:05.7,45282,),0,0,0,
2:05.8,45302,(,0,0,1,
2:05.8,45322,N,0,0,0,
2:05.9,45336,),0,0,1,
2:06.1,45398,(,0,0,2,
2:06.1,45420,t,0,0,4,
2:06.2,45454,t,0,0,4,
2:06.3,45495,),0,0,2,
2:06.5,45540,(,0,0,0,
2:06.5,45561,p,0,0,0,
2:06.6,45587,),0,0,0,
2:06.6,45607,(,0,0,1,
2:06.7,45627,N,0,0,0,
2:06.7,45637,),0,0,1,
2:06.9,45710,(,0,0,2,
2:07.0,45723,t,0,0,4,
2:07.1,45763,t,0,0,4,
2:07.1,45784,),0,0,2,
2:07.3,45844,(,0,0,0,
2:07.3,45863,p,0,0,0,
2:07.4,45884,),0,0,0,
2:07.5,45905,(,0,0,1,
2:07.5,45923,N,0,0,0,
2:07.5,45931,),0,0,1,
2:07.7,46002,(,0,0,2,
2:07.8,46016,t,0,0,4,
2:07.9,46052,t,0,0,4,
2:08.0,46087,),0,0,2,
2:08.1,46125,(,0,0,0,
2:08.1,46143,p,0,0,0,
2:08.2,46165,),0,0,0,
2:08.2,46182,(,0,0,1,
2:08.3,46203,N,0,0,0,
2:08.3,46216,),0,0,1,
2:08.5,46269,(,0,0,2,
2:08.5,46292,t,0,0,4,
2:08.6,46325,t,0,0,4,
2:08.7,46366,),0,0,2,
2:08.8,46403,(,0,0,0,
2:08.9,46420,p,0,0,0,
2:09.0,46444,),0,0,0,
2:09.0,46459,(,0,0,1,
2:09.1,46477,N,0,0,0,
2:09.1,46492,),0,0,1,
2:09.3,46555,(,0,0,2,
2:09.3,46571,t,0,0,4,
2:09.4,46601,t,0,0,4,
2:09.5,46650,),0,0,2,
2:09.6,46678,(,0,0,0,
2:09.7,46700,p,0,0,0,
2:09.7,46721,),0,0,0,
2:09.8,46739,(,0,0,1,
2:09.8,46758,N,0,0,0,
2:09.9,46771,),0,0,1,
2:10.1,46836,(,0,0,2,
2:10.1,46846,t,0,0,4,
2:10.2,46877,t,0,0,4,
2:10.3,46924,),0,0,2,
2:10.4,46956,(,0,0,0,
2:10.4,46974,p,0,0,0,
2:10.5,46995,),0,0,0,
2:10.6,47017,(,0,0,1,
2:10.6,47036,N,0,0,0,
2:10.6,47051,),0,0,1,
2:10.8,47112,(,0,0,2,
2:10.9,47137,t,0,0,4,
2:11.0,47168,t,0,0,4,
2:11.0,47182,),0,0,2,
2:11.2,47247,(,0,0,0,
2:11.3,47272,p,0,0,0,
2:11.3,47292,),0,0,0,
2:11.4,47313,(,0,0,1,
2:11.4,47333,N,0,0,0,
2:11.5,47342,),0,0,1,
2:11.7,47412,(,0,0,2,
2:11.7,47431,t,0,0,4,
2:11.8,47469,t,0,0,4,
2:11.9,47507,),0,0,2,
2:12.0,47549,(,0,0,0,
2:12.1,47570,p,0,0,0,
2:12.1,47590,),0,0,0,
2:12.2,47608,(,0,0,1,
2:12.3,47631,N,0,0,0,
2:12.3,47640,),0,0,1,
2:12.5,47735,(,0,0,2,
2:12.6,47758,t,0,0,0,
2:12.8,47813,),0,0,2,
2:12.8,47837,(,0,0,0,
2:12.9,47857,p,0,0,0,
2:13.0,47882,),0,0,0,
2:13.0,47899,(,0,0,1,
2:13.1,47918,N,0,0,0,
2:13.1,47927,),0,0,1,
2:13.2,47973,(,0,0,2,
2:13.3,47999,t,0,0,1,
2:13.4,48038,),0,0,2,
2:13.6,48123,(,0,0,0,
2:13.7,48138,p,0,0,0,
2:13.7,48162,),0,0,0,
2:13.8,48183,(,0,0,1,
2:13.8,48201,N,0,0,0,
2:13.9,48216,),0,0,1,
2:14.1,48282,(,0,0,2,
2:14.1,48298,t,0,0,4,
2:14.2,48337,t,0,0,4,
2:14.3,48363,),0,0,2,
2:14.4,48410,(,0,0,0,
2:14.5,48427,p,0,0,0,
2:14.5,48446,),0,0,0,
2:14.6,48464,(,0,0,1,
2:14.6,48484,N,0,0,0,
2:14.7,48498,),0,0,1,
2:14.8,48555,(,0,0,2,
2:14.9,48570,t,0,0,4,
2:15.0,48605,t,0,0,4,
2:15.1,48648,),0,0,2,
2:15.2,48682,(,0,0,0,
2:15.2,48701,p,0,0,0,
2:15.3,48727,),0,0,0,
2:15.4,48745,(,0,0,1,
2:15.4,48764,N,0,0,0,
2:15.4,48775,),0,0,1,
2:15.7,48856,(,0,0,2,
2:15.7,48879,t,0,0,0,
2:15.9,48924,),0,0,2,
2:15.9,48958,(,0,0,0,
2:16.0,48978,p,0,0,0,
2:16.1,49001,),0,0,0,
2:16.1,49022,(,0,0,1,
2:16.2,49039,N,0,0,0,
2:16.2,49047,),0,0,1,
2:16.7,49241,(,0,0,0,
2:16.8,49260,p,0,0,0,
2:16.8,49283,),0,0,0,
2:16.9,49303,(,0,0,1,
2:17.0,49322,N,0,0,0,
2:17.0,49339,),0,0,1,
2:17.2,49400,(,0,0,2,
2:17.2,49417,t,0,0,4,
2:17.4,49466,t,0,0,4,
2:17.4,49491,),0,0,2,
2:17.5,49528,(,0,0,0,
2:17.6,49553,p,0,0,0,
2:17.7,49577,),0,0,0,
2:17.7,49598,(,0,0,1,
2:17.8,49617,N,0,0,0,
2:17.8,49625,),0,0,1,
2:18.0,49698,(,0,0,2,
2:18.1,49717,t,0,0,4,
2:18.1,49748,t,0,0,4,
2:18.3,49793,),0,0,2,
2:18.4,49838,(,0,0,0,
2:18.4,49854,p,0,0,0,
2:18.5,49882,),0,0,0,
2:18.6,49903,(,0,0,1,
2:18.6,49922,N,0,0,0,
2:18.6,49930,),0,0,1,
2:18.9,50026,(,0,0,2,
2:19.0,50057,t,0,0,0,
2:19.0,50072,),0,0,2,
2:19.2,50134,(,0,0,0,
2:19.3,50155,p,0,0,0,
2:19.3,50175,),0,0,0,
2:19.4,50193,(,0,0,1,
2:19.4,50213,N,0,0,0,
2:19.5,50228,),0,0,1,
2:19.7,50296,(,0,0,2,
2:19.7,50311,t,0,0,4,
2:19.8,50343,t,0,0,4,
2:19.9,50378,),0,0,2,
2:20.0,50417,(,0,0,0,
2:20.0,50433,p,0,0,0,
2:20.1,50455,),0,0,0,
2:20.2,50473,(,0,0,1,
2:20.2,50490,N,0,0,0,
2:20.2,50504,),0,0,1,
2:20.4,50564,(,0,0,2,
2:20.5,50584,t,0,0,4,
2:20.6,50621,t,0,0,4,
2:20.7,50659,),0,0,2,
2:20.8,50695,(,0,0,0,
2:20.8,50713,p,0,0,0,
2:20.9,50735,),0,0,0,
2:20.9,50752,(,0,0,1,
2:21.0,50770,N,0,0,0,
2:21.0,50780,),0,0,1,
2:21.3,50870,(,0,0,2,
2:21.3,50897,t,0,0,0,
2:21.4,50923,),0,0,2,
2:21.5,50975,(,0,0,0,
2:21.6,50991,p,0,0,0,
2:21.7,51015,),0,0,0,
2:21.7,51037,(,0,0,1,
2:21.8,51055,N,0,0,0,
2:21.8,51068,),0,0,1,
2:22.0,51131,(,0,0,2,
2:22.0,51142,t,0,0,4,
2:22.1,51177,t,0,0,4,
2:22.2,51225,),0,0,2,
2:22.3,51254,(,0,0,0,
2:22.4,51274,p,0,0,0,
2:22.4,51296,),0,0,0,
2:22.5,51316,(,0,0,1,
2:22.6,51338,N,0,0,0,
2:22.6,51352,),0,0,1,
2:22.8,51422,(,0,0,2,
2:22.8,51436,t,0,0,4,
2:22.9,51478,t,0,0,4,
2:23.0,51503,),0,0,2,
2:23.1,51541,(,0,0,0,
2:23.2,51560,p,0,0,0,
2:23.2,51583,),0,0,0,
2:23.3,51613,(,0,0,1,
2:23.4,51625,N,0,0,0,
2:23.4,51640,),0,0,1,
2:23.6,51698,(,0,0,2,
2:23.6,51721,t,0,0,4,
2:23.7,51764,t,0,0,4,
2:23.8,51790,),0,0,2,
2:24.0,51841,(,0,0,0,
2:24.0,51857,p,0,0,0,
2:24.1,51880,),0,0,0,
2:24.1,51901,(,0,0,1,
2:24.2,51920,N,0,0,0,
2:24.2,51934,),0,0,1,
2:24.4,51997,(,0,0,2,
2:24.4,52018,t,0,0,4,
2:24.5,52051,t,0,0,4,
2:24.6,52091,),0,0,2,
2:24.8,52131,(,0,0,0,
2:24.8,52149,p,0,0,0,
2:24.9,52174,),0,0,0,
2:24.9,52195,(,0,0,1,
2:25.0,52215,N,0,0,0,
2:25.0,52228,),0,0,1,
2:25.6,52424,(,0,0,0,
2:25.6,52441,p,0,0,0,
2:25.7,52466,),0,0,0,
2:25.7,52486,(,0,0,1,
2:25.8,52505,N,0,0,0,
2:25.8,52520,),0,0,1,
2:26.0,52582,(,0,0,2,
2:26.1,52598,t,0,0,4,
2:26.2,52635,t,0,0,4,
2:26.3,52677,),0,0,2,
2:26.4,52705,(,0,0,0,
2:26.4,52722,p,0,0,0,
2:26.5,52744,),0,0,0,
2:26.5,52765,(,0,0,1,
2:26.6,52783,N,0,0,0,
2:26.6,52797,),0,0,1,
2:26.8,52853,(,0,0,2,
2:26.8,52873,t,0,0,4,
2:26.9,52907,t,0,0,4,
2:27.0,52943,),0,0,2,
2:27.1,52986,(,0,0,0,
2:27.2,53002,p,0,0,0,
2:27.2,53023,),0,0,0,
2:27.3,53045,(,0,0,1,
2:27.3,53061,N,0,0,0,
2:27.4,53071,),0,0,1,
2:27.5,53129,(,0,0,2,
2:27.6,53141,t,0,0,4,
2:27.7,53182,t,0,0,4,
2:27.8,53211,),0,0,2,
2:27.9,53260,(,0,0,0,
2:28.0,53280,p,0,0,0,
2:28.0,53301,),0,0,0,
2:28.1,53321,(,0,0,1,
2:28.1,53340,N,0,0,0,
2:28.1,53348,),0,0,1,
2:28.7,53543,(,0,0,0,
2:28.7,53565,p,0,0,0,
2:28.8,53591,),0,0,0,
2:28.9,53610,(,0,0,1,
2:28.9,53630,N,0,0,0,
2:29.0,53645,),0,0,1,
2:29.1,53707,(,0,0,2,
2:29.2,53727,t,0,0,4,
2:29.3,53783,t,0,0,4,
2:29.4,53799,),0,0,2,
2:29.5,53838,(,0,0,0,
2:29.6,53857,p,0,0,0,
2:29.6,53881,),0,0,0,
2:29.7,53902,(,0,0,1,
2:29.7,53922,N,0,0,0,
2:29.8,53937,),0,0,1,
2:30.0,54002,(,0,0,2,
2:30.0,54020,t,0,0,4,
2:30.1,54054,t,0,0,4,
2:30.2,54096,),0,0,2,
2:30.3,54136,(,0,0,0,
2:30.4,54152,p,0,0,0,
2:30.4,54175,),0,0,0,
2:30.5,54199,(,0,0,1,
2:30.6,54218,N,0,0,0,
2:30.6,54227,),0,0,1,
2:30.7,54270,(,0,0,2,
2:30.7,54282,t,0,0,4,
2:30.9,54350,t,0,0,4,
2:31.0,54371,),0,0,2,
2:31.1,54424,(,0,0,0,
2:31.2,54442,p,0,0,0,
2:31.2,54465,),0,0,0,
2:31.3,54489,(,0,0,1,
2:31.4,54506,N,0,0,0,
2:31.4,54520,),0,0,1,
2:31.6,54610,(,0,0,2,
2:31.7,54638,t,0,0,0,
2:31.8,54674,),0,0,2,
2:31.9,54706,(,0,0,0,
2:32.0,54724,p,0,0,0,
2:32.0,54748,),0,0,0,
2:32.1,54766,(,0,0,1,
2:32.1,54783,N,0,0,0,
2:32.2,54799,),0,0,1,
2:32.3,54859,(,0,0,2,
2:32.4,54878,t,0,0,4,
2:32.5,54916,t,0,0,4,
2:32.6,54947,),0,0,2,
2:32.7,54986,(,0,0,0,
2:32.7,55004,p,0,0,0,
2:32.8,55024,),0,0,0,
2:32.9,55046,(,0,0,1,
2:32.9,55063,N,0,0,0,
2:32.9,55077,),0,0,1,
2:33.1,55144,(,0,0,2,
2:33.2,55156,t,0,0,4,
2:33.3,55190,t,0,0,4,
2:33.4,55227,),0,0,2,
2:33.5,55266,(,0,0,0,
2:33.5,55283,p,0,0,0,
2:33.6,55310,),0,0,0,
2:33.6,55325,(,0,0,1,
2:33.7,55342,N,0,0,0,
2:33.7,55355,),0,0,1,
2:33.8,55387,(,0,0,2,
2:33.8,55398,t,0,0,4,
2:34.0,55465,t,0,0,4,
2:34.1,55501,),0,0,2,
2:34.2,55542,(,0,0,0,
2:34.3,55561,p,0,0,0,
2:34.4,55585,),0,0,0,
2:34.4,55603,(,0,0,1,
2:34.5,55624,N,0,0,0,
2:34.5,55636,),0,0,1,
2:34.5,55650,(,0,0,2,
2:34.6,55673,t,0,0,4,
2:34.8,55750,t,0,0,4,
2:34.9,55798,),0,0,2,
2:35.0,55825,(,0,0,0,
2:35.1,55844,p,0,0,0,
2:35.1,55865,),0,0,0,
2:35.2,55887,(,0,0,1,
2:35.2,55907,N,0,0,0,
2:35.3,55922,),0,0,1,
2:35.5,55984,(,0,0,2,
2:35.5,56005,t,0,0,4,
2:35.6,56040,t,0,0,4,
2:35.7,56076,),0,0,2,
2:35.8,56116,(,0,0,0,
2:35.9,56138,p,0,0,0,
2:36.0,56161,),0,0,0,
2:36.0,56184,(,0,0,1,
2:36.1,56206,N,0,0,0,
2:36.1,56222,),0,0,1,
2:36.3,56282,(,0,0,2,
2:36.3,56300,t,0,0,4,
2:36.5,56340,t,0,0,4,
2:36.6,56393,),0,0,2,
2:36.7,56417,(,0,0,0,
2:36.7,56439,p,0,0,0,
2:36.8,56458,),0,0,0,
2:36.8,56482,(,0,0,1,
2:36.9,56501,N,0,0,0,
2:36.9,56509,),0,0,1,
2:37.0,56552,(,0,0,2,
2:37.1,56562,t,0,0,4,
2:37.3,56628,t,0,0,4,
2:37.4,56681,),0,0,2,
2:37.5,56704,(,0,0,0,
2:37.5,56724,p,0,0,0,
2:37.6,56747,),0,0,0,
2:37.6,56764,(,0,0,1,
2:37.7,56784,N,0,0,0,
2:37.7,56793,),0,0,1,
2:37.9,56858,(,0,0,2,
2:37.9,56875,t,0,0,4,
2:38.0,56905,t,0,0,4,
2:38.1,56942,),0,0,2,
2:38.2,56977,(,0,0,0,
2:38.3,56993,p,0,0,0,
2:38.3,57018,),0,0,0,
2:38.4,57035,(,0,0,1,
2:38.4,57054,N,0,0,0,
2:38.5,57069,),0,0,1,
2:38.6,57125,(,0,0,2,
2:38.7,57147,t,0,0,4,
2:38.8,57182,t,0,0,4,
2:38.9,57206,),0,0,2,
2:39.0,57255,(,0,0,0,
2:39.0,57273,p,0,0,0,
2:39.1,57297,),0,0,0,
2:39.2,57314,(,0,0,1,
2:39.2,57332,N,0,0,0,
2:39.2,57345,),0,0,1,
2:39.4,57404,(,0,0,2,
2:39.4,57418,t,0,0,4,
2:39.6,57458,t,0,0,4,
2:39.7,57509,),0,0,2,
2:39.8,57535,(,0,0,0,
2:39.8,57551,p,0,0,0,
2:39.9,57575,),0,0,0,
2:39.9,57592,(,0,0,1,
2:40.0,57602,N,0,0,0,
2:40.0,57625,),0,0,1,
2:40.1,57664,(,0,0,2,
2:40.2,57673,t,0,0,4,
2:40.3,57736,t,0,0,4,
2:40.5,57783,),0,0,2,
2:40.6,57818,(,0,0,0,
2:40.6,57838,p,0,0,0,
2:40.7,57858,),0,0,0,
2:40.7,57881,(,0,0,1,
2:40.8,57899,N,0,0,0,
2:40.8,57916,),0,0,1,
2:41.0,57983,(,0,0,2,
2:41.0,57995,t,0,0,4,
2:41.2,58032,t,0,0,4,
2:41.2,58050,),0,0,2,
2:41.4,58110,(,0,0,0,
2:41.4,58127,p,0,0,0,
2:41.5,58151,),0,0,0,
2:41.5,58171,(,0,0,1,
2:41.6,58191,N,0,0,0,
2:41.6,58205,),0,0,1,
2:41.8,58269,(,0,0,2,
2:41.9,58288,t,0,0,4,
2:42.0,58323,t,0,0,4,
2:42.1,58356,),0,0,2,
2:42.2,58407,(,0,0,0,
2:42.2,58424,p,0,0,0,
2:42.3,58448,),0,0,0,
2:42.4,58469,(,0,0,1,
2:42.4,58489,N,0,0,0,
2:42.4,58497,),0,0,1,
2:42.7,58589,(,0,0,2,
2:42.8,58617,t,0,0,0,
2:42.8,58640,),0,0,2,
2:43.0,58702,(,0,0,0,
2:43.1,58721,p,0,0,0,
2:43.1,58745,),0,0,0,
2:43.2,58768,(,0,0,1,
2:43.2,58787,N,0,0,0,
2:43.3,58801,),0,0,1,
2:43.5,58874,(,0,0,2,
2:43.5,58889,t,0,0,4,
2:43.6,58913,t,0,0,4,
2:43.7,58955,),0,0,2,
2:43.8,58996,(,0,0,0,
2:43.9,59015,p,0,0,0,
2:43.9,59037,),0,0,0,
2:44.0,59058,(,0,0,1,
2:44.0,59065,N,0,0,0,
2:44.1,59092,),0,0,1,
2:44.3,59153,(,0,0,2,
2:44.3,59170,t,0,0,4,
2:44.5,59221,t,0,0,4,
2:44.5,59240,),0,0,2,
2:44.6,59280,(,0,0,0,
2:44.7,59298,p,0,0,0,
2:44.7,59318,),0,0,0,
2:44.8,59336,(,0,0,1,
2:44.8,59353,N,0,0,0,
2:44.9,59367,),0,0,1,
2:45.0,59432,(,0,0,2,
2:45.1,59443,t,0,0,4,
2:45.2,59477,t,0,0,4,
2:45.2,59503,),0,0,2,
2:45.4,59553,(,0,0,0,
2:45.4,59570,p,0,0,0,
2:45.5,59594,),0,0,0,
2:45.5,59612,(,0,0,1,
2:45.6,59630,N,0,0,0,
2:45.6,59639,),0,0,1,
2:45.9,59726,(,0,0,2,
2:45.9,59752,t,0,0,0,
2:46.1,59797,),0,0,2,
2:46.2,59840,(,0,0,0,
2:46.2,59860,p,0,0,0,
2:46.3,59880,),0,0,0,
2:46.3,59897,(,0,0,1,
2:46.4,59907,N,0,0,0,
2:46.4,59932,),0,0,1,
2:46.7,60017,(,0,0,2,
2:46.8,60048,t,0,0,0,
2:46.8,60079,),0,0,2,
2:47.0,60127,(,0,0,0,
2:47.0,60154,p,0,0,0,
2:47.1,60171,),0,0,0,
2:47.2,60192,(,0,0,1,
2:47.2,60213,N,0,0,0,
2:47.3,60229,),0,0,1,
2:47.4,60287,(,0,0,2,
2:47.5,60312,t,0,0,4,
2:47.6,60343,t,0,0,4,
2:47.7,60387,),0,0,2,
2:47.8,60433,(,0,0,0,
2:47.9,60451,p,0,0,0,
2:47.9,60473,),0,0,0,
2:48.0,60493,(,0,0,1,
2:48.0,60515,N,0,0,0,
2:48.1,60531,),0,0,1,
2:48.3,60596,(,0,0,2,
2:48.3,60610,t,0,0,4,
2:48.4,60643,t,0,0,4,
2:48.5,60692,),0,0,2,
2:48.7,60732,(,0,0,0,
2:48.7,60751,p,0,0,0,
2:48.8,60773,),0,0,0,
2:48.8,60798,(,0,0,1,
2:48.9,60816,N,0,0,0,
2:48.9,60830,),0,0,1,
2:49.2,60920,(,0,0,2,
2:49.2,60943,t,0,0,0,
2:49.4,60994,),0,0,2,
2:49.5,61024,(,0,0,0,
2:49.5,61045,p,0,0,0,
2:49.6,61067,),0,0,0,
2:49.6,61085,(,0,0,1,
2:49.7,61094,N,0,0,0,
2:49.7,61118,),0,0,1,
2:49.9,61191,(,0,0,2,
2:50.0,61203,t,0,0,4,
2:50.1,61239,t,0,0,4,
2:50.1,61257,),0,0,2,
2:50.3,61310,(,0,0,0,
2:50.3,61328,p,0,0,0,
2:50.4,61351,),0,0,0,
2:50.4,61373,(,0,0,1,
2:50.5,61380,N,0,0,0,
2:50.5,61405,),0,0,1,
2:50.7,61472,(,0,0,2,
2:50.8,61491,t,0,0,4,
2:50.8,61521,t,0,0,4,
2:51.0,61560,),0,0,2,
2:51.1,61603,(,0,0,0,
2:51.1,61620,p,0,0,0,
2:51.2,61640,),0,0,0,
2:51.2,61660,(,0,0,1,
2:51.3,61668,N,0,0,0,
2:51.3,61687,),0,0,1,
2:51.5,61753,(,0,0,2,
2:51.5,61768,t,0,0,4,
2:51.6,61801,t,0,0,4,
2:51.8,61856,),0,0,2,
2:51.8,61883,(,0,0,0,
2:51.9,61902,p,0,0,0,
2:52.0,61926,),0,0,0,
2:52.0,61941,(,0,0,1,
2:52.1,61962,N,0,0,0,
2:52.1,61976,),0,0,1,
2:52.3,62042,(,0,0,2,
2:52.3,62051,t,0,0,4,
2:52.4,62080,t,0,0,4,
2:52.5,62111,),0,0,2,
2:52.7,62172,(,0,0,0,
2:52.7,62188,p,0,0,0,
2:52.8,62212,),0,0,0,
2:52.8,62227,(,0,0,1,
2:52.9,62246,N,0,0,0,
2:52.9,62263,),0,0,1,
2:53.1,62337,(,0,0,2,
2:53.1,62347,t,0,0,4,
2:53.2,62377,t,0,0,4,
2:53.3,62419,),0,0,2,
2:53.5,62463,(,0,0,0,
2:53.5,62488,p,0,0,0,
2:53.6,62506,),0,0,0,
2:53.6,62526,(,0,0,1,
2:53.7,62546,N,0,0,0,
2:53.7,62564,),0,0,1,
2:53.9,62631,(,0,0,2,
2:54.0,62645,t,0,0,4,
2:54.1,62697,t,0,0,4,
2:54.2,62714,),0,0,2,
2:54.3,62770,(,0,0,0,
2:54.4,62787,p,0,0,0,
2:54.4,62810,),0,0,0,
2:54.5,62829,(,0,0,1,
2:54.5,62839,N,0,0,0,
2:54.6,62864,),0,0,1,
2:54.8,62932,(,0,0,2,
2:54.8,62948,t,0,0,4,
2:54.9,62978,t,0,0,4,
2:55.0,63015,),0,0,2,
2:55.1,63067,(,0,0,0,
2:55.2,63087,p,0,0,0,
2:55.3,63112,),0,0,0,
2:55.3,63131,(,0,0,1,
2:55.4,63153,N,0,0,0,
2:55.4,63169,),0,0,1,
2:55.6,63250,(,0,0,2,
2:55.7,63270,t,0,0,0,
2:55.9,63328,),0,0,2,
2:55.9,63358,(,0,0,0,
2:56.0,63375,p,0,0,0,
2:56.1,63397,),0,0,0,
2:56.1,63419,(,0,0,1,
2:56.1,63427,N,0,0,0,
2:56.2,63452,),0,0,1,
2:56.4,63515,(,0,0,2,
2:56.4,63529,t,0,0,4,
2:56.5,63557,t,0,0,4,
2:56.6,63598,),0,0,2,
2:56.7,63635,(,0,0,0,
2:56.8,63653,p,0,0,0,
2:56.8,63673,),0,0,0,
2:56.9,63692,(,0,0,1,
2:56.9,63700,N,0,0,0,
2:56.9,63718,),0,0,1,
2:57.1,63786,(,0,0,2,
2:57.2,63800,t,0,0,4,
2:57.3,63836,t,0,0,4,
2:57.4,63883,),0,0,2,
2:57.5,63916,(,0,0,0,
2:57.5,63935,p,0,0,0,
2:57.6,63959,),0,0,0,
2:57.7,63979,(,0,0,1,
2:57.7,63986,N,0,0,0,
2:57.8,64011,),0,0,1,
2:57.9,64076,(,0,0,2,
2:58.0,64087,t,0,0,4,
2:58.1,64129,t,0,0,4,
2:58.2,64167,),0,0,2,
2:58.3,64207,(,0,0,0,
2:58.4,64231,p,0,0,0,
2:58.4,64250,),0,0,0,
2:58.5,64268,(,0,0,1,
2:58.5,64276,N,0,0,0,
2:58.6,64301,),0,0,1,
2:58.8,64374,(,0,0,2,
2:58.8,64387,t,0,0,4,
2:58.9,64434,t,0,0,4,
2:59.0,64461,),0,0,2,
2:59.1,64496,(,0,0,0,
2:59.2,64514,p,0,0,0,
2:59.2,64542,),0,0,0,
2:59.3,64559,(,0,0,1,
2:59.3,64568,N,0,0,0,
2:59.4,64589,),0,0,1,
2:59.6,64656,(,0,0,2,
2:59.6,64675,t,0,0,4,
2:59.7,64707,t,0,0,4,
2:59.8,64745,),0,0,2,
2:59.9,64794,(,0,0,0,
3:00.0,64811,p,0,0,0,
3:00.0,64833,),0,0,0,
3:00.1,64856,(,0,0,1,
3:00.1,64864,N,0,0,0,
3:00.2,64888,),0,0,1,
3:00.4,64946,(,0,0,2,
3:00.4,64972,t,0,0,4,
3:00.5,65004,t,0,0,4,
3:00.6,65041,),0,0,2,
3:00.8,65093,(,0,0,0,
3:00.8,65110,p,0,0,0,
3:00.9,65132,),0,0,0,
3:00.9,65155,(,0,0,1,
3:01.0,65163,N,0,0,0,
3:01.0,65187,),0,0,1,
3:01.2,65245,(,0,0,2,
3:01.2,65261,t,0,0,4,
3:01.3,65300,t,0,0,4,
3:01.4,65320,),0,0,2,
3:01.6,65383,(,0,0,0,
3:01.6,65400,p,0,0,0,
3:01.7,65426,),0,0,0,
3:01.7,65444,(,0,0,1,
3:01.8,65452,N,0,0,0,
3:01.8,65476,),0,0,1,
3:02.0,65535,(,0,0,2,
3:02.1,65559,t,0,0,4,
3:02.2,65596,t,0,0,4,
3:02.3,65634,),0,0,2,
3:02.4,65666,(,0,0,0,
3:02.4,65689,p,0,0,0,
3:02.5,65708,),0,0,0,
3:02.5,65731,(,0,0,1,
3:02.6,65738,N,0,0,0,
3:02.6,65764,),0,0,1,
3:02.8,65823,(,0,0,2,
3:02.8,65840,t,0,0,4,
3:02.9,65875,t,0,0,4,
3:03.0,65909,),0,0,2,
3:03.1,65947,(,0,0,0,
3:03.2,65965,p,0,0,0,
3:03.3,65990,),0,0,0,
3:03.3,66008,(,0,0,1,
3:03.4,66029,N,0,0,0,
3:03.4,66039,),0,0,1,
3:03.6,66104,(,0,0,2,
3:03.6,66117,t,0,0,4,
3:03.7,66151,t,0,0,4,
3:03.8,66201,),0,0,2,
3:03.9,66228,(,0,0,0,
3:04.0,66245,p,0,0,0,
3:04.0,66272,),0,0,0,
3:04.1,66289,(,0,0,1,
3:04.1,66296,N,0,0,0,
3:04.2,66320,),0,0,1,
3:04.4,66384,(,0,0,2,
3:04.4,66398,t,0,0,4,
3:04.5,66435,t,0,0,4,
3:04.5,66452,),0,0,2,
3:04.7,66521,(,0,0,0,
3:04.8,66538,p,0,0,0,
3:04.9,66564,),0,0,0,
3:04.9,66584,(,0,0,1,
3:04.9,66592,N,0,0,0,
3:05.0,66617,),0,0,1,
3:05.2,66675,(,0,0,2,
3:05.2,66698,t,0,0,0,
3:05.3,66715,),0,0,2,
3:05.4,66779,(,0,0,1,
3:05.5,66791,N,0,0,0,
3:05.5,66805,),0,0,1,
3:06.2,67042,(,0,0,0,
3:06.2,67067,p,0,0,0,
3:06.3,67088,),0,0,0,
3:06.4,67109,(,0,0,1,
3:06.4,67118,N,0,0,0,
3:06.5,67143,),0,0,1,
3:06.6,67210,(,0,0,2,
3:06.7,67223,t,0,0,4,
3:06.8,67260,t,0,0,4,
3:07.0,67320,),0,0,2,
3:07.0,67349,(,0,0,0,
3:07.1,67368,p,0,0,0,
3:07.2,67393,),0,0,0,
3:07.2,67412,(,0,0,1,
3:07.3,67433,N,0,0,0,
3:07.3,67448,),0,0,1,
3:07.5,67513,(,0,0,2,
3:07.5,67525,t,0,0,4,
3:07.6,67563,t,0,0,4,
3:07.7,67599,),0,0,2,
3:07.9,67645,(,0,0,0,
3:07.9,67662,p,0,0,0,
3:08.0,67689,),0,0,0,
3:08.0,67706,(,0,0,1,
3:08.0,67715,N,0,0,0,
3:08.1,67741,),0,0,1,
3:08.3,67800,(,0,0,2,
3:08.3,67817,t,0,0,4,
3:08.4,67847,t,0,0,4,
3:08.5,67885,),0,0,2,
3:08.6,67928,(,0,0,0,
3:08.7,67943,p,0,0,0,
3:08.8,67970,),0,0,0,
3:08.8,67989,(,0,0,1,
3:08.8,67996,N,0,0,0,
3:08.9,68021,),0,0,1,
3:09.1,68090,(,0,0,2,
3:09.1,68102,t,0,0,4,
3:09.3,68148,t,0,0,4,
3:09.4,68186,),0,0,2,
3:09.5,68220,(,0,0,0,
3:09.5,68236,p,0,0,0,
3:09.6,68261,),0,0,0,
3:09.6,68283,(,0,0,1,
3:09.6,68290,N,0,0,0,
3:09.7,68309,),0,0,1,
3:10.0,68404,(,0,0,2,
3:10.0,68427,t,0,0,0,
3:10.2,68479,),0,0,2,
3:10.3,68513,(,0,0,0,
3:10.3,68529,p,0,0,0,
3:10.4,68552,),0,0,0,
3:10.4,68571,(,0,0,1,
3:10.5,68582,N,0,0,0,
3:10.5,68607,),0,0,1,
3:10.7,68671,(,0,0,2,
3:10.8,68689,t,0,0,4,
3:10.8,68718,t,0,0,4,
3:10.9,68758,),0,0,2,
3:11.1,68803,(,0,0,0,
3:11.1,68821,p,0,0,0,
3:11.2,68845,),0,0,0,
3:11.2,68864,(,0,0,1,
3:11.3,68874,N,0,0,0,
3:11.3,68900,),0,0,1,
3:11.5,68965,(,0,0,2,
3:11.6,68983,t,0,0,4,
3:11.7,69024,t,0,0,4,
3:11.8,69060,),0,0,2,
3:11.9,69105,(,0,0,0,
3:12.0,69125,p,0,0,0,
3:12.0,69147,),0,0,0,
3:12.1,69171,(,0,0,1,
3:12.1,69179,N,0,0,0,
3:12.2,69204,),0,0,1,
3:12.4,69270,(,0,0,2,
3:12.4,69292,t,0,0,4,
3:12.5,69323,t,0,0,4,
3:12.6,69367,),0,0,2,
3:12.8,69419,(,0,0,0,
3:12.8,69440,p,0,0,0,
3:12.9,69464,),0,0,0,
3:13.0,69482,(,0,0,1,
3:13.0,69491,N,0,0,0,
3:13.0,69511,),0,0,1,
3:13.2,69586,(,0,0,2,
3:13.3,69596,t,0,0,4,
3:13.3,69623,t,0,0,4,
3:13.5,69680,),0,0,2,
3:13.6,69718,(,0,0,0,
3:13.7,69734,p,0,0,0,
3:13.7,69756,),0,0,0,
3:13.8,69777,(,0,0,1,
3:13.8,69785,N,0,0,0,
3:13.9,69808,),0,0,1,
3:14.0,69863,(,0,0,2,
3:14.1,69882,t,0,0,4,
3:14.2,69912,t,0,0,4,
3:14.3,69950,),0,0,2,
3:14.4,69994,(,0,0,0,
3:14.4,70011,p,0,0,0,
3:14.5,70035,),0,0,0,
3:14.5,70054,(,0,0,1,
3:14.6,70062,N,0,0,0,
3:14.6,70088,),0,0,1,
3:14.8,70144,(,0,0,2,
3:14.8,70163,t,0,0,4,
3:15.0,70202,t,0,0,4,
3:15.0,70218,),0,0,2,
3:15.2,70278,(,0,0,0,
3:15.2,70294,p,0,0,0,
3:15.3,70319,),0,0,0,
3:15.3,70338,(,0,0,1,
3:15.4,70345,N,0,0,0,
3:15.4,70366,),0,0,1,
3:15.6,70429,(,0,0,2,
3:15.6,70443,t,0,0,4,
3:15.7,70473,t,0,0,4,
3:15.9,70524,),0,0,2,
3:16.0,70562,(,0,0,0,
3:16.0,70578,p,0,0,0,
3:16.1,70601,),0,0,0,
3:16.1,70624,(,0,0,1,
3:16.1,70631,N,0,0,0,
3:16.2,70654,),0,0,1,
3:16.4,70715,(,0,0,2,
3:16.4,70734,t,0,0,4,
3:16.5,70766,t,0,0,4,
3:16.6,70808,),0,0,2,
3:16.8,70857,(,0,0,0,
3:16.8,70882,p,0,0,0,
3:16.9,70900,),0,0,0,
3:17.0,70921,(,0,0,1,
3:17.0,70930,N,0,0,0,
3:17.0,70955,),0,0,1,
3:17.3,71045,(,0,0,2,
3:17.4,71074,t,0,0,0,
3:17.5,71119,),0,0,2,
3:17.6,71154,(,0,0,0,
3:17.7,71173,p,0,0,0,
3:17.7,71200,),0,0,0,
3:17.8,71219,(,0,0,1,
3:17.8,71227,N,0,0,0,
3:17.9,71253,),0,0,1,
3:18.0,71312,(,0,0,2,
3:18.1,71338,t,0,0,4,
3:18.2,71372,t,0,0,4,
3:18.3,71402,),0,0,2,
3:18.4,71458,(,0,0,0,
3:18.5,71475,p,0,0,0,
3:18.6,71499,),0,0,0,
3:18.6,71521,(,0,0,1,
3:18.6,71528,N,0,0,0,
3:18.7,71552,),0,0,1,
3:18.9,71609,(,0,0,2,
3:18.9,71637,t,0,0,4,
3:19.0,71667,t,0,0,4,
3:19.1,71710,),0,0,2,
3:19.3,71762,(,0,0,0,
3:19.3,71779,p,0,0,0,
3:19.4,71802,),0,0,0,
3:19.5,71826,(,0,0,1,
3:19.5,71834,N,0,0,0,
3:19.6,71859,),0,0,1,
3:19.7,71926,(,0,0,2,
3:19.8,71939,t,0,0,4,
3:19.9,71976,t,0,0,4,
3:20.0,72015,),0,0,2,
3:20.1,72063,(,0,0,0,
3:20.2,72081,p,0,0,0,
3:20.2,72100,),0,0,0,
3:20.3,72118,(,0,0,1,
3:20.3,72127,N,0,0,0,
3:20.4,72145,),0,0,1,
3:20.6,72216,(,0,0,2,
3:20.6,72229,t,0,0,4,
3:20.7,72280,t,0,0,4,
3:20.8,72303,),0,0,2,
3:20.9,72339,(,0,0,0,
3:20.9,72359,p,0,0,0,
3:21.0,72380,),0,0,0,
3:21.1,72399,(,0,0,1,
3:21.1,72406,N,0,0,0,
3:21.1,72430,),0,0,1,
3:21.3,72487,(,0,0,2,
3:21.4,72507,t,0,0,4,
3:21.5,72543,t,0,0,4,
3:21.5,72567,),0,0,2,
3:21.7,72624,(,0,0,0,
3:21.7,72647,p,0,0,0,
3:21.8,72667,),0,0,0,
3:21.9,72684,(,0,0,1,
3:21.9,72691,N,0,0,0,
3:21.9,72718,),0,0,1,
3:22.1,72780,(,0,0,2,
3:22.2,72795,t,0,0,4,
3:22.2,72825,t,0,0,4,
3:22.4,72867,),0,0,2,
3:22.5,72916,(,0,0,0,
3:22.6,72936,p,0,0,0,
3:22.6,72959,),0,0,0,
3:22.7,72978,(,0,0,1,
3:22.7,72986,N,0,0,0,
3:22.7,73007,),0,0,1,
3:23.0,73099,(,0,0,2,
3:23.1,73121,t,0,0,0,
3:23.2,73161,),0,0,2,
3:23.3,73214,(,0,0,0,
3:23.4,73234,p,0,0,0,
3:23.4,73259,),0,0,0,
3:23.5,73282,(,0,0,1,
3:23.5,73290,N,0,0,0,
3:23.6,73315,),0,0,1,
3:23.8,73381,(,0,0,2,
3:23.8,73400,t,0,0,4,
3:24.0,73444,t,0,0,4,
3:24.0,73471,),0,0,2,
3:24.2,73526,(,0,0,0,
3:24.2,73543,p,0,0,0,
3:24.3,73568,),0,0,0,
3:24.4,73599,N,0,0,0,
3:24.4,73599,(,0,0,1,
3:24.5,73624,),0,0,1,
3:24.6,73682,(,0,0,2,
3:24.7,73706,t,0,0,4,
3:24.8,73737,t,0,0,4,
3:24.9,73797,),0,0,2,
3:25.0,73828,(,0,0,0,
3:25.1,73846,p,0,0,0,
3:25.1,73871,),0,0,0,
3:25.2,73888,(,0,0,1,
3:25.2,73898,N,0,0,0,
3:25.3,73919,),0,0,1,
3:25.5,74009,(,0,0,2,
3:25.6,74031,t,0,0,0,
3:25.7,74071,),0,0,2,
3:25.8,74114,(,0,0,0,
3:25.9,74138,p,0,0,0,
3:26.0,74160,),0,0,0,
3:26.0,74177,(,0,0,1,
3:26.0,74184,N,0,0,0,
3:26.1,74208,),0,0,1,
3:26.3,74282,(,0,0,2,
3:26.3,74294,t,0,0,4,
3:26.4,74330,t,0,0,4,
3:26.5,74351,),0,0,2,
3:26.6,74401,(,0,0,0,
3:26.7,74421,p,0,0,0,
3:26.7,74445,),0,0,0,
3:26.8,74465,(,0,0,1,
3:26.8,74472,N,0,0,0,
3:26.9,74490,),0,0,1,
3:27.1,74561,(,0,0,2,
3:27.1,74581,t,0,0,4,
3:27.2,74614,t,0,0,4,
3:27.3,74648,),0,0,2,
3:27.4,74687,(,0,0,0,
3:27.5,74708,p,0,0,0,
3:27.5,74727,),0,0,0,
3:27.6,74748,(,0,0,1,
3:27.6,74755,N,0,0,0,
3:27.7,74779,),0,0,1,
3:27.8,74841,(,0,0,2,
3:27.9,74860,t,0,0,1,
3:28.0,74884,),0,0,2,
3:28.0,74905,(,0,0,0,
3:28.1,74919,p,0,0,0,
3:28.1,74944,),0,0,0,
3:28.2,74967,(,0,0,1,
3:28.2,74974,N,0,0,0,
3:28.3,74994,),0,0,1,
3:28.4,75059,(,0,0,2,
3:28.5,75073,t,0,0,4,
3:28.6,75108,t,0,0,4,
3:28.7,75153,),0,0,2,
3:29.0,75254,(,0,0,0,
3:29.0,75270,p,0,0,0,
3:29.1,75292,),0,0,0,
3:29.2,75313,(,0,0,1,
3:29.2,75321,N,0,0,0,
3:29.2,75346,),0,0,1,
3:29.4,75413,(,0,0,2,
3:29.5,75431,t,0,0,1,
3:29.6,75467,),0,0,2,
3:29.8,75550,(,0,0,0,
3:29.9,75568,p,0,0,0,
3:29.9,75591,),0,0,0,
3:30.0,75615,(,0,0,1,
3:30.0,75621,N,0,0,0,
3:30.1,75645,),0,0,1,
3:30.3,75708,(,0,0,2,
3:30.3,75728,t,0,0,4,
3:30.4,75763,t,0,0,4,
3:30.5,75800,),0,0,2,
3:30.6,75848,(,0,0,0,
3:30.7,75870,p,0,0,0,
3:30.8,75893,),0,0,0,
3:30.8,75913,(,0,0,1,
3:30.8,75921,N,0,0,0,
3:30.9,75943,),0,0,1,
3:31.1,76013,(,0,0,2,
3:31.1,76031,t,0,0,4,
3:31.2,76067,t,0,0,4,
3:31.3,76102,),0,0,2,
3:31.5,76150,(,0,0,0,
3:31.5,76170,p,0,0,0,
3:31.6,76195,),0,0,0,
3:31.7,76214,(,0,0,1,
3:31.7,76222,N,0,0,0,
3:31.7,76247,),0,0,1,
3:31.9,76309,(,0,0,2,
3:32.0,76321,t,0,0,4,
3:32.1,76361,t,0,0,4,
3:32.1,76375,),0,0,2,
3:32.3,76436,(,0,0,0,
3:32.3,76453,p,0,0,0,
3:32.4,76475,),0,0,0,
3:32.4,76496,(,0,0,1,
3:32.5,76504,N,0,0,0,
3:32.5,76528,),0,0,1,
3:32.6,76559,(,0,0,2,
3:32.6,76568,t,0,0,4,
3:32.8,76635,t,0,0,4,
3:32.9,76671,),0,0,2,
3:33.0,76710,(,0,0,0,
3:33.1,76728,p,0,0,0,
3:33.1,76749,),0,0,0,
3:33.2,76767,(,0,0,1,
3:33.2,76774,N,0,0,0,
3:33.3,76798,),0,0,1,
3:33.5,76866,(,0,0,2,
3:33.5,76882,t,0,0,4,
3:33.6,76918,t,0,0,4,
3:33.7,76939,),0,0,2,
3:33.8,76991,(,0,0,0,
3:33.9,77008,p,0,0,0,
3:33.9,77032,),0,0,0,
3:34.0,77054,(,0,0,1,
3:34.0,77062,N,0,0,0,
3:34.1,77086,),0,0,1,
3:34.3,77153,(,0,0,2,
3:34.3,77169,t,0,0,4,
3:34.4,77201,t,0,0,4,
3:34.5,77247,),0,0,2,
3:34.6,77286,(,0,0,0,
3:34.7,77306,p,0,0,0,
3:34.7,77326,),0,0,0,
3:34.8,77346,(,0,0,1,
3:34.8,77353,N,0,0,0,
3:34.9,77376,),0,0,1,
3:35.1,77442,(,0,0,2,
3:35.1,77461,t,0,0,4,
3:35.2,77500,t,0,0,4,
3:35.3,77513,),0,0,2,
3:35.5,77581,(,0,0,0,
3:35.5,77598,p,0,0,0,
3:35.6,77619,),0,0,0,
3:35.6,77645,(,0,0,1,
3:35.7,77652,N,0,0,0,
3:35.7,77676,),0,0,1,
3:35.9,77743,(,0,0,2,
3:36.0,77760,t,0,0,4,
3:36.1,77796,t,0,0,4,
3:36.1,77828,),0,0,2,
3:36.3,77871,(,0,0,0,
3:36.3,77890,p,0,0,0,
3:36.4,77915,),0,0,0,
3:36.4,77934,(,0,0,1,
3:36.5,77942,N,0,0,0,
3:36.5,77967,),0,0,1,
3:36.7,78034,(,0,0,2,
3:36.8,78053,t,0,0,4,
3:36.9,78090,t,0,0,4,
3:37.0,78131,),0,0,2,
3:37.1,78172,(,0,0,0,
3:37.1,78189,p,0,0,0,
3:37.2,78213,),0,0,0,
3:37.3,78231,(,0,0,1,
3:37.3,78239,N,0,0,0,
3:37.3,78263,),0,0,1,
3:37.5,78330,(,0,0,2,
3:37.6,78343,t,0,0,4,
3:37.7,78383,t,0,0,4,
3:37.8,78420,),0,0,2,
3:37.9,78459,(,0,0,0,
3:37.9,78476,p,0,0,0,
3:38.0,78502,),0,0,0,
3:38.1,78519,(,0,0,1,
3:38.1,78527,N,0,0,0,
3:38.2,78552,),0,0,1,
3:38.4,78639,(,0,0,2,
3:38.5,78662,t,0,0,0,
3:38.6,78704,),0,0,2,
3:38.7,78746,(,0,0,0,
3:38.7,78762,p,0,0,0,
3:38.8,78786,),0,0,0,
3:38.9,78805,(,0,0,1,
3:38.9,78812,N,0,0,0,
3:39.0,78840,),0,0,1,
3:39.1,78903,(,0,0,2,
3:39.2,78916,t,0,0,4,
3:39.3,78950,t,0,0,4,
3:39.3,78971,),0,0,2,
3:39.5,79020,(,0,0,0,
3:39.5,79036,p,0,0,0,
3:39.6,79061,),0,0,0,
3:39.6,79081,(,0,0,1,
3:39.6,79088,N,0,0,0,
3:39.7,79112,),0,0,1,
3:39.9,79172,(,0,0,2,
3:39.9,79189,t,0,0,4,
3:40.0,79222,t,0,0,4,
3:40.1,79236,),0,0,2,
3:40.2,79306,(,0,0,0,
3:40.3,79322,p,0,0,0,
3:40.4,79346,),0,0,0,
3:40.4,79366,(,0,0,1,
3:40.4,79374,N,0,0,0,
3:40.5,79393,),0,0,1,
3:40.8,79488,(,0,0,2,
3:40.8,79511,t,0,0,0,
3:40.9,79551,),0,0,2,
3:41.1,79603,(,0,0,0,
3:41.1,79622,p,0,0,0,
3:41.2,79646,),0,0,0,
3:41.3,79669,(,0,0,1,
3:41.3,79677,N,0,0,0,
3:41.3,79702,),0,0,1,
3:41.6,79792,(,0,0,2,
3:41.7,79827,t,0,0,0,
3:41.8,79871,),0,0,2,
3:41.9,79906,(,0,0,0,
3:42.0,79931,p,0,0,0,
3:42.0,79951,),0,0,0,
3:42.1,79972,(,0,0,1,
3:42.1,79980,N,0,0,0,
3:42.2,80005,),0,0,1,
3:42.4,80081,(,0,0,2,
3:42.4,80094,t,0,0,4,
3:42.6,80136,t,0,0,4,
3:42.6,80165,),0,0,2,
3:42.8,80208,(,0,0,0,
3:42.8,80227,p,0,0,0,
3:42.9,80252,),0,0,0,
3:42.9,80270,(,0,0,1,
3:42.9,80279,N,0,0,0,
3:43.0,80304,),0,0,1,
3:43.2,80361,(,0,0,2,
3:43.2,80385,t,0,0,4,
3:43.3,80419,t,0,0,4,
3:43.5,80468,),0,0,2,
3:43.6,80504,(,0,0,0,
3:43.6,80524,p,0,0,0,
3:43.7,80546,),0,0,0,
3:43.7,80564,(,0,0,1,
3:43.8,80571,N,0,0,0,
3:43.8,80592,),0,0,1,
3:44.0,80653,(,0,0,2,
3:44.0,80666,t,0,0,4,
3:44.1,80706,t,0,0,4,
3:44.3,80755,),0,0,2,
3:44.4,80792,(,0,0,0,
3:44.4,80810,p,0,0,0,
3:44.5,80831,),0,0,0,
3:44.5,80850,(,0,0,1,
3:44.6,80857,N,0,0,0,
3:44.6,80880,),0,0,1,
3:44.8,80947,(,0,0,2,
3:44.8,80962,t,0,0,4,
3:44.9,80989,t,0,0,4,
3:45.0,81033,),0,0,2,
3:45.1,81070,(,0,0,0,
3:45.2,81087,p,0,0,0,
3:45.3,81114,),0,0,0,
3:45.3,81132,(,0,0,1,
3:45.3,81139,N,0,0,0,
3:45.4,81160,),0,0,1,
3:45.6,81226,(,0,0,2,
3:45.6,81246,t,0,0,4,
3:45.8,81299,t,0,0,4,
3:45.8,81319,),0,0,2,
3:45.9,81355,(,0,0,0,
3:46.0,81380,p,0,0,0,
3:46.1,81400,),0,0,0,
3:46.1,81419,(,0,0,1,
3:46.1,81426,N,0,0,0,
3:46.2,81453,),0,0,1,
3:46.4,81520,(,0,0,2,
3:46.4,81532,t,0,0,4,
3:46.5,81575,t,0,0,4,
3:46.7,81614,),0,0,2,
3:46.8,81650,(,0,0,0,
3:46.8,81667,p,0,0,0,
3:46.9,81691,),0,0,0,
3:46.9,81710,(,0,0,1,
3:46.9,81718,N,0,0,0,
3:47.0,81744,),0,0,1,
3:47.2,81812,(,0,0,2,
3:47.2,81824,t,0,0,4,
3:47.3,81863,t,0,0,4,
3:47.4,81878,),0,0,2,
3:47.6,81945,(,0,0,0,
3:47.6,81965,p,0,0,0,
3:47.7,81991,),0,0,0,
3:47.8,82011,(,0,0,1,
3:47.8,82019,N,0,0,0,
3:47.9,82045,),0,0,1,
3:48.1,82116,(,0,0,2,
3:48.1,82130,t,0,0,4,
3:48.2,82166,t,0,0,4,
3:48.3,82213,),0,0,2,
3:48.4,82248,(,0,0,0,
3:48.5,82270,p,0,0,0,
3:48.5,82291,),0,0,0,
3:48.6,82314,(,0,0,1,
3:48.6,82322,N,0,0,0,
3:48.7,82343,),0,0,1,
3:48.9,82416,(,0,0,2,
3:48.9,82437,t,0,0,4,
3:49.1,82479,t,0,0,4,
3:49.1,82494,),0,0,2,
3:49.3,82557,(,0,0,0,
3:49.3,82573,p,0,0,0,
3:49.4,82596,),0,0,0,
3:49.4,82617,(,0,0,1,
3:49.5,82625,N,0,0,0,
3:49.5,82646,),0,0,1,
3:49.6,82671,(,0,0,2,
3:49.6,82684,t,0,0,4,
3:49.9,82767,t,0,0,4,
3:50.0,82808,),0,0,2,
3:50.1,82850,(,0,0,0,
3:50.1,82866,p,0,0,0,
3:50.2,82890,),0,0,0,
3:50.2,82907,(,0,0,1,
3:50.3,82914,N,0,0,0,
3:50.3,82934,),0,0,1,
3:50.5,83009,(,0,0,2,
3:50.6,83019,t,0,0,4,
3:50.6,83044,t,0,0,4,
3:50.8,83094,),0,0,2,
3:50.9,83134,(,0,0,0,
3:50.9,83150,p,0,0,0,
3:51.0,83169,),0,0,0,
3:51.0,83190,(,0,0,1,
3:51.1,83198,N,0,0,0,
3:51.1,83223,),0,0,1,
3:51.3,83279,(,0,0,2,
3:51.4,83305,t,0,0,4,
3:51.4,83336,t,0,0,4,
3:51.5,83349,),0,0,2,
3:51.7,83417,(,0,0,0,
3:51.7,83433,p,0,0,0,
3:51.8,83456,),0,0,0,
3:51.8,83471,(,0,0,1,
3:51.8,83480,N,0,0,0,
3:51.9,83505,),0,0,1,
3:52.1,83569,(,0,0,2,
3:52.1,83585,t,0,0,4,
3:52.3,83637,t,0,0,4,
3:52.3,83658,),0,0,2,
3:52.5,83711,(,0,0,0,
3:52.5,83729,p,0,0,0,
3:52.6,83754,),0,0,0,
3:52.7,83774,(,0,0,1,
3:52.7,83782,N,0,0,0,
3:52.7,83804,),0,0,1,
3:52.9,83877,(,0,0,2,
3:53.0,83890,t,0,0,4,
3:53.1,83921,t,0,0,4,
3:53.2,83972,),0,0,2,
3:53.3,84018,(,0,0,0,
3:53.4,84037,p,0,0,0,
3:53.5,84061,),0,0,0,
3:53.5,84080,(,0,0,1,
3:53.5,84091,N,0,0,0,
3:53.6,84116,),0,0,1,
3:53.8,84181,(,0,0,2,
3:53.8,84193,t,0,0,4,
3:54.0,84259,t,0,0,4,
3:54.1,84280,),0,0,2,
3:54.2,84324,(,0,0,0,
3:54.2,84342,p,0,0,0,
3:54.3,84365,),0,0,0,
3:54.4,84387,(,0,0,1,
3:54.4,84395,N,0,0,0,
3:54.5,84421,),0,0,1,
3:54.6,84488,(,0,0,2,
3:54.7,84507,t,0,0,4,
3:54.8,84548,t,0,0,4,
3:54.9,84570,),0,0,2,
3:55.0,84627,(,0,0,0,
3:55.1,84643,p,0,0,0,
3:55.1,84666,),0,0,0,
3:55.2,84686,(,0,0,1,
3:55.2,84696,N,0,0,0,
3:55.3,84722,),0,0,1,
3:55.5,84785,(,0,0,2,
3:55.5,84803,t,0,0,4,
3:55.6,84832,t,0,0,4,
3:55.7,84870,),0,0,2,
3:55.9,84928,(,0,0,0,
3:55.9,84944,p,0,0,0,
3:56.0,84972,),0,0,0,
3:56.0,84990,(,0,0,1,
3:56.1,84998,N,0,0,0,
3:56.1,85023,),0,0,1,
3:56.3,85089,(,0,0,2,
3:56.3,85102,t,0,0,4,
3:56.4,85133,t,0,0,4,
3:56.6,85178,),0,0,2,
3:56.7,85218,(,0,0,0,
3:56.7,85237,p,0,0,0,
3:56.8,85262,),0,0,0,
3:56.8,85279,(,0,0,1,
3:56.9,85289,N,0,0,0,
3:56.9,85315,),0,0,1,
3:57.1,85381,(,0,0,2,
3:57.2,85394,t,0,0,4,
3:57.2,85426,t,0,0,4,
3:57.4,85472,),0,0,2,
3:57.5,85502,(,0,0,0,
3:57.5,85524,p,0,0,0,
3:57.6,85543,),0,0,0,
3:57.6,85560,(,0,0,1,
3:57.6,85568,N,0,0,0,
3:57.7,85593,),0,0,1,
3:57.9,85652,(,0,0,2,
3:57.9,85675,t,0,0,4,
3:58.0,85704,t,0,0,4,
3:58.1,85741,),0,0,2,
3:58.3,85789,(,0,0,0,
3:58.3,85810,p,0,0,0,
3:58.4,85835,),0,0,0,
3:58.4,85851,(,0,0,1,
3:58.4,85858,N,0,0,0,
3:58.5,85883,),0,0,1,
3:58.7,85953,(,0,0,2,
3:58.8,85970,t,0,0,4,
3:58.9,86007,t,0,0,4,
3:59.0,86054,),0,0,2,
3:59.1,86085,(,0,0,0,
3:59.1,86104,p,0,0,0,
3:59.2,86130,),0,0,0,
3:59.3,86151,(,0,0,1,
3:59.3,86160,N,0,0,0,
3:59.4,86185,),0,0,1,
3:59.6,86260,(,0,0,2,
3:59.6,86273,t,0,0,4,
3:59.7,86324,t,0,0,4,
3:59.8,86340,),0,0,2,
3:59.9,86394,(,0,0,0,
4:00.0,86414,p,0,0,0,
4:00.1,86439,),0,0,0,
4:00.1,86458,(,0,0,1,
4:00.1,86466,N,0,0,0,
4:00.2,86493,),0,0,1,
4:00.4,86560,(,0,0,2,
4:00.5,86581,t,0,0,4,
4:00.6,86617,t,0,0,4,
4:00.7,86663,),0,0,2,
4:00.8,86698,(,0,0,0,
4:00.8,86718,p,0,0,0,
4:00.9,86743,),0,0,0,
4:01.0,86761,(,0,0,1,
4:01.0,86768,N,0,0,0,
4:01.0,86794,),0,0,1,
4:01.2,86853,(,0,0,2,
4:01.3,86876,t,0,0,4,
4:01.4,86925,t,0,0,4,
4:01.5,86951,),0,0,2,
4:01.6,87000,(,0,0,0,
4:01.7,87016,p,0,0,0,
4:01.7,87041,),0,0,0,
4:01.8,87059,(,0,0,1,
4:01.8,87066,N,0,0,0,
4:01.9,87093,),0,0,1,
4:02.0,87148,(,0,0,2,
4:02.1,87160,t,0,0,4,
4:02.2,87198,t,0,0,4,
4:02.3,87247,),0,0,2,
4:02.4,87283,(,0,0,0,
4:02.5,87302,p,0,0,0,
4:02.5,87327,),0,0,0,
4:02.6,87344,(,0,0,1,
4:02.6,87353,N,0,0,0,
4:02.7,87377,),0,0,1,
4:02.9,87461,(,0,0,2,
4:03.0,87488,t,0,0,0,
4:03.1,87539,),0,0,2,
4:03.2,87567,(,0,0,0,
4:03.2,87586,p,0,0,0,
4:03.3,87610,),0,0,0,
4:03.4,87632,(,0,0,1,
4:03.4,87640,N,0,0,0,
4:03.5,87669,),0,0,1,
4:03.6,87728,(,0,0,2,
4:03.7,87744,t,0,0,4,
4:03.8,87799,t,0,0,4,
4:03.9,87817,),0,0,2,
4:04.0,87859,(,0,0,0,
4:04.0,87875,p,0,0,0,
4:04.1,87899,),0,0,0,
4:04.2,87921,(,0,0,1,
4:04.2,87929,N,0,0,0,
4:04.3,87954,),0,0,1,
4:04.4,88012,(,0,0,2,
4:04.5,88035,t,0,0,4,
4:04.6,88066,t,0,0,4,
4:04.7,88114,),0,0,2,
4:04.8,88152,(,0,0,0,
4:04.9,88169,p,0,0,0,
4:04.9,88193,),0,0,0,
4:05.0,88212,(,0,0,1,
4:05.0,88220,N,0,0,0,
4:05.1,88239,),0,0,1,
4:05.3,88335,(,0,0,2,
4:05.4,88360,t,0,0,0,
4:05.5,88380,),0,0,2,
4:05.6,88442,(,0,0,0,
4:05.7,88464,p,0,0,0,
4:05.7,88487,),0,0,0,
4:05.8,88509,(,0,0,1,
4:05.8,88518,N,0,0,0,
4:05.9,88544,),0,0,1,
4:06.1,88611,(,0,0,2,
4:06.2,88636,t,0,0,4,
4:06.3,88679,t,0,0,4,
4:06.4,88718,),0,0,2,
4:06.5,88752,(,0,0,0,
4:06.5,88769,p,0,0,0,
4:06.6,88791,),0,0,0,
4:06.7,88812,(,0,0,1,
4:06.7,88822,N,0,0,0,
4:06.7,88841,),0,0,1,
4:06.9,88916,(,0,0,2,
4:07.0,88932,t,0,0,4,
4:07.1,88977,t,0,0,4,
4:07.2,89017,),0,0,2,
4:07.3,89054,(,0,0,0,
4:07.4,89070,p,0,0,0,
4:07.4,89094,),0,0,0,
4:07.5,89114,(,0,0,1,
4:07.5,89122,N,0,0,0,
4:07.6,89143,),0,0,1,
4:07.8,89232,(,0,0,2,
4:07.9,89261,t,0,0,0,
4:08.0,89296,),0,0,2,
4:08.1,89344,(,0,0,0,
4:08.2,89362,p,0,0,0,
4:08.2,89386,),0,0,0,
4:08.3,89402,(,0,0,1,
4:08.3,89410,N,0,0,0,
4:08.4,89434,),0,0,1,
4:08.5,89493,(,0,0,2,
4:08.6,89516,t,0,0,4,
4:08.7,89560,t,0,0,4,
4:08.8,89580,),0,0,2,
4:08.9,89628,(,0,0,0,
4:09.0,89644,p,0,0,0,
4:09.0,89665,),0,0,0,
4:09.1,89685,(,0,0,1,
4:09.1,89692,N,0,0,0,
4:09.2,89717,),0,0,1,
4:09.3,89773,(,0,0,2,
4:09.4,89795,t,0,0,4,
4:09.5,89825,t,0,0,4,
4:09.6,89862,),0,0,2,
4:09.7,89912,(,0,0,0,
4:09.8,89929,p,0,0,0,
4:09.8,89949,),0,0,0,
4:09.9,89966,(,0,0,1,
4:09.9,89976,N,0,0,0,
4:09.9,89998,),0,0,1,
4:10.0,90034,(,0,0,2,
4:10.1,90047,t,0,0,4,
4:10.3,90113,t,0,0,4,
4:10.4,90157,),0,0,2,
4:10.5,90205,(,0,0,0,
4:10.6,90221,p,0,0,0,
4:10.6,90247,),0,0,0,
4:10.7,90266,(,0,0,1,
4:10.7,90274,N,0,0,0,
4:10.8,90299,),0,0,1,
4:11.0,90388,(,0,0,2,
4:11.1,90417,t,0,0,0,
4:11.2,90444,),0,0,2,
4:11.4,90504,(,0,0,0,
4:11.4,90520,p,0,0,0,
4:11.5,90543,),0,0,0,
4:11.5,90569,(,0,0,1,
4:11.6,90578,N,0,0,0,
4:11.6,90603,),0,0,1,
4:11.8,90671,(,0,0,2,
4:11.9,90685,t,0,0,4,
4:12.0,90723,t,0,0,4,
4:12.0,90739,),0,0,2,
4:12.2,90799,(,0,0,0,
4:12.2,90822,p,0,0,0,
4:12.3,90842,),0,0,0,
4:12.4,90864,(,0,0,1,
4:12.4,90872,N,0,0,0,
4:12.4,90899,),0,0,1,
4:12.6,90963,(,0,0,2,
4:12.7,90982,t,0,0,4,
4:12.8,91023,t,0,0,4,
4:12.9,91052,),0,0,2,
4:13.0,91103,(,0,0,0,
4:13.1,91123,p,0,0,0,
4:13.1,91146,),0,0,0,
4:13.2,91169,(,0,0,1,
4:13.2,91177,N,0,0,0,
4:13.3,91202,),0,0,1,
4:13.4,91237,(,0,0,2,
4:13.4,91247,t,0,0,4,
4:13.6,91318,t,0,0,4,
4:13.7,91359,),0,0,2,
4:13.8,91397,(,0,0,0,
4:13.9,91417,p,0,0,0,
4:14.0,91441,),0,0,0,
4:14.0,91459,(,0,0,1,
4:14.0,91467,N,0,0,0,
4:14.1,91495,),0,0,1,
4:14.3,91559,(,0,0,2,
4:14.3,91574,t,0,0,4,
4:14.4,91608,t,0,0,4,
4:14.5,91625,),0,0,2,
4:14.6,91683,(,0,0,0,
4:14.7,91699,p,0,0,0,
4:14.7,91724,),0,0,0,
4:14.8,91743,(,0,0,1,
4:14.8,91750,N,0,0,0,
4:14.9,91775,),0,0,1,
4:15.0,91834,(,0,0,2,
4:15.1,91856,t,0,0,4,
4:15.2,91887,t,0,0,4,
4:15.3,91920,),0,0,2,
4:15.4,91970,(,0,0,0,
4:15.5,91985,p,0,0,0,
4:15.5,92008,),0,0,0,
4:15.6,92027,(,0,0,1,
4:15.6,92034,N,0,0,0,
4:15.7,92054,),0,0,1,
4:15.8,92111,(,0,0,2,
4:15.9,92136,t,0,0,4,
4:16.0,92176,t,0,0,4,
4:16.1,92210,),0,0,2,
4:16.2,92257,(,0,0,0,
4:16.3,92276,p,0,0,0,
4:16.3,92296,),0,0,0,
4:16.4,92317,(,0,0,1,
4:16.4,92326,N,0,0,0,
4:16.5,92345,),0,0,1,
4:16.7,92418,(,0,0,2,
4:16.7,92429,t,0,0,4,
4:16.8,92458,t,0,0,4,
4:16.9,92502,),0,0,2,
4:17.0,92545,(,0,0,0,
4:17.1,92566,p,0,0,0,
4:17.2,92593,),0,0,0,
4:17.2,92613,(,0,0,1,
4:17.2,92621,N,0,0,0,
4:17.3,92641,),0,0,1,
4:17.5,92723,(,0,0,2,
4:17.6,92736,t,0,0,4,
4:17.8,92818,t,0,0,4,
4:17.8,92832,),0,0,2,
4:17.9,92861,(,0,0,0,
4:17.9,92876,p,0,0,0,
4:18.0,92900,),0,0,0,
4:18.1,92924,(,0,0,1,
4:18.1,92933,N,0,0,0,
4:18.2,92959,),0,0,1,
4:18.3,93022,(,0,0,2,
4:18.4,93041,t,0,0,4,
4:18.5,93080,t,0,0,4,
4:18.6,93123,),0,0,2,
4:18.7,93158,(,0,0,0,
4:18.8,93181,p,0,0,0,
4:18.9,93204,),0,0,0,
4:18.9,93226,(,0,0,1,
4:18.9,93234,N,0,0,0,
4:19.0,93259,),0,0,1,
4:19.2,93320,(,0,0,2,
4:19.2,93335,t,0,0,4,
4:19.3,93374,t,0,0,4,
4:19.4,93419,),0,0,2,
4:19.5,93451,(,0,0,0,
4:19.6,93471,p,0,0,0,
4:19.7,93497,),0,0,0,
4:19.7,93514,(,0,0,1,
4:19.7,93522,N,0,0,0,
4:19.8,93546,),0,0,1,
4:20.0,93614,(,0,0,2,
4:20.0,93626,t,0,0,4,
4:20.1,93662,t,0,0,4,
4:20.3,93708,),0,0,2,
4:20.3,93739,(,0,0,0,
4:20.4,93760,p,0,0,0,
4:20.5,93781,),0,0,0,
4:20.5,93801,(,0,0,1,
4:20.5,93811,N,0,0,0,
4:20.6,93838,),0,0,1,
4:20.8,93900,(,0,0,2,
4:20.8,93915,t,0,0,4,
4:20.9,93956,t,0,0,4,
4:21.0,93991,),0,0,2,
4:21.1,94022,(,0,0,0,
4:21.2,94040,p,0,0,0,
4:21.2,94064,),0,0,0,
4:21.3,94083,(,0,0,1,
4:21.3,94091,N,0,0,0,
4:21.4,94116,),0,0,1,
4:21.6,94181,(,0,0,2,
4:21.6,94196,t,0,0,4,
4:21.7,94239,t,0,0,4,
4:21.8,94273,),0,0,2,
4:21.9,94315,(,0,0,0,
4:22.0,94332,p,0,0,0,
4:22.1,94356,),0,0,0,
4:22.1,94374,(,0,0,1,
4:22.1,94381,N,0,0,0,
4:22.2,94409,),0,0,1,
4:22.4,94471,(,0,0,2,
4:22.4,94488,t,0,0,4,
4:22.5,94523,t,0,0,4,
4:22.6,94561,),0,0,2,
4:22.8,94610,(,0,0,0,
4:22.8,94627,p,0,0,0,
4:22.9,94652,),0,0,0,
4:22.9,94673,(,0,0,1,
4:23.0,94681,N,0,0,0,
4:23.0,94705,),0,0,1,
4:23.2,94769,(,0,0,2,
4:23.3,94789,t,0,0,4,
4:23.4,94826,t,0,0,4,
4:23.5,94863,),0,0,2,
4:23.6,94914,(,0,0,0,
4:23.6,94931,p,0,0,0,
4:23.7,94957,),0,0,0,
4:23.8,94975,(,0,0,1,
4:23.8,94983,N,0,0,0,
4:23.9,95010,),0,0,1,
4:24.1,95085,(,0,0,2,
4:24.1,95096,t,0,0,4,
4:24.2,95137,t,0,0,4,
4:24.3,95165,),0,0,2,
4:24.4,95210,(,0,0,0,
4:24.5,95231,p,0,0,0,
4:24.5,95254,),0,0,0,
4:24.6,95278,(,0,0,1,
4:24.6,95286,N,0,0,0,
4:24.7,95312,),0,0,1,
4:24.9,95369,(,0,0,2,
4:24.9,95396,t,0,0,4,
4:25.0,95434,t,0,0,4,
4:25.2,95487,),0,0,2,
4:25.3,95526,(,0,0,0,
4:25.4,95553,p,0,0,0,
4:25.4,95569,),0,0,0,
4:25.5,95587,(,0,0,1,
4:25.5,95594,N,0,0,0,
4:25.5,95615,),0,0,1,
4:25.7,95686,(,0,0,2,
4:25.8,95699,t,0,0,4,
4:25.9,95732,t,0,0,4,
4:26.0,95776,),0,0,2,
4:26.1,95814,(,0,0,0,
4:26.2,95833,p,0,0,0,
4:26.2,95856,),0,0,0,
4:26.3,95875,(,0,0,1,
4:26.3,95882,N,0,0,0,
4:26.4,95904,),0,0,1,
4:26.5,95968,(,0,0,2,
4:26.6,95981,t,0,0,4,
4:26.7,96020,t,0,0,4,
4:26.8,96060,),0,0,2,
4:26.9,96090,(,0,0,0,
4:26.9,96107,p,0,0,0,
4:27.0,96130,),0,0,0,
4:27.0,96150,(,0,0,1,
4:27.1,96159,N,0,0,0,
4:27.1,96183,),0,0,1,
4:27.3,96244,(,0,0,2,
4:27.3,96261,t,0,0,1,
4:27.4,96284,),0,0,2,
4:27.6,96369,(,0,0,0,
4:27.7,96388,p,0,0,0,
4:27.8,96410,),0,0,0,
4:27.8,96432,(,0,0,1,
4:27.8,96439,N,0,0,0,
4:27.9,96464,),0,0,1,
4:28.1,96528,(,0,0,2,
4:28.1,96546,t,0,0,4,
4:28.2,96584,t,0,0,4,
4:28.3,96611,),0,0,2,
4:28.4,96658,(,0,0,0,
4:28.5,96679,p,0,0,0,
4:28.6,96704,),0,0,0,
4:28.6,96722,(,0,0,1,
4:28.7,96732,N,0,0,0,
4:28.7,96754,),0,0,1,
4:29.0,96848,(,0,0,2,
4:29.1,96880,t,0,0,0,
4:29.2,96922,),0,0,2,
4:29.3,96963,(,0,0,0,
4:29.3,96981,p,0,0,0,
4:29.4,97004,),0,0,0,
4:29.5,97029,(,0,0,1,
4:29.5,97038,N,0,0,0,
4:29.6,97063,),0,0,1,
4:29.8,97155,(,0,0,2,
4:29.9,97183,t,0,0,0,
4:30.0,97223,),0,0,2,
4:30.1,97264,(,0,0,0,
4:30.2,97284,p,0,0,0,
4:30.2,97306,),0,0,0,
4:30.3,97330,(,0,0,1,
4:30.3,97337,N,0,0,0,
4:30.4,97362,),0,0,1,
4:30.6,97431,(,0,0,2,
4:30.6,97447,t,0,0,4,
4:30.8,97490,t,0,0,4,
4:30.8,97511,),0,0,2,
4:31.0,97563,(,0,0,0,
4:31.0,97585,p,0,0,0,
4:31.1,97605,),0,0,0,
4:31.1,97623,(,0,0,1,
4:31.2,97632,N,0,0,0,
4:31.2,97652,),0,0,1,
4:31.4,97719,(,0,0,2,
4:31.4,97736,t,0,0,4,
4:31.5,97775,t,0,0,4,
4:31.6,97811,),0,0,2,
4:31.8,97855,(,0,0,0,
4:31.8,97873,p,0,0,0,
4:31.9,97896,),0,0,0,
4:31.9,97914,(,0,0,1,
4:32.0,97923,N,0,0,0,
4:32.0,97944,),0,0,1,
4:32.1,97985,(,0,0,2,
4:32.2,97998,t,0,0,4,
4:32.3,98063,t,0,0,4,
4:32.4,98098,),0,0,2,
4:32.6,98149,(,0,0,0,
4:32.7,98174,p,0,0,0,
4:32.7,98191,),0,0,0,
4:32.8,98209,(,0,0,1,
4:32.8,98217,N,0,0,0,
4:32.8,98241,),0,0,1,
4:33.0,98303,(,0,0,2,
4:33.1,98318,t,0,0,1,
4:33.1,98347,),0,0,2,
4:33.4,98430,(,0,0,0,
4:33.4,98449,p,0,0,0,
4:33.5,98466,),0,0,0,
4:33.5,98490,(,0,0,1,
4:33.6,98497,N,0,0,0,
4:33.6,98522,),0,0,1,
4:33.8,98582,(,0,0,2,
4:33.8,98598,t,0,0,1,
4:33.9,98620,),0,0,2,
4:34.1,98707,(,0,0,0,
4:34.2,98728,p,0,0,0,
4:34.3,98749,),0,0,0,
4:34.3,98770,(,0,0,1,
4:34.3,98778,N,0,0,0,
4:34.4,98796,),0,0,1,
4:34.5,98851,(,0,0,2,
4:34.6,98880,t,0,0,4,
4:34.7,98913,t,0,0,4,
4:34.9,98974,),0,0,2,
4:34.9,98998,(,0,0,0,
4:35.0,99016,p,0,0,0,
4:35.1,99043,),0,0,0,
4:35.1,99062,(,0,0,1,
4:35.1,99071,N,0,0,0,
4:35.2,99092,),0,0,1,
4:35.4,99157,(,0,0,2,
4:35.4,99178,t,0,0,4,
4:35.6,99216,t,0,0,4,
4:35.6,99247,),0,0,2,
4:36.0,99361,(,0,0,1,
4:36.0,99381,N,0,0,0,
4:36.0,99391,),0,0,1,
4:36.5,99566,(,0,0,2,
4:36.6,99577,t,0,0,0,
4:36.6,99590,),0,0,2,
4:37.5,99912,(,0,0,1,
4:37.5,99929,N,0,0,0,
4:37.6,99941,),0,0,1,
4:37.7,100006,(,0,0,2,
4:37.8,100024,t,0,0,4,
4:37.9,100063,t,0,0,4,
4:38.0,100104,),0,0,2,
4:38.3,100197,(,0,0,1,
4:38.3,100217,N,0,0,0,
4:38.4,100228,),0,0,1,
4:38.6,100311,(,0,0,2,
4:38.7,100340,t,0,0,0,
4:38.8,100385,),0,0,2,
4:39.1,100476,(,0,0,1,
4:39.1,100495,N,0,0,0,
4:39.1,100506,),0,0,1,
4:39.4,100598,(,0,0,2,
4:39.5,100629,t,0,0,0,
4:39.6,100659,),0,0,2,
4:39.8,100761,(,0,0,1,
4:39.9,100780,N,0,0,0,
4:39.9,100792,),0,0,1,
4:40.1,100861,(,0,0,2,
4:40.2,100876,t,0,0,4,
4:40.3,100914,t,0,0,4,
4:40.3,100930,),0,0,2,
4:40.6,101047,(,0,0,1,
4:40.7,101070,N,0,0,0,
4:40.7,101081,),0,0,1,
4:41.4,101338,(,0,0,1,
4:41.5,101360,N,0,0,0,
4:41.5,101372,),0,0,1,
4:42.3,101634,(,0,0,1,
4:42.3,101652,N,0,0,0,
4:42.4,101664,),0,0,1,
4:42.5,101733,(,0,0,2,
4:42.6,101753,t,0,0,4,
4:42.7,101788,t,0,0,4,
4:42.8,101822,),0,0,2,
4:43.9,102215,(,0,0,1,
4:43.9,102233,N,0,0,0,
4:44.0,102245,),0,0,1,
4:44.7,102497,(,0,0,1,
4:44.7,102515,N,0,0,0,
4:44.8,102529,),0,0,1,
4:45.0,102600,(,0,0,2,
4:45.0,102611,t,0,0,4,
4:45.1,102637,t,0,0,4,
4:45.2,102684,),0,0,2,
4:45.4,102771,(,0,0,1,
4:45.5,102792,N,0,0,0,
4:45.5,102804,),0,0,1,
4:45.7,102864,(,0,0,2,
4:45.7,102877,t,0,0,4,
4:45.8,102914,t,0,0,4,
4:45.9,102956,),0,0,2,
4:46.2,103054,(,0,0,1,
4:46.3,103073,N,0,0,0,
4:46.3,103083,),0,0,1,
4:46.5,103174,(,0,0,2,
4:46.6,103199,t,0,0,0,
4:46.8,103261,),0,0,2,
4:47.0,103350,(,0,0,1,
4:47.1,103370,N,0,0,0,
4:47.1,103382,),0,0,1,
4:51.1,104809,(,0,0,1,
4:51.1,104829,N,0,0,0,
4:51.2,104840,),0,0,1,
4:51.4,104909,(,0,0,2,
4:51.4,104926,t,0,0,4,
4:51.5,104963,t,0,0,4,
4:51.6,104979,),0,0,2,
4:54.4,105993,(,0,0,1,
4:54.4,106014,N,0,0,0,
4:54.5,106027,),0,0,1,
4:54.7,106094,(,0,0,2,
4:54.7,106111,t,0,0,4,
4:54.9,106177,t,0,0,4,
4:54.9,106194,),0,0,2,
4:55.2,106292,(,0,0,1,
4:55.3,106313,N,0,0,0,
4:55.3,106325,),0,0,1,
4:55.5,106412,(,0,0,2,
4:55.6,106436,t,0,0,0,
4:55.7,106478,),0,0,2,
5:00.0,108024,(,0,0,1,
5:00.1,108044,N,0,0,0,
5:00.1,108056,),0,0,1,
5:00.3,108127,(,0,0,2,
5:00.3,108142,t,0,0,4,
5:00.5,108180,t,0,0,4,
5:00.5,108200,),0,0,2,
5:00.8,108322,(,0,0,1,
5:00.9,108341,N,0,0,0,
5:00.9,108355,),0,0,1,
5:01.1,108428,(,0,0,2,
5:01.2,108442,t,0,0,4,
5:01.3,108482,t,0,0,4,
5:01.4,108535,),0,0,2,
5:03.2,109180,(,0,0,1,
5:03.3,109198,N,0,0,0,
5:03.3,109209,),0,0,1,
5:03.5,109269,(,0,0,2,
5:03.5,109291,t,0,0,4,
5:03.7,109332,t,0,0,4,
5:03.7,109366,),0,0,2,
5:05.7,110056,(,0,0,1,
5:05.7,110075,N,0,0,0,
5:05.7,110087,),0,0,1,
5:05.9,110156,(,0,0,2,
5:06.0,110177,t,0,0,4,
5:06.2,110238,t,0,0,4,
5:06.2,110255,),0,0,2,
5:07.3,110654,(,0,0,1,
5:07.4,110672,N,0,0,0,
5:07.4,110683,),0,0,1,
5:08.1,110940,(,0,0,1,
5:08.2,110962,N,0,0,0,
5:08.2,110972,),0,0,1,
5:08.5,111060,(,0,0,2,
5:08.5,111092,t,0,0,0,
5:08.7,111133,),0,0,2,
5:08.9,111224,(,0,0,1,
5:09.0,111242,N,0,0,0,
5:09.0,111254,),0,0,1,
5:09.1,111308,(,0,0,2,
5:09.2,111334,t,0,0,4,
5:09.3,111368,t,0,0,4,
5:09.4,111401,),0,0,2,
5:12.1,112384,(,0,0,1,
5:12.2,112404,N,0,0,0,
5:12.2,112415,),0,0,1,
5:12.4,112480,(,0,0,2,
5:12.5,112503,t,0,0,4,
5:12.6,112549,t,0,0,4,
5:12.7,112575,),0,0,2,
5:15.3,113513,(,0,0,0,
5:15.4,113546,p,0,0,0,
5:15.4,113558,),0,0,0,
5:15.5,113604,(,0,0,1,
5:15.7,113655,N,0,0,0,
5:15.8,113722,),0,0,1,
5:16.2,113837,(,0,0,2,
5:16.2,113848,t,0,0,0,
5:16.2,113860,),0,0,2,
5:17.8,114408,(,0,0,1,
5:17.8,114427,N,0,0,0,
5:17.8,114439,),0,0,1,
5:18.5,114695,(,0,0,1,
5:18.6,114715,N,0,0,0,
5:18.6,114729,),0,0,1,
5:18.8,114771,(,0,0,2,
5:18.8,114781,t,0,0,4,
5:19.0,114861,t,0,0,4,
5:19.1,114888,),0,0,2,
5:19.3,114976,(,0,0,1,
5:19.4,114999,N,0,0,0,
5:19.4,115011,),0,0,1,
5:20.1,115259,(,0,0,1,
5:20.2,115279,N,0,0,0,
5:20.2,115290,),0,0,1,
5:20.4,115364,(,0,0,2,
5:20.4,115371,t,0,0,4,
5:20.5,115398,t,0,0,4,
5:20.6,115438,),0,0,2,
5:21.6,115794,(,0,0,1,
5:21.7,115813,N,0,0,0,
5:21.7,115824,),0,0,1,
5:21.9,115893,(,0,0,2,
5:21.9,115903,t,0,0,4,
5:22.0,115939,t,0,0,4,
5:22.1,115983,),0,0,2,
5:27.0,117747,(,0,0,1,
5:27.1,117765,N,0,0,0,
5:27.1,117784,),0,0,1,
5:27.3,117843,(,0,0,2,
5:27.3,117859,t,0,0,4,
5:27.4,117896,t,0,0,4,
5:27.6,117938,),0,0,2,
5:27.8,118024,(,0,0,1,
5:27.8,118043,N,0,0,0,
5:27.9,118053,),0,0,1,
5:28.1,118125,(,0,0,2,
5:28.1,118137,t,0,0,4,
5:28.2,118172,t,0,0,4,
5:28.3,118193,),0,0,2,
5:28.6,118303,(,0,0,1,
5:28.6,118322,N,0,0,0,
5:28.7,118334,),0,0,1,
5:28.8,118399,(,0,0,2,
5:28.9,118418,t,0,0,4,
5:29.0,118448,t,0,0,4,
5:29.1,118493,),0,0,2,
5:29.4,118587,(,0,0,1,
5:29.4,118606,N,0,0,0,
5:29.5,118620,),0,0,1,
5:29.6,118688,(,0,0,2,
5:29.7,118704,t,0,0,4,
5:29.8,118746,t,0,0,4,
5:29.9,118765,),0,0,2,
5:31.0,119192,(,0,0,1,
5:31.1,119214,N,0,0,0,
5:31.1,119225,),0,0,1,
5:31.3,119292,(,0,0,2,
5:31.4,119317,t,0,0,4,
5:31.5,119356,t,0,0,4,
5:31.6,119378,),0,0,2,
5:32.6,119769,(,0,0,1,
5:32.7,119790,N,0,0,0,
5:32.7,119801,),0,0,1,
5:32.9,119869,(,0,0,2,
5:33.0,119881,t,0,0,4,
5:33.0,119910,t,0,0,4,
5:33.1,119951,),0,0,2,
5:35.1,120656,(,0,0,1,
5:35.2,120675,N,0,0,0,
5:35.2,120688,),0,0,1,
5:35.5,120780,(,0,0,2,
5:35.5,120806,t,0,0,0,
5:35.7,120860,),0,0,2,
5:36.8,121275,(,0,0,1,
5:36.9,121299,N,0,0,0,
5:36.9,121311,),0,0,1,
5:37.1,121375,(,0,0,2,
5:37.2,121395,t,0,0,4,
5:37.2,121425,t,0,0,4,
5:37.4,121465,),0,0,2,
5:37.7,121584,(,0,0,1,
5:37.7,121603,N,0,0,0,
5:37.8,121617,),0,0,1,
5:38.0,121680,(,0,0,2,
5:38.0,121704,t,0,0,4,
5:38.1,121731,t,0,0,4,
5:38.2,121784,),0,0,2,
5:38.5,121868,(,0,0,1,
5:38.5,121888,N,0,0,0,
5:38.6,121900,),0,0,1,
5:38.7,121964,(,0,0,2,
5:38.8,121978,t,0,0,4,
5:38.9,122012,t,0,0,4,
5:39.0,122049,),0,0,2,
5:40.1,122437,(,0,0,1,
5:40.1,122460,N,0,0,0,
5:40.1,122471,),0,0,1,
5:40.3,122540,(,0,0,2,
5:40.4,122555,t,0,0,1,
5:40.5,122583,),0,0,2,
5:41.7,123030,(,0,0,1,
5:41.8,123049,N,0,0,0,
5:41.8,123060,),0,0,1,
5:41.9,123097,(,0,0,2,
5:41.9,123109,t,0,0,4,
5:42.1,123181,t,0,0,4,
5:42.2,123225,),0,0,2,
5:43.4,123644,(,0,0,1,
5:43.5,123662,N,0,0,0,
5:43.5,123673,),0,0,1,
5:43.7,123734,(,0,0,2,
5:43.7,123755,t,0,0,4,
5:43.9,123806,t,0,0,4,
5:43.9,123819,),0,0,2,
5:44.2,123917,(,0,0,1,
5:44.2,123935,N,0,0,0,
5:44.2,123947,),0,0,1,
5:44.4,124009,(,0,0,2,
5:44.5,124028,t,0,0,4,
5:44.6,124065,t,0,0,4,
5:44.6,124089,),0,0,2,
5:44.9,124199,(,0,0,1,
5:45.0,124220,N,0,0,0,
5:45.0,124232,),0,0,1,
5:45.2,124301,(,0,0,2,
5:45.3,124316,t,0,0,4,
5:45.4,124351,t,0,0,4,
5:45.4,124375,),0,0,2,
5:45.7,124487,(,0,0,1,
5:45.8,124506,N,0,0,0,
5:45.8,124517,),0,0,1,
5:46.0,124581,(,0,0,2,
5:46.1,124600,t,0,0,4,
5:46.2,124634,t,0,0,4,
5:46.2,124662,),0,0,2,
5:46.5,124757,(,0,0,1,
5:46.5,124774,N,0,0,0,
5:46.6,124785,),0,0,1,
5:46.8,124853,(,0,0,2,
5:46.8,124869,t,0,0,4,
5:46.9,124907,t,0,0,4,
5:47.0,124946,),0,0,2,
5:48.1,125333,(,0,0,1,
5:48.2,125354,N,0,0,0,
5:48.2,125365,),0,0,1,
5:48.4,125435,(,0,0,2,
5:48.4,125453,t,0,0,4,
5:48.5,125494,t,0,0,4,
5:48.7,125534,),0,0,2,
5:49.7,125906,(,0,0,1,
5:49.7,125925,N,0,0,0,
5:49.8,125935,),0,0,1,
5:50.0,126026,(,0,0,2,
5:50.1,126053,t,0,0,0,
5:50.2,126085,),0,0,2,
5:54.3,127582,(,0,0,1,
5:54.4,127602,N,0,0,0,
5:54.4,127614,),0,0,1,
5:54.7,127707,(,0,0,2,
5:54.8,127733,t,0,0,0,
5:54.9,127781,),0,0,2,
5:56.6,128402,(,0,0,1,
5:56.7,128422,N,0,0,0,
5:56.7,128432,),0,0,1,
5:56.9,128501,(,0,0,2,
5:56.9,128516,t,0,0,4,
5:57.0,128547,t,0,0,4,
5:57.1,128578,),0,0,2,
5:57.4,128685,(,0,0,1,
5:57.4,128697,N,0,0,0,
5:57.5,128707,),0,0,1,
5:57.6,128757,(,0,0,2,
5:57.7,128779,t,0,0,1,
5:57.8,128814,),0,0,2,
5:58.1,128938,(,0,0,1,
5:58.2,128957,N,0,0,0,
5:58.2,128967,),0,0,1,
5:58.4,129030,(,0,0,2,
5:58.4,129044,t,0,0,4,
5:58.5,129083,t,0,0,4,
5:58.6,129104,),0,0,2,
5:58.9,129207,(,0,0,1,
5:58.9,129230,N,0,0,0,
5:59.0,129242,),0,0,1,
5:59.1,129294,(,0,0,2,
5:59.1,129304,t,0,0,4,
5:59.3,129368,t,0,0,4,
5:59.4,129385,),0,0,2,
5:59.7,129500,(,0,0,1,
5:59.7,129518,N,0,0,0,
5:59.8,129530,),0,0,1,
5:59.9,129596,(,0,0,2,
6:00.0,129615,t,0,0,4,
6:00.1,129654,t,0,0,4,
6:00.1,129669,),0,0,2,
6:01.9,130299,(,0,0,1,
6:01.9,130317,N,0,0,0,
6:02.0,130329,),0,0,1,
6:02.1,130390,(,0,0,2,
6:02.2,130410,t,0,0,4,
6:02.3,130454,t,0,0,4,
6:02.4,130479,),0,0,2,
6:02.6,130548,(,0,0,1,
6:02.6,130567,N,0,0,0,
6:02.7,130577,),0,0,1,
6:02.9,130644,(,0,0,2,
6:02.9,130652,t,0,0,4,
6:03.0,130701,t,0,0,4,
6:03.1,130720,),0,0,2,
6:03.3,130795,(,0,0,1,
6:03.3,130817,N,0,0,0,
6:03.4,130829,),0,0,1,
6:03.5,130890,(,0,0,2,
6:03.6,130905,t,0,0,4,
6:03.7,130941,t,0,0,4,
6:03.7,130960,),0,0,2,
6:04.0,131055,(,0,0,1,
6:04.0,131072,N,0,0,0,
6:04.1,131084,),0,0,1,
6:04.3,131150,(,0,0,2,
6:04.3,131163,t,0,0,4,
6:04.4,131201,t,0,0,4,
6:04.5,131221,),0,0,2,
6:05.4,131566,(,0,0,1,
6:05.5,131583,N,0,0,0,
6:05.5,131594,),0,0,1,
6:05.7,131662,(,0,0,2,
6:05.7,131676,t,0,0,4,
6:05.8,131719,t,0,0,4,
6:05.9,131749,),0,0,2,
6:08.3,132611,(,0,0,1,
6:08.4,132628,N,0,0,0,
6:08.4,132638,),0,0,1,
6:08.6,132702,(,0,0,2,
6:08.6,132716,t,0,0,4,
6:08.7,132755,t,0,0,4,
6:08.8,132791,),0,0,2,
6:10.4,133369,(,0,0,1,
6:10.5,133388,N,0,0,0,
6:10.5,133400,),0,0,1,
6:10.7,133487,(,0,0,2,
6:10.8,133518,t,0,0,0,
6:10.9,133544,),0,0,2,
6:11.9,133914,(,0,0,1,
6:12.0,133932,N,0,0,0,
6:12.0,133943,),0,0,1,
6:12.1,133982,(,0,0,2,
6:12.2,133993,t,0,0,4,
6:12.3,134059,t,0,0,4,
6:12.5,134103,),0,0,2,
6:13.4,134443,(,0,0,1,
6:13.5,134462,N,0,0,0,
6:13.5,134474,),0,0,1,
6:13.6,134503,(,0,0,2,
6:13.6,134519,t,0,0,4,
6:13.8,134588,t,0,0,4,
6:13.9,134636,),0,0,2,
6:14.9,134970,(,0,0,1,
6:14.9,134988,N,0,0,0,
6:14.9,134999,),0,0,1,
6:15.2,135078,(,0,0,2,
6:15.2,135104,t,0,0,0,
6:15.4,135146,),0,0,2,
6:15.6,135224,(,0,0,1,
6:15.6,135242,N,0,0,0,
6:15.7,135253,),0,0,1,
6:15.8,135296,(,0,0,2,
6:15.8,135306,t,0,0,4,
6:16.0,135363,t,0,0,4,
6:16.1,135405,),0,0,2,
6:17.8,136041,(,0,0,1,
6:17.9,136060,N,0,0,0,
6:17.9,136071,),0,0,1,
6:18.1,136120,(,0,0,2,
6:18.1,136131,t,0,0,4,
6:18.3,136195,t,0,0,4,
6:18.4,136244,),0,0,2,
6:20.2,136880,(,0,0,1,
6:20.2,136898,N,0,0,0,
6:20.3,136909,),0,0,1,
6:20.5,136988,(,0,0,2,
6:20.6,137024,t,0,0,0,
6:20.7,137066,),0,0,2,
6:21.7,137430,(,0,0,1,
6:21.7,137447,N,0,0,0,
6:21.8,137458,),0,0,1,
6:21.9,137512,(,0,0,2,
6:22.0,137535,t,0,0,4,
6:22.1,137568,t,0,0,4,
6:22.2,137617,),0,0,2,
6:23.2,137987,(,0,0,1,
6:23.3,138007,N,0,0,0,
6:23.3,138018,),0,0,1,
6:23.5,138086,(,0,0,2,
6:23.6,138096,t,0,0,4,
6:23.7,138148,t,0,0,4,
6:23.8,138188,),0,0,2,
6:25.7,138867,(,0,0,1,
6:25.7,138887,N,0,0,0,
6:25.8,138898,),0,0,1,
6:26.0,138986,(,0,0,2,
6:26.1,139022,t,0,0,0,
6:26.2,139061,),0,0,2,
6:27.2,139421,(,0,0,1,
6:27.3,139439,N,0,0,0,
6:27.3,139450,),0,0,1,
6:27.5,139513,(,0,0,2,
6:27.5,139527,t,0,0,4,
6:27.6,139562,t,0,0,4,
6:27.7,139604,),0,0,2,
6:28.0,139700,(,0,0,1,
6:28.1,139718,N,0,0,0,
6:28.1,139729,),0,0,1,
6:28.3,139799,(,0,0,2,
6:28.3,139811,t,0,0,4,
6:28.4,139849,t,0,0,4,
6:28.6,139897,),0,0,2,
6:28.8,139989,(,0,0,1,
6:28.9,140008,N,0,0,0,
6:28.9,140019,),0,0,1,
6:29.1,140081,(,0,0,2,
6:29.1,140096,t,0,0,4,
6:29.2,140131,t,0,0,4,
6:29.3,140173,),0,0,2,
6:29.6,140280,(,0,0,1,
6:29.7,140301,N,0,0,0,
6:29.7,140315,),0,0,1,
6:29.9,140386,(,0,0,2,
6:29.9,140398,t,0,0,4,
6:30.0,140433,t,0,0,4,
6:30.1,140465,),0,0,2,
6:30.4,140579,(,0,0,1,
6:30.5,140598,N,0,0,0,
6:30.5,140609,),0,0,1,
6:30.7,140677,(,0,0,2,
6:30.8,140690,t,0,0,4,
6:30.9,140730,t,0,0,4,
6:30.9,140742,),0,0,2,
6:31.2,140861,(,0,0,1,
6:31.3,140880,N,0,0,0,
6:31.3,140891,),0,0,1,
6:31.6,140977,(,0,0,2,
6:31.6,141005,t,0,0,0,
6:31.7,141042,),0,0,2,
6:32.0,141130,(,0,0,1,
6:32.0,141151,N,0,0,0,
6:32.1,141162,),0,0,1,
6:32.2,141227,(,0,0,2,
6:32.3,141244,t,0,0,4,
6:32.4,141271,t,0,0,4,
6:32.5,141317,),0,0,2,
6:32.7,141400,(,0,0,1,
6:32.8,141422,N,0,0,0,
6:32.8,141436,),0,0,1,
6:33.0,141495,(,0,0,2,
6:33.0,141509,t,0,0,4,
6:33.1,141550,t,0,0,4,
6:33.3,141592,),0,0,2,
6:33.5,141664,(,0,0,1,
6:33.5,141683,N,0,0,0,
6:33.5,141695,),0,0,1,
6:34.2,141923,(,0,0,1,
6:34.2,141942,N,0,0,0,
6:34.3,141953,),0,0,1,
6:34.4,142019,(,0,0,2,
6:34.5,142029,t,0,0,1,
6:34.6,142065,),0,0,2,
6:34.9,142190,(,0,0,1,
6:35.0,142206,N,0,0,0,
6:35.0,142214,),0,0,1,
6:35.2,142278,(,0,0,2,
6:35.2,142291,t,0,0,4,
6:35.4,142349,t,0,0,4,
6:35.4,142365,),0,0,2,
6:35.7,142459,(,0,0,1,
6:35.7,142478,N,0,0,0,
6:35.8,142492,),0,0,1,
6:35.9,142553,(,0,0,2,
6:36.0,142572,t,0,0,4,
6:36.1,142614,t,0,0,4,
6:36.2,142646,),0,0,2,
6:36.4,142727,(,0,0,1,
6:36.5,142745,N,0,0,0,
6:36.5,142756,),0,0,1,
6:36.7,142829,(,0,0,2,
6:36.7,142840,t,0,0,4,
6:36.9,142885,t,0,0,4,
6:36.9,142919,),0,0,2,
6:37.1,142989,(,0,0,1,
6:37.2,143009,N,0,0,0,
6:37.2,143020,),0,0,1,
6:37.4,143076,(,0,0,2,
6:37.4,143099,t,0,0,4,
6:37.6,143138,t,0,0,4,
6:37.6,143155,),0,0,2,
6:37.9,143247,(,0,0,1,
6:37.9,143263,N,0,0,0,
6:37.9,143274,),0,0,1,
6:38.1,143333,(,0,0,2,
6:38.2,143353,t,0,0,4,
6:38.2,143384,t,0,0,4,
6:38.4,143426,),0,0,2,
6:38.6,143497,(,0,0,1,
6:38.6,143514,N,0,0,0,
6:38.6,143525,),0,0,1,
6:38.8,143585,(,0,0,2,
6:38.8,143599,t,0,0,4,
6:38.9,143637,t,0,0,4,
6:39.0,143671,),0,0,2,
6:39.2,143747,(,0,0,1,
6:39.3,143765,N,0,0,0,
6:39.3,143776,),0,0,1,
6:39.5,143833,(,0,0,2,
6:39.5,143854,t,0,0,4,
6:39.6,143885,t,0,0,4,
6:39.8,143931,),0,0,2,
6:40.0,144003,(,0,0,1,
6:40.0,144024,N,0,0,0,
6:40.0,144035,),0,0,1,
6:40.2,144102,(,0,0,2,
6:40.3,144114,t,0,0,4,
6:40.3,144143,t,0,0,4,
6:40.5,144187,),0,0,2,
6:40.7,144262,(,0,0,1,
6:40.7,144285,N,0,0,0,
6:40.8,144296,),0,0,1,
6:41.0,144364,(,0,0,2,
6:41.0,144378,t,0,0,4,
6:41.1,144416,t,0,0,4,
6:41.1,144430,),0,0,2,
6:41.4,144539,(,0,0,1,
6:41.5,144556,N,0,0,0,
6:41.5,144569,),0,0,1,
6:41.7,144630,(,0,0,2,
6:41.8,144648,t,0,0,4,
6:41.8,144683,t,0,0,4,
6:42.0,144721,),0,0,2,
6:42.2,144809,(,0,0,1,
6:42.3,144831,N,0,0,0,
6:42.3,144844,),0,0,1,
6:42.5,144911,(,0,0,2,
6:42.5,144925,t,0,0,1,
6:42.6,144955,),0,0,2,
6:43.0,145091,(,0,0,1,
6:43.0,145110,N,0,0,0,
6:43.1,145122,),0,0,1,
6:43.2,145187,(,0,0,2,
6:43.3,145208,t,0,0,4,
6:43.4,145242,t,0,0,4,
6:43.5,145289,),0,0,2,
6:43.7,145364,(,0,0,1,
6:43.8,145380,N,0,0,0,
6:43.8,145392,),0,0,1,
6:44.0,145454,(,0,0,2,
6:44.1,145477,t,0,0,4,
6:44.2,145520,t,0,0,4,
6:44.2,145535,),0,0,2,
6:44.5,145629,(,0,0,1,
6:44.5,145646,N,0,0,0,
6:44.6,145656,),0,0,1,
6:44.7,145723,(,0,0,2,
6:44.8,145734,t,0,0,4,
6:44.9,145774,t,0,0,4,
6:44.9,145797,),0,0,2,
6:45.2,145884,(,0,0,1,
6:45.2,145901,N,0,0,0,
6:45.3,145913,),0,0,1,
6:45.4,145973,(,0,0,2,
6:45.5,145986,t,0,0,4,
6:45.6,146024,t,0,0,4,
6:45.7,146055,),0,0,2,
6:45.9,146149,(,0,0,1,
6:46.0,146169,N,0,0,0,
6:46.0,146179,),0,0,1,
6:46.2,146234,(,0,0,2,
6:46.2,146259,t,0,0,4,
6:46.4,146312,t,0,0,4,
6:46.4,146328,),0,0,2,
6:46.7,146426,(,0,0,1,
6:46.7,146444,N,0,0,0,
6:46.8,146455,),0,0,1,
6:47.0,146522,(,0,0,2,
6:47.0,146541,t,0,0,4,
6:47.1,146572,t,0,0,4,
6:47.2,146609,),0,0,2,
6:47.5,146711,(,0,0,1,
6:47.6,146736,N,0,0,0,
6:47.6,146747,),0,0,1,
6:47.8,146809,(,0,0,2,
6:47.8,146824,t,0,0,4,
6:47.9,146862,t,0,0,4,
6:48.0,146905,),0,0,2,
6:48.3,146993,(,0,0,1,
6:48.3,147012,N,0,0,0,
6:48.3,147023,),0,0,1,
6:48.5,147085,(,0,0,2,
6:48.6,147106,t,0,0,4,
6:48.7,147147,t,0,0,4,
6:48.8,147186,),0,0,2,
6:49.0,147269,(,0,0,1,
6:49.1,147289,N,0,0,0,
6:49.1,147301,),0,0,1,
6:49.3,147364,(,0,0,2,
6:49.3,147379,t,0,0,4,
6:49.4,147419,t,0,0,4,
6:49.6,147457,),0,0,2,
6:49.8,147546,(,0,0,1,
6:49.9,147564,N,0,0,0,
6:49.9,147577,),0,0,1,
6:50.1,147644,(,0,0,2,
6:50.1,147657,t,0,0,4,
6:50.2,147694,t,0,0,4,
6:50.3,147715,),0,0,2,
6:50.5,147814,(,0,0,1,
6:50.6,147831,N,0,0,0,
6:50.6,147842,),0,0,1,
6:50.8,147922,(,0,0,2,
6:51.0,147960,t,0,0,0,
6:51.1,147998,),0,0,2,
6:51.3,148077,(,0,0,1,
6:51.3,148098,N,0,0,0,
6:51.4,148109,),0,0,1,
6:51.6,148191,(,0,0,2,
6:51.7,148219,t,0,0,0,
6:51.8,148261,),0,0,2,
6:52.0,148341,(,0,0,1,
6:52.1,148363,N,0,0,0,
6:52.1,148375,),0,0,1,
6:52.3,148433,(,0,0,2,
6:52.3,148454,t,0,0,4,
6:52.4,148483,t,0,0,4,
6:52.5,148511,),0,0,2,
6:52.8,148618,(,0,0,1,
6:52.8,148636,N,0,0,0,
6:52.9,148650,),0,0,1,
6:53.0,148712,(,0,0,2,
6:53.1,148731,t,0,0,4,
6:53.2,148769,t,0,0,4,
6:53.3,148813,),0,0,2,
6:53.5,148895,(,0,0,1,
6:53.6,148915,N,0,0,0,
6:53.6,148927,),0,0,1,
6:53.8,149000,(,0,0,2,
6:53.9,149012,t,0,0,4,
6:54.0,149046,t,0,0,4,
6:54.0,149074,),0,0,2,
6:54.3,149182,(,0,0,1,
6:54.4,149203,N,0,0,0,
6:54.4,149217,),0,0,1,
6:54.6,149287,(,0,0,2,
6:54.7,149300,t,0,0,4,
6:54.8,149344,t,0,0,4,
6:54.8,149360,),0,0,2,
6:55.1,149470,(,0,0,1,
6:55.2,149487,N,0,0,0,
6:55.2,149502,),0,0,1,
6:55.4,149566,(,0,0,2,
6:55.5,149582,t,0,0,4,
6:55.5,149615,t,0,0,4,
6:55.6,149628,),0,0,2,
6:55.9,149749,(,0,0,1,
6:56.0,149767,N,0,0,0,
6:56.0,149778,),0,0,1,
6:56.2,149839,(,0,0,2,
6:56.2,149853,t,0,0,4,
6:56.3,149891,t,0,0,4,
6:56.4,149932,),0,0,2,
6:56.6,150010,(,0,0,1,
6:56.7,150029,N,0,0,0,
6:56.7,150041,),0,0,1,
6:56.9,150104,(,0,0,2,
6:56.9,150115,t,0,0,4,
6:57.1,150157,t,0,0,4,
6:57.1,150179,),0,0,2,
6:57.4,150280,(,0,0,1,
6:57.5,150302,N,0,0,0,
6:57.5,150313,),0,0,1,
6:57.7,150376,(,0,0,2,
6:57.7,150393,t,0,0,4,
6:57.8,150421,t,0,0,4,
6:57.9,150452,),0,0,2,
6:58.2,150556,(,0,0,1,
6:58.2,150574,N,0,0,0,
6:58.3,150589,),0,0,1,
6:58.4,150654,(,0,0,2,
6:58.5,150670,t,0,0,4,
6:58.6,150701,t,0,0,4,
6:58.6,150730,),0,0,2,
6:58.9,150829,(,0,0,1,
6:59.0,150848,N,0,0,0,
6:59.0,150859,),0,0,1,
6:59.2,150926,(,0,0,2,
6:59.2,150940,t,0,0,4,
6:59.3,150979,t,0,0,4,
6:59.5,151024,),0,0,2,
6:59.7,151102,(,0,0,1,
6:59.7,151121,N,0,0,0,
6:59.8,151132,),0,0,1,
7:00.0,151202,(,0,0,2,
7:00.0,151215,t,0,0,4,
7:00.1,151248,t,0,0,4,
7:00.2,151298,),0,0,2,
7:00.5,151388,(,0,0,1,
7:00.5,151406,N,0,0,0,
7:00.6,151417,),0,0,1,
7:00.8,151491,(,0,0,2,
7:00.8,151505,t,0,0,4,
7:00.9,151539,t,0,0,4,
7:00.9,151554,),0,0,2,
7:01.3,151679,(,0,0,1,
7:01.3,151699,N,0,0,0,
7:01.4,151712,),0,0,1,
7:01.5,151774,(,0,0,2,
7:01.6,151790,t,0,0,4,
7:01.7,151840,t,0,0,4,
7:01.8,151860,),0,0,2,
7:02.0,151954,(,0,0,1,
7:02.1,151973,N,0,0,0,
7:02.1,151984,),0,0,1,
7:02.3,152048,(,0,0,2,
7:02.3,152059,t,0,0,4,
7:02.4,152092,t,0,0,4,
7:02.5,152133,),0,0,2,
7:02.8,152218,(,0,0,1,
7:02.8,152236,N,0,0,0,
7:02.9,152247,),0,0,1,
7:03.0,152309,(,0,0,2,
7:03.1,152328,t,0,0,4,
7:03.2,152359,t,0,0,4,
7:03.3,152398,),0,0,2,
7:03.5,152490,(,0,0,1,
7:03.6,152509,N,0,0,0,
7:03.6,152521,),0,0,1,
7:03.8,152584,(,0,0,2,
7:03.8,152600,t,0,0,4,
7:03.9,152633,t,0,0,4,
7:04.1,152676,),0,0,2,
7:04.3,152761,(,0,0,1,
7:04.3,152780,N,0,0,0,
7:04.4,152792,),0,0,1,
7:04.6,152863,(,0,0,2,
7:04.6,152874,t,0,0,4,
7:04.7,152913,t,0,0,4,
7:04.8,152950,),0,0,2,
7:05.9,153342,(,0,0,1,
7:06.0,153361,N,0,0,0,
7:06.0,153373,),0,0,1,
7:06.2,153443,(,0,0,2,
7:06.2,153457,t,0,0,1,
7:06.3,153482,),0,0,2,
7:06.7,153624,(,0,0,1,
7:06.7,153643,N,0,0,0,
7:06.8,153655,),0,0,1,
7:06.9,153714,(,0,0,2,
7:07.0,153733,t,0,0,4,
7:07.1,153764,t,0,0,4,
7:07.2,153806,),0,0,2,
7:08.2,154173,(,0,0,1,
7:08.3,154192,N,0,0,0,
7:08.3,154203,),0,0,1,
7:08.5,154271,(,0,0,2,
7:08.5,154287,t,0,0,4,
7:08.6,154320,t,0,0,4,
7:08.7,154345,),0,0,2,
7:09.0,154451,(,0,0,1,
7:09.0,154469,N,0,0,0,
7:09.1,154481,),0,0,1,
7:09.3,154549,(,0,0,2,
7:09.3,154566,t,0,0,1,
7:09.4,154589,),0,0,2,
7:12.1,155566,(,0,0,1,
7:12.1,155587,N,0,0,0,
7:12.2,155599,),0,0,1,
7:12.4,155668,(,0,0,2,
7:12.4,155684,t,0,0,4,
7:12.5,155726,t,0,0,4,
7:12.6,155742,),0,0,2,
7:12.9,155844,(,0,0,1,
7:12.9,155864,N,0,0,0,
7:12.9,155879,),0,0,1,
7:13.1,155949,(,0,0,2,
7:13.2,155961,t,0,0,4,
7:13.3,155993,t,0,0,4,
7:13.4,156037,),0,0,2,
7:13.6,156114,(,0,0,1,
7:13.6,156131,N,0,0,0,
7:13.7,156143,),0,0,1,
7:13.9,156211,(,0,0,2,
7:13.9,156224,t,0,0,4,
7:14.0,156260,t,0,0,4,
7:14.1,156298,),0,0,2,
7:14.3,156376,(,0,0,1,
7:14.4,156393,N,0,0,0,
7:14.4,156405,),0,0,1,
7:14.6,156464,(,0,0,2,
7:14.6,156483,t,0,0,4,
7:14.7,156522,t,0,0,4,
7:14.8,156559,),0,0,2,
7:15.0,156629,(,0,0,1,
7:15.1,156647,N,0,0,0,
7:15.1,156657,),0,0,1,
7:15.3,156720,(,0,0,2,
7:15.3,156734,t,0,0,4,
7:15.4,156767,t,0,0,4,
7:15.5,156811,),0,0,2,
7:15.7,156884,(,0,0,1,
7:15.8,156905,N,0,0,0,
7:15.8,156915,),0,0,1,
7:16.0,156978,(,0,0,2,
7:16.0,156995,t,0,0,4,
7:16.1,157030,t,0,0,4,
7:16.2,157042,),0,0,2,
7:16.5,157149,(,0,0,1,
7:16.5,157167,N,0,0,0,
7:16.6,157180,),0,0,1,
7:16.7,157239,(,0,0,2,
7:16.8,157258,t,0,0,4,
7:16.9,157313,t,0,0,4,
7:17.0,157337,),0,0,2,
7:17.2,157409,(,0,0,1,
7:17.3,157429,N,0,0,0,
7:17.3,157441,),0,0,1,
7:17.5,157506,(,0,0,2,
7:17.5,157524,t,0,0,4,
7:17.6,157558,t,0,0,4,
7:17.7,157601,),0,0,2,
7:17.9,157676,(,0,0,1,
7:18.0,157694,N,0,0,0,
7:18.0,157705,),0,0,1,
7:18.2,157772,(,0,0,2,
7:18.2,157781,t,0,0,4,
7:18.4,157827,t,0,0,4,
7:18.5,157862,),0,0,2,
7:18.7,157938,(,0,0,1,
7:18.7,157959,N,0,0,0,
7:18.8,157970,),0,0,1,
7:18.9,158031,(,0,0,2,
7:19.0,158049,t,0,0,4,
7:19.1,158088,t,0,0,4,
7:19.2,158128,),0,0,2,
7:19.4,158210,(,0,0,1,
7:19.5,158232,N,0,0,0,
7:19.5,158246,),0,0,1,
7:19.7,158301,(,0,0,2,
7:19.7,158320,t,0,0,4,
7:19.8,158360,t,0,0,4,
7:19.9,158394,),0,0,2,
7:20.1,158466,(,0,0,1,
7:20.2,158488,N,0,0,0,
7:20.2,158499,),0,0,1,
7:20.4,158559,(,0,0,2,
7:20.4,158573,t,0,0,4,
7:20.5,158610,t,0,0,4,
7:20.6,158646,),0,0,2,
7:21.5,158955,(,0,0,1,
7:21.5,158973,N,0,0,0,
7:21.6,158985,),0,0,1,
7:21.7,159043,(,0,0,2,
7:21.8,159060,t,0,0,4,
7:21.9,159101,t,0,0,4,
7:22.0,159133,),0,0,2,
7:22.2,159206,(,0,0,1,
7:22.2,159224,N,0,0,0,
7:22.3,159235,),0,0,1,
7:22.4,159290,(,0,0,2,
7:22.5,159310,t,0,0,4,
7:22.6,159347,t,0,0,4,
7:22.7,159384,),0,0,2,
7:22.9,159460,(,0,0,1,
7:22.9,159478,N,0,0,0,
7:23.0,159489,),0,0,1,
7:23.2,159553,(,0,0,2,
7:23.2,159566,t,0,0,4,
7:23.3,159607,t,0,0,4,
7:23.4,159644,),0,0,2,
7:23.6,159717,(,0,0,1,
7:23.7,159737,N,0,0,0,
7:23.7,159748,),0,0,1,
7:23.8,159796,(,0,0,2,
7:23.9,159808,t,0,0,4,
7:24.1,159879,t,0,0,4,
7:24.1,159904,),0,0,2,
7:24.3,159981,(,0,0,1,
7:24.4,160000,N,0,0,0,
7:24.4,160012,),0,0,1,
7:24.6,160072,(,0,0,2,
7:24.7,160096,t,0,0,4,
7:24.8,160133,t,0,0,4,
7:24.9,160164,),0,0,2,
7:25.1,160238,(,0,0,1,
7:25.1,160259,N,0,0,0,
7:25.1,160270,),0,0,1,
7:25.3,160333,(,0,0,2,
7:25.4,160345,t,0,0,4,
7:25.5,160384,t,0,0,4,
7:25.6,160418,),0,0,2,
7:26.4,160735,(,0,0,1,
7:26.5,160754,N,0,0,0,
7:26.5,160768,),0,0,1,
7:26.7,160829,(,0,0,2,
7:26.7,160847,t,0,0,4,
7:26.8,160880,t,0,0,4,
7:26.9,160897,),0,0,2,
7:27.1,160984,(,0,0,1,
7:27.2,161004,N,0,0,0,
7:27.2,161014,),0,0,1,
7:27.4,161075,(,0,0,2,
7:27.4,161091,t,0,0,4,
7:27.5,161132,t,0,0,4,
7:27.6,161165,),0,0,2,
7:27.8,161231,(,0,0,1,
7:27.9,161253,N,0,0,0,
7:27.9,161263,),0,0,1,
7:28.1,161318,(,0,0,2,
7:28.1,161332,t,0,0,4,
7:28.2,161375,t,0,0,4,
7:28.3,161407,),0,0,2,
7:28.5,161477,(,0,0,1,
7:28.6,161499,N,0,0,0,
7:28.6,161510,),0,0,1,
7:28.7,161548,(,0,0,2,
7:28.7,161560,t,0,0,4,
7:28.9,161626,t,0,0,4,
7:29.0,161665,),0,0,2,
7:30.0,162016,(,0,0,1,
7:30.0,162034,N,0,0,0,
7:30.1,162046,),0,0,1,
7:30.3,162115,(,0,0,2,
7:30.3,162129,t,0,0,1,
7:30.4,162156,),0,0,2,
7:30.8,162288,(,0,0,1,
7:30.8,162308,N,0,0,0,
7:30.8,162320,),0,0,1,
7:31.1,162408,(,0,0,2,
7:31.2,162442,t,0,0,0,
7:31.3,162484,),0,0,2,
7:31.5,162553,(,0,0,1,
7:31.5,162572,N,0,0,0,
7:31.6,162583,),0,0,1,
7:31.8,162664,(,0,0,2,
7:31.9,162694,t,0,0,0,
7:32.0,162740,),0,0,2,
7:32.9,163074,(,0,0,1,
7:33.0,163092,N,0,0,0,
7:33.0,163103,),0,0,1,
7:33.2,163154,(,0,0,2,
7:33.2,163178,t,0,0,4,
7:33.3,163210,t,0,0,4,
7:33.4,163237,),0,0,2,
7:33.7,163343,(,0,0,1,
7:33.7,163361,N,0,0,0,
7:33.8,163376,),0,0,1,
7:34.0,163441,(,0,0,2,
7:34.0,163452,t,0,0,4,
7:34.1,163494,t,0,0,4,
7:34.2,163531,),0,0,2,
7:34.4,163610,(,0,0,1,
7:34.5,163628,N,0,0,0,
7:34.5,163639,),0,0,1,
7:34.7,163720,(,0,0,2,
7:34.8,163760,t,0,0,0,
7:35.0,163804,),0,0,2,
7:35.2,163881,(,0,0,1,
7:35.2,163898,N,0,0,0,
7:35.3,163909,),0,0,1,
7:35.4,163974,(,0,0,2,
7:35.5,163991,t,0,0,4,
7:35.6,164034,t,0,0,4,
7:35.6,164050,),0,0,2,
7:36.0,164163,(,0,0,1,
7:36.0,164181,N,0,0,0,
7:36.0,164195,),0,0,1,
7:36.2,164256,(,0,0,2,
7:36.3,164275,t,0,0,4,
7:36.4,164330,t,0,0,4,
7:36.5,164365,),0,0,2,
7:36.7,164443,(,0,0,1,
7:36.8,164460,N,0,0,0,
7:36.8,164471,),0,0,1,
7:37.0,164524,(,0,0,2,
7:37.0,164549,t,0,0,4,
7:37.1,164585,t,0,0,4,
7:37.3,164631,),0,0,2,
7:37.5,164711,(,0,0,1,
7:37.5,164730,N,0,0,0,
7:37.6,164741,),0,0,1,
7:37.8,164820,(,0,0,2,
7:37.9,164846,t,0,0,0,
7:38.0,164887,),0,0,2,
7:38.9,165227,(,0,0,1,
7:39.0,165245,N,0,0,0,
7:39.0,165256,),0,0,1,
7:39.2,165335,(,0,0,2,
7:39.3,165369,t,0,0,0,
7:39.4,165411,),0,0,2,
7:41.1,166010,(,0,0,1,
7:41.1,166031,N,0,0,0,
7:41.2,166043,),0,0,1,
7:41.4,166109,(,0,0,2,
7:41.4,166120,t,0,0,4,
7:41.5,166168,t,0,0,4,
7:41.6,166203,),0,0,2,
7:41.8,166280,(,0,0,1,
7:41.9,166300,N,0,0,0,
7:41.9,166312,),0,0,1,
7:42.1,166377,(,0,0,2,
7:42.1,166387,t,0,0,4,
7:42.2,166427,t,0,0,4,
7:42.3,166459,),0,0,2,
7:47.9,168464,(,0,0,1,
7:48.0,168483,N,0,0,0,
7:48.0,168497,),0,0,1,
7:48.3,168589,(,0,0,2,
7:48.3,168620,t,0,0,0,
7:48.5,168666,),0,0,2,
7:48.7,168762,(,0,0,1,
7:48.8,168783,N,0,0,0,
7:48.8,168797,),0,0,1,
7:49.1,168878,(,0,0,2,
7:49.2,168915,t,0,0,0,
7:49.3,168948,),0,0,2,
7:51.9,169885,(,0,0,1,
7:51.9,169906,N,0,0,0,
7:52.0,169920,),0,0,1,
7:52.1,169984,(,0,0,2,
7:52.2,169998,t,0,0,4,
7:52.3,170036,t,0,0,4,
7:52.4,170064,),0,0,2,
7:55.9,171351,(,0,0,1,
7:56.0,171371,N,0,0,0,
7:56.0,171383,),0,0,1,
7:56.2,171439,(,0,0,2,
7:56.2,171453,t,0,0,4,
7:56.3,171486,t,0,0,4,
7:56.4,171524,),0,0,2,
7:57.5,171902,(,0,0,1,
7:57.5,171920,N,0,0,0,
7:57.5,171931,),0,0,1,
7:57.7,171986,(,0,0,2,
7:57.8,172009,t,0,0,4,
7:57.8,172040,t,0,0,4,
7:57.9,172074,),0,0,2,
7:59.0,172461,(,0,0,1,
7:59.1,172480,N,0,0,0,
7:59.1,172495,),0,0,1,
7:59.3,172583,(,0,0,2,
7:59.4,172607,t,0,0,0,
7:59.5,172646,),0,0,2,
8:01.4,173330,(,0,0,1,
8:01.5,173351,N,0,0,0,
8:01.5,173362,),0,0,1,
8:01.7,173415,(,0,0,2,
8:01.7,173436,t,0,0,4,
8:01.9,173490,t,0,0,4,
8:01.9,173508,),0,0,2,
8:02.2,173608,(,0,0,1,
8:02.3,173628,N,0,0,0,
8:02.3,173642,),0,0,1,
8:02.5,173710,(,0,0,2,
8:02.5,173720,t,0,0,4,
8:02.6,173750,t,0,0,4,
8:02.7,173799,),0,0,2,
8:04.5,174432,(,0,0,1,
8:04.5,174450,N,0,0,0,
8:04.6,174463,),0,0,1,
8:04.8,174533,(,0,0,2,
8:04.8,174543,t,0,0,4,
8:04.9,174572,t,0,0,4,
8:05.0,174608,),0,0,2,
8:09.2,176125,(,0,0,1,
8:09.2,176144,N,0,0,0,
8:09.3,176156,),0,0,1,
8:09.4,176216,(,0,0,2,
8:09.5,176237,t,0,0,4,
8:09.6,176278,t,0,0,4,
8:09.7,176299,),0,0,2,
8:10.0,176407,(,0,0,1,
8:10.0,176426,N,0,0,0,
8:10.1,176438,),0,0,1,
8:10.2,176504,(,0,0,2,
8:10.3,176519,t,0,0,4,
8:10.4,176548,t,0,0,4,
8:10.5,176587,),0,0,2,
8:10.7,176677,(,0,0,1,
8:10.8,176697,N,0,0,0,
8:10.8,176713,),0,0,1,
8:11.0,176785,(,0,0,2,
8:11.0,176795,t,0,0,4,
8:11.2,176839,t,0,0,4,
8:11.2,176861,),0,0,2,
8:11.5,176953,(,0,0,1,
8:11.5,176974,N,0,0,0,
8:11.6,176986,),0,0,1,
8:11.8,177056,(,0,0,2,
8:11.8,177069,t,0,0,4,
8:11.9,177098,t,0,0,4,
8:12.0,177126,),0,0,2,
8:12.3,177228,(,0,0,1,
8:12.3,177247,N,0,0,0,
8:12.3,177260,),0,0,1,
8:12.5,177325,(,0,0,2,
8:12.6,177342,t,0,0,4,
8:12.7,177378,t,0,0,4,
8:12.7,177394,),0,0,2,
8:13.0,177504,(,0,0,1,
8:13.1,177522,N,0,0,0,
8:13.1,177532,),0,0,1,
8:13.3,177595,(,0,0,2,
8:13.3,177611,t,0,0,4,
8:13.4,177649,t,0,0,4,
8:13.5,177684,),0,0,2,
8:13.8,177775,(,0,0,1,
8:13.8,177796,N,0,0,0,
8:13.9,177807,),0,0,1,
8:14.1,177891,(,0,0,2,
8:14.2,177934,t,0,0,0,
8:14.3,177964,),0,0,2,
8:14.5,178040,(,0,0,1,
8:14.6,178058,N,0,0,0,
8:14.6,178073,),0,0,1,
8:14.8,178134,(,0,0,2,
8:14.8,178149,t,0,0,4,
8:14.9,178188,t,0,0,4,
8:15.0,178211,),0,0,2,
8:15.2,178297,(,0,0,1,
8:15.3,178315,N,0,0,0,
8:15.3,178326,),0,0,1,
8:15.5,178387,(,0,0,2,
8:15.5,178405,t,0,0,4,
8:15.7,178453,t,0,0,4,
8:15.7,178479,),0,0,2,
8:15.9,178554,(,0,0,1,
8:16.0,178577,N,0,0,0,
8:16.0,178587,),0,0,1,
8:16.2,178633,(,0,0,2,
8:16.2,178662,t,0,0,4,
8:16.4,178709,t,0,0,4,
8:16.4,178739,),0,0,2,
8:16.7,178821,(,0,0,1,
8:16.7,178840,N,0,0,0,
8:16.8,178851,),0,0,1,
8:17.0,178922,(,0,0,2,
8:17.0,178933,t,0,0,4,
8:17.1,178971,t,0,0,4,
8:17.2,178997,),0,0,2,
8:18.2,179367,(,0,0,1,
8:18.2,179387,N,0,0,0,
8:18.3,179398,),0,0,1,
8:18.5,179460,(,0,0,2,
8:18.5,179481,t,0,0,4,
8:18.6,179522,t,0,0,4,
8:18.7,179555,),0,0,2,
8:19.0,179641,(,0,0,1,
8:19.0,179661,N,0,0,0,
8:19.0,179672,),0,0,1,
8:19.2,179735,(,0,0,2,
8:19.3,179749,t,0,0,4,
8:19.4,179787,t,0,0,4,
8:19.4,179808,),0,0,2,
8:21.1,180422,(,0,0,1,
8:21.2,180443,N,0,0,0,
8:21.2,180454,),0,0,1,
8:21.4,180511,(,0,0,2,
8:21.4,180532,t,0,0,4,
8:21.5,180572,t,0,0,4,
8:21.6,180600,),0,0,2,
8:21.9,180685,(,0,0,1,
8:21.9,180704,N,0,0,0,
8:21.9,180715,),0,0,1,
8:22.1,180777,(,0,0,2,
8:22.1,180788,t,0,0,4,
8:22.2,180825,t,0,0,4,
8:22.3,180863,),0,0,2,
8:24.1,181502,(,0,0,1,
8:24.2,181522,N,0,0,0,
8:24.2,181535,),0,0,1,
8:24.4,181590,(,0,0,2,
8:24.4,181619,t,0,0,4,
8:24.6,181666,t,0,0,4,
8:24.7,181709,),0,0,2,
8:24.9,181791,(,0,0,1,
8:25.0,181810,N,0,0,0,
8:25.0,181821,),0,0,1,
8:25.2,181877,(,0,0,2,
8:25.2,181901,t,0,0,4,
8:25.4,181955,t,0,0,4,
8:25.4,181979,),0,0,2,
8:26.4,182333,(,0,0,1,
8:26.5,182353,N,0,0,0,
8:26.5,182366,),0,0,1,
8:26.7,182421,(,0,0,2,
8:26.7,182438,t,0,0,4,
8:26.8,182479,t,0,0,4,
8:26.9,182511,),0,0,2,
8:27.2,182604,(,0,0,1,
8:27.2,182623,N,0,0,0,
8:27.3,182637,),0,0,1,
8:27.4,182689,(,0,0,2,
8:27.5,182710,t,0,0,4,
8:27.6,182754,t,0,0,4,
8:27.7,182776,),0,0,2,
8:27.9,182875,(,0,0,1,
8:28.0,182895,N,0,0,0,
8:28.0,182908,),0,0,1,
8:28.1,182940,(,0,0,2,
8:28.1,182950,t,0,0,4,
8:28.3,183017,t,0,0,4,
8:28.5,183060,),0,0,2,
8:30.4,183756,(,0,0,1,
8:30.4,183778,N,0,0,0,
8:30.5,183790,),0,0,1,
8:30.6,183851,(,0,0,2,
8:30.7,183869,t,0,0,4,
8:30.8,183923,t,0,0,4,
8:30.9,183942,),0,0,2,
8:31.2,184049,(,0,0,1,
8:31.3,184071,N,0,0,0,
8:31.3,184082,),0,0,1,
8:31.4,184105,(,0,0,2,
8:31.4,184117,t,0,0,4,
8:31.6,184194,t,0,0,4,
8:31.7,184246,),0,0,2,
8:32.0,184341,(,0,0,1,
8:32.1,184360,N,0,0,0,
8:32.1,184373,),0,0,1,
8:32.3,184435,(,0,0,2,
8:32.3,184446,t,0,0,4,
8:32.4,184484,t,0,0,4,
8:32.5,184502,),0,0,2,
8:36.9,186117,(,0,0,1,
8:37.0,186136,N,0,0,0,
8:37.0,186149,),0,0,1,
8:37.2,186214,(,0,0,2,
8:37.3,186229,t,0,0,4,
8:37.4,186266,t,0,0,4,
8:37.4,186288,),0,0,2,
8:40.9,187556,(,0,0,1,
8:41.0,187576,N,0,0,0,
8:41.0,187588,),0,0,1,
8:41.2,187662,(,0,0,2,
8:41.3,187671,t,0,0,4,
8:41.4,187712,t,0,0,4,
8:41.4,187735,),0,0,2,
8:42.6,188158,(,0,0,1,
8:42.7,188178,N,0,0,0,
8:42.7,188193,),0,0,1,
8:42.9,188266,(,0,0,2,
8:42.9,188275,t,0,0,4,
8:43.0,188315,t,0,0,4,
8:43.1,188333,),0,0,2,
8:45.0,189023,(,0,0,1,
8:45.1,189042,N,0,0,0,
8:45.1,189053,),0,0,1,
8:45.2,189075,(,0,0,2,
8:45.2,189086,t,0,0,4,
8:45.4,189161,t,0,0,4,
8:45.5,189205,),0,0,2,
8:46.6,189605,(,0,0,1,
8:46.7,189623,N,0,0,0,
8:46.7,189635,),0,0,1,
8:46.9,189699,(,0,0,2,
8:46.9,189716,t,0,0,4,
8:47.1,189779,t,0,0,4,
8:47.1,189790,),0,0,2,
8:50.0,190800,(,0,0,1,
8:50.0,190819,N,0,0,0,
8:50.0,190831,),0,0,1,
8:50.2,190894,(,0,0,2,
8:50.3,190911,t,0,0,4,
8:50.4,190953,t,0,0,4,
8:50.4,190966,),0,0,2,
8:51.5,191373,(,0,0,1,
8:51.6,191394,N,0,0,0,
8:51.6,191406,),0,0,1,
8:51.8,191471,(,0,0,2,
8:51.9,191485,t,0,0,4,
8:52.0,191521,t,0,0,4,
8:52.0,191539,),0,0,2,
8:52.3,191651,(,0,0,1,
8:52.4,191673,N,0,0,0,
8:52.4,191684,),0,0,1,
8:52.6,191751,(,0,0,2,
8:52.6,191768,t,0,0,1,
8:52.7,191791,),0,0,2,
8:53.2,191956,(,0,0,1,
8:53.2,191976,N,0,0,0,
8:53.2,191987,),0,0,1,
8:53.5,192064,(,0,0,2,
8:53.5,192077,t,0,0,4,
8:53.6,192108,t,0,0,4,
8:53.7,192148,),0,0,2,
8:58.0,193682,(,0,0,1,
8:58.0,193702,N,0,0,0,
8:58.0,193713,),0,0,1,
8:58.2,193775,(,0,0,2,
8:58.3,193794,t,0,0,4,
8:58.4,193846,t,0,0,4,
8:58.5,193861,),0,0,2,
8:58.8,193973,(,0,0,1,
8:58.8,193993,N,0,0,0,
8:58.9,194004,),0,0,1,
8:59.0,194042,(,0,0,2,
8:59.0,194051,t,0,0,4,
8:59.2,194131,t,0,0,4,
8:59.3,194149,),0,0,2,
9:00.4,194555,(,0,0,1,
9:00.4,194573,N,0,0,0,
9:00.5,194587,),0,0,1,
9:00.7,194664,(,0,0,2,
9:00.7,194678,t,0,0,4,
9:00.8,194720,t,0,0,4,
9:00.9,194736,),0,0,2,
9:01.2,194847,(,0,0,1,
9:01.2,194867,N,0,0,0,
9:01.3,194881,),0,0,1,
9:01.5,194943,(,0,0,2,
9:01.5,194961,t,0,0,4,
9:01.7,195019,t,0,0,4,
9:01.7,195035,),0,0,2,
9:02.0,195137,(,0,0,1,
9:02.0,195155,N,0,0,0,
9:02.1,195167,),0,0,1,
9:02.2,195224,(,0,0,2,
9:02.3,195238,t,0,0,4,
9:02.4,195273,t,0,0,4,
9:02.4,195299,),0,0,2,
9:02.7,195405,(,0,0,1,
9:02.8,195425,N,0,0,0,
9:02.8,195437,),0,0,1,
9:03.0,195496,(,0,0,2,
9:03.0,195508,t,0,0,4,
9:03.1,195547,t,0,0,4,
9:03.2,195583,),0,0,2,
9:04.3,195960,(,0,0,1,
9:04.3,195977,N,0,0,0,
9:04.4,195989,),0,0,1,
9:04.5,196046,(,0,0,2,
9:04.6,196066,t,0,0,4,
9:04.7,196101,t,0,0,4,
9:04.8,196143,),0,0,2,
9:05.1,196248,(,0,0,1,
9:05.1,196268,N,0,0,0,
9:05.2,196279,),0,0,1,
9:05.4,196370,(,0,0,2,
9:05.5,196401,t,0,0,0,
9:05.6,196442,),0,0,2,
9:06.7,196823,(,0,0,1,
9:06.7,196846,N,0,0,0,
9:06.8,196858,),0,0,1,
9:06.9,196918,(,0,0,2,
9:07.0,196938,t,0,0,4,
9:07.1,196975,t,0,0,4,
9:07.2,197019,),0,0,2,
9:07.5,197110,(,0,0,1,
9:07.5,197131,N,0,0,0,
9:07.6,197142,),0,0,1,
9:07.7,197200,(,0,0,2,
9:07.8,197223,t,0,0,4,
9:07.9,197260,t,0,0,4,
9:08.0,197301,),0,0,2,
9:08.3,197395,(,0,0,1,
9:08.3,197413,N,0,0,0,
9:08.4,197425,),0,0,1,
9:08.5,197491,(,0,0,2,
9:08.6,197501,t,0,0,4,
9:08.7,197532,t,0,0,4,
9:08.8,197573,),0,0,2,
9:09.8,197928,(,0,0,1,
9:09.8,197948,N,0,0,0,
9:09.8,197959,),0,0,1,
9:10.0,198023,(,0,0,2,
9:10.1,198037,t,0,0,4,
9:10.2,198087,t,0,0,4,
9:10.2,198107,),0,0,2,
9:10.5,198204,(,0,0,1,
9:10.6,198223,N,0,0,0,
9:10.6,198236,),0,0,1,
9:10.8,198297,(,0,0,2,
9:10.8,198315,t,0,0,4,
9:10.9,198351,t,0,0,4,
9:11.0,198386,),0,0,2,
9:11.9,198706,(,0,0,0,
9:12.0,198726,p,0,0,0,
9:12.0,198747,),0,0,0,
9:12.1,198772,(,0,0,1,
9:12.1,198791,N,0,0,0,
9:12.2,198798,),0,0,1,
9:12.4,198881,(,0,0,2,
9:12.4,198891,t,0,0,4,
9:12.5,198928,t,0,0,4,
9:12.6,198968,),0,0,2,
9:12.7,198992,(,0,0,0,
9:12.8,199009,p,0,0,0,
9:12.8,199032,),0,0,0,
9:12.9,199056,(,0,0,1,
9:12.9,199074,N,0,0,0,
9:13.0,199081,),0,0,1,
9:13.2,199155,(,0,0,2,
9:13.2,199169,t,0,0,1,
9:13.3,199196,),0,0,2,
9:13.5,199274,(,0,0,0,
9:13.6,199296,p,0,0,0,
9:13.6,199317,),0,0,0,
9:13.7,199333,(,0,0,1,
9:13.7,199352,N,0,0,0,
9:13.7,199359,),0,0,1,
9:13.8,199383,(,0,0,2,
9:13.8,199398,t,0,0,4,
9:14.0,199469,t,0,0,4,
9:14.1,199499,),0,0,2,
9:14.2,199541,(,0,0,0,
9:14.3,199557,p,0,0,0,
9:14.3,199580,),0,0,0,
9:14.4,199600,(,0,0,1,
9:14.4,199618,N,0,0,0,
9:14.5,199624,),0,0,1,
9:14.6,199691,(,0,0,2,
9:14.7,199703,t,0,0,4,
9:14.8,199744,t,0,0,4,
9:14.8,199760,),0,0,2,
9:15.0,199810,(,0,0,0,
9:15.0,199831,p,0,0,0,
9:15.1,199855,),0,0,0,
9:15.2,199874,(,0,0,1,
9:15.2,199893,N,0,0,0,
9:15.2,199902,),0,0,1,
9:15.4,199975,(,0,0,2,
9:15.5,199988,t,0,0,4,
9:15.6,200031,t,0,0,4,
9:15.7,200057,),0,0,2,
9:15.7,200077,(,0,0,0,
9:15.8,200097,p,0,0,0,
9:15.8,200122,),0,0,0,
9:15.9,200140,(,0,0,1,
9:16.0,200161,N,0,0,0,
9:16.0,200169,),0,0,1,
9:16.1,200223,(,0,0,2,
9:16.2,200249,t,0,0,4,
9:16.3,200292,t,0,0,4,
9:16.4,200326,),0,0,2,
9:16.5,200355,(,0,0,0,
9:16.5,200371,p,0,0,0,
9:16.6,200397,),0,0,0,
9:16.7,200413,(,0,0,1,
9:16.7,200433,N,0,0,0,
9:16.7,200441,),0,0,1,
9:17.0,200534,(,0,0,2,
9:17.1,200569,t,0,0,0,
9:17.2,200609,),0,0,2,
9:17.3,200628,(,0,0,0,
9:17.3,200653,p,0,0,0,
9:17.4,200669,),0,0,0,
9:17.4,200691,(,0,0,1,
9:17.5,200713,N,0,0,0,
9:17.5,200721,),0,0,1,
9:17.7,200791,(,0,0,2,
9:17.7,200807,t,0,0,4,
9:17.9,200846,t,0,0,4,
9:17.9,200861,),0,0,2,
9:18.0,200908,(,0,0,0,
9:18.1,200931,p,0,0,0,
9:18.2,200953,),0,0,0,
9:18.2,200972,(,0,0,1,
9:18.3,200992,N,0,0,0,
9:18.3,200999,),0,0,1,
9:18.5,201073,(,0,0,2,
9:18.5,201087,t,0,0,4,
9:18.7,201134,t,0,0,4,
9:18.7,201159,),0,0,2,
9:18.8,201184,(,0,0,0,
9:18.9,201216,p,0,0,0,
9:18.9,201233,),0,0,0,
9:19.0,201251,(,0,0,1,
9:19.0,201270,N,0,0,0,
9:19.1,201278,),0,0,1,
9:19.2,201344,(,0,0,2,
9:19.3,201367,t,0,0,4,
9:19.5,201421,t,0,0,4,
9:19.5,201437,),0,0,2,
9:19.6,201459,(,0,0,0,
9:19.6,201489,p,0,0,0,
9:19.7,201506,),0,0,0,
9:19.7,201525,(,0,0,1,
9:19.8,201544,N,0,0,0,
9:19.8,201551,),0,0,1,
9:20.0,201623,(,0,0,2,
9:20.0,201633,t,0,0,4,
9:20.1,201670,t,0,0,4,
9:20.3,201709,),0,0,2,
9:20.3,201722,(,0,0,0,
9:20.4,201750,p,0,0,0,
9:20.4,201765,),0,0,0,
9:20.5,201787,(,0,0,1,
9:20.5,201805,N,0,0,0,
9:20.5,201812,),0,0,1,
9:20.7,201881,(,0,0,2,
9:20.8,201893,t,0,0,4,
9:20.9,201928,t,0,0,4,
9:21.0,201967,),0,0,2,
9:21.0,201989,(,0,0,0,
9:21.1,202010,p,0,0,0,
9:21.1,202026,),0,0,0,
9:21.2,202049,(,0,0,1,
9:21.2,202066,N,0,0,0,
9:21.3,202072,),0,0,1,
9:21.5,202143,(,0,0,2,
9:21.5,202156,t,0,0,4,
9:21.6,202199,t,0,0,4,
9:21.7,202234,),0,0,2,
9:21.8,202257,(,0,0,0,
9:21.8,202280,p,0,0,0,
9:21.9,202300,),0,0,0,
9:22.0,202320,(,0,0,1,
9:22.0,202338,N,0,0,0,
9:22.0,202345,),0,0,1,
9:22.2,202414,(,0,0,2,
9:22.3,202430,t,0,0,4,
9:22.3,202463,t,0,0,4,
9:22.5,202504,),0,0,2,
9:22.5,202527,(,0,0,0,
9:22.6,202555,p,0,0,0,
9:22.6,202571,),0,0,0,
9:22.7,202590,(,0,0,1,
9:22.8,202613,N,0,0,0,
9:22.8,202621,),0,0,1,
9:23.0,202686,(,0,0,2,
9:23.0,202700,t,0,0,4,
9:23.1,202743,t,0,0,4,
9:23.2,202781,),0,0,2,
9:23.3,202809,(,0,0,0,
9:23.4,202835,p,0,0,0,
9:23.4,202853,),0,0,0,
9:23.5,202875,(,0,0,1,
9:23.5,202895,N,0,0,0,
9:23.6,202902,),0,0,1,
9:23.8,202970,(,0,0,2,
9:23.8,202983,t,0,0,4,
9:23.9,203023,t,0,0,4,
9:24.0,203071,),0,0,2,
9:24.1,203095,(,0,0,0,
9:24.2,203115,p,0,0,0,
9:24.2,203139,),0,0,0,
9:24.3,203163,(,0,0,1,
9:24.3,203181,N,0,0,0,
9:24.4,203189,),0,0,1,
9:24.6,203258,(,0,0,2,
9:24.6,203272,t,0,0,4,
9:24.7,203313,t,0,0,4,
9:24.8,203348,),0,0,2,
9:24.9,203382,(,0,0,0,
9:25.0,203408,p,0,0,0,
9:25.0,203425,),0,0,0,
9:25.1,203449,(,0,0,1,
9:25.1,203467,N,0,0,0,
9:25.2,203474,),0,0,1,
9:25.4,203567,(,0,0,2,
9:25.5,203588,t,0,0,0,
9:25.6,203625,),0,0,2,
9:25.7,203656,(,0,0,0,
9:25.7,203682,p,0,0,0,
9:25.8,203699,),0,0,0,
9:25.8,203721,(,0,0,1,
9:25.9,203740,N,0,0,0,
9:25.9,203747,),0,0,1,
9:26.2,203839,(,0,0,2,
9:26.2,203865,t,0,0,0,
9:26.4,203907,),0,0,2,
9:26.4,203937,(,0,0,0,
9:26.5,203961,p,0,0,0,
9:26.6,203979,),0,0,0,
9:26.6,204002,(,0,0,1,
9:26.7,204020,N,0,0,0,
9:26.7,204028,),0,0,1,
9:26.8,204054,(,0,0,2,
9:26.8,204069,t,0,0,4,
9:27.0,204143,t,0,0,4,
9:27.1,204185,),0,0,2,
9:27.2,204221,(,0,0,0,
9:27.3,204241,p,0,0,0,
9:27.3,204258,),0,0,0,
9:27.4,204281,(,0,0,1,
9:27.4,204298,N,0,0,0,
9:27.5,204305,),0,0,1,
9:27.6,204371,(,0,0,2,
9:27.7,204388,t,0,0,4,
9:27.8,204421,t,0,0,4,
9:27.9,204460,),0,0,2,
9:28.0,204493,(,0,0,0,
9:28.1,204518,p,0,0,0,
9:28.1,204535,),0,0,0,
9:28.2,204552,(,0,0,1,
9:28.2,204573,N,0,0,0,
9:28.2,204582,),0,0,1,
9:28.4,204641,(,0,0,2,
9:28.4,204651,t,0,0,4,
9:28.6,204701,t,0,0,4,
9:28.7,204736,),0,0,2,
9:28.7,204767,(,0,0,0,
9:28.8,204794,p,0,0,0,
9:28.9,204810,),0,0,0,
9:28.9,204834,(,0,0,1,
9:29.0,204853,N,0,0,0,
9:29.0,204860,),0,0,1,
9:29.3,204952,(,0,0,2,
9:29.3,204983,t,0,0,0,
9:29.5,205028,),0,0,2,
9:29.6,205071,(,0,0,0,
9:29.7,205094,p,0,0,0,
9:29.7,205114,),0,0,0,
9:29.8,205138,(,0,0,1,
9:29.8,205157,N,0,0,0,
9:29.9,205165,),0,0,1,
9:30.0,205204,(,0,0,2,
9:30.0,205217,t,0,0,4,
9:30.2,205299,t,0,0,4,
9:30.3,205327,),0,0,2,
9:30.4,205370,(,0,0,0,
9:30.5,205395,p,0,0,0,
9:30.5,205412,),0,0,0,
9:30.6,205433,(,0,0,1,
9:30.7,205458,N,0,0,0,
9:30.7,205465,),0,0,1,
9:30.9,205535,(,0,0,2,
9:30.9,205549,t,0,0,4,
9:31.0,205587,t,0,0,4,
9:31.1,205628,),0,0,2,
9:31.2,205655,(,0,0,0,
9:31.3,205677,p,0,0,0,
9:31.3,205696,),0,0,0,
9:31.4,205719,(,0,0,1,
9:31.4,205736,N,0,0,0,
9:31.5,205743,),0,0,1,
9:31.7,205834,(,0,0,2,
9:31.8,205860,t,0,0,0,
9:31.9,205905,),0,0,2,
9:32.0,205932,(,0,0,0,
9:32.1,205958,p,0,0,0,
9:32.1,205979,),0,0,0,
9:32.2,205997,(,0,0,1,
9:32.2,206015,N,0,0,0,
9:32.2,206024,),0,0,1,
9:32.4,206084,(,0,0,2,
9:32.5,206101,t,0,0,4,
9:32.6,206156,t,0,0,4,
9:32.7,206190,),0,0,2,
9:32.8,206210,(,0,0,0,
9:32.8,206232,p,0,0,0,
9:32.9,206249,),0,0,0,
9:32.9,206269,(,0,0,1,
9:33.0,206287,N,0,0,0,
9:33.0,206294,),0,0,1,
9:33.2,206362,(,0,0,2,
9:33.2,206376,t,0,0,4,
9:33.4,206436,t,0,0,4,
9:33.4,206452,),0,0,2,
9:33.5,206486,(,0,0,0,
9:33.6,206514,p,0,0,0,
9:33.6,206529,),0,0,0,
9:33.7,206548,(,0,0,1,
9:33.7,206566,N,0,0,0,
9:33.8,206573,),0,0,1,
9:34.0,206649,(,0,0,2,
9:34.0,206661,t,0,0,4,
9:34.1,206697,t,0,0,4,
9:34.2,206737,),0,0,2,
9:34.3,206762,(,0,0,0,
9:34.4,206787,p,0,0,0,
9:34.4,206804,),0,0,0,
9:34.5,206824,(,0,0,1,
9:34.5,206843,N,0,0,0,
9:34.5,206851,),0,0,1,
9:34.7,206907,(,0,0,2,
9:34.7,206916,t,0,0,4,
9:34.9,206966,t,0,0,4,
9:35.0,207021,),0,0,2,
9:35.1,207042,(,0,0,0,
9:35.1,207069,p,0,0,0,
9:35.2,207085,),0,0,0,
9:35.3,207110,(,0,0,1,
9:35.3,207128,N,0,0,0,
9:35.3,207135,),0,0,1,
9:35.5,207181,(,0,0,2,
9:35.5,207193,t,0,0,4,
9:35.7,207259,t,0,0,4,
9:35.7,207275,),0,0,2,
9:35.9,207331,(,0,0,0,
9:35.9,207359,p,0,0,0,
9:36.0,207375,),0,0,0,
9:36.1,207400,(,0,0,1,
9:36.1,207420,N,0,0,0,
9:36.1,207427,),0,0,1,
9:36.3,207499,(,0,0,2,
9:36.4,207513,t,0,0,4,
9:36.5,207573,t,0,0,4,
9:36.6,207587,),0,0,2,
9:36.7,207638,(,0,0,0,
9:36.8,207657,p,0,0,0,
9:36.8,207681,),0,0,0,
9:36.9,207701,(,0,0,1,
9:37.0,207723,N,0,0,0,
9:37.0,207731,),0,0,1,
9:37.2,207804,(,0,0,2,
9:37.2,207817,t,0,0,4,
9:37.3,207856,t,0,0,4,
9:37.4,207896,),0,0,2,
9:37.5,207923,(,0,0,0,
9:37.6,207947,p,0,0,0,
9:37.6,207966,),0,0,0,
9:37.7,207985,(,0,0,1,
9:37.7,208003,N,0,0,0,
9:37.8,208011,),0,0,1,
9:37.9,208074,(,0,0,2,
9:38.0,208092,t,0,0,4,
9:38.1,208142,t,0,0,4,
9:38.2,208163,),0,0,2,
9:38.3,208198,(,0,0,0,
9:38.3,208222,p,0,0,0,
9:38.4,208239,),0,0,0,
9:38.4,208256,(,0,0,1,
9:38.5,208276,N,0,0,0,
9:38.5,208283,),0,0,1,
9:38.8,208368,(,0,0,2,
9:38.8,208398,t,0,0,0,
9:38.9,208436,),0,0,2,
9:39.0,208469,(,0,0,0,
9:39.1,208492,p,0,0,0,
9:39.1,208507,),0,0,0,
9:39.2,208529,(,0,0,1,
9:39.2,208547,N,0,0,0,
9:39.3,208554,),0,0,1,
9:39.5,208622,(,0,0,2,
9:39.5,208639,t,0,0,4,
9:39.6,208688,t,0,0,4,
9:39.7,208710,),0,0,2,
9:39.8,208742,(,0,0,0,
9:39.9,208766,p,0,0,0,
9:39.9,208781,),0,0,0,
9:40.0,208803,(,0,0,1,
9:40.0,208821,N,0,0,0,
9:40.0,208828,),0,0,1,
9:40.2,208880,(,0,0,2,
9:40.3,208910,t,0,0,1,
9:40.3,208938,),0,0,2,
9:40.5,209013,(,0,0,0,
9:40.6,209041,p,0,0,0,
9:40.7,209056,),0,0,0,
9:40.7,209076,(,0,0,1,
9:40.8,209099,N,0,0,0,
9:40.8,209106,),0,0,1,
9:41.0,209182,(,0,0,2,
9:41.0,209191,t,0,0,4,
9:41.1,209221,t,0,0,4,
9:41.2,209265,),0,0,2,
9:41.4,209305,(,0,0,0,
9:41.4,209330,p,0,0,0,
9:41.5,209348,),0,0,0,
9:41.5,209373,(,0,0,1,
9:41.6,209391,N,0,0,0,
9:41.6,209399,),0,0,1,
9:41.8,209471,(,0,0,2,
9:41.8,209481,t,0,0,4,
9:42.0,209529,t,0,0,4,
9:42.0,209552,),0,0,2,
9:42.2,209603,(,0,0,0,
9:42.2,209622,p,0,0,0,
9:42.3,209639,),0,0,0,
9:42.3,209663,(,0,0,1,
9:42.4,209682,N,0,0,0,
9:42.4,209691,),0,0,1,
9:42.6,209761,(,0,0,2,
9:42.7,209779,t,0,0,4,
9:42.8,209812,t,0,0,4,
9:42.9,209849,),0,0,2,
9:43.0,209885,(,0,0,0,
9:43.0,209914,p,0,0,0,
9:43.1,209932,),0,0,0,
9:43.2,209953,(,0,0,1,
9:43.2,209972,N,0,0,0,
9:43.2,209979,),0,0,1,
9:43.4,210051,(,0,0,2,
9:43.5,210063,t,0,0,4,
9:43.6,210106,t,0,0,4,
9:43.7,210146,),0,0,2,
9:43.8,210174,(,0,0,0,
9:43.8,210197,p,0,0,0,
9:43.9,210216,),0,0,0,
9:43.9,210234,(,0,0,1,
9:44.0,210255,N,0,0,0,
9:44.0,210262,),0,0,1,
9:44.1,210298,(,0,0,2,
9:44.1,210308,t,0,0,4,
9:44.4,210387,t,0,0,4,
9:44.4,210411,),0,0,2,
9:44.5,210455,(,0,0,0,
9:44.6,210477,p,0,0,0,
9:44.7,210493,),0,0,0,
9:44.7,210512,(,0,0,1,
9:44.8,210533,N,0,0,0,
9:44.8,210539,),0,0,1,
9:45.0,210609,(,0,0,2,
9:45.0,210622,t,0,0,4,
9:45.1,210665,t,0,0,4,
9:45.2,210704,),0,0,2,
9:45.3,210731,(,0,0,0,
9:45.4,210753,p,0,0,0,
9:45.4,210770,),0,0,0,
9:45.5,210790,(,0,0,1,
9:45.5,210808,N,0,0,0,
9:45.5,210815,),0,0,1,
9:45.7,210880,(,0,0,2,
9:45.8,210897,t,0,0,4,
9:45.9,210933,t,0,0,4,
9:46.0,210974,),0,0,2,
9:46.1,211005,(,0,0,0,
9:46.1,211024,p,0,0,0,
9:46.2,211045,),0,0,0,
9:46.2,211064,(,0,0,1,
9:46.3,211084,N,0,0,0,
9:46.3,211091,),0,0,1,
9:46.5,211161,(,0,0,2,
9:46.5,211173,t,0,0,4,
9:46.6,211211,t,0,0,4,
9:46.7,211229,),0,0,2,
9:46.8,211279,(,0,0,0,
9:46.9,211303,p,0,0,0,
9:47.0,211324,),0,0,0,
9:47.0,211346,(,0,0,1,
9:47.1,211363,N,0,0,0,
9:47.1,211370,),0,0,1,
9:47.3,211461,(,0,0,2,
9:47.4,211490,t,0,0,0,
9:47.5,211511,),0,0,2,
9:47.6,211564,(,0,0,0,
9:47.7,211596,p,0,0,0,
9:47.8,211611,),0,0,0,
9:47.8,211633,(,0,0,1,
9:47.9,211653,N,0,0,0,
9:47.9,211660,),0,0,1,
9:48.1,211730,(,0,0,2,
9:48.2,211752,t,0,0,4,
9:48.2,211785,t,0,0,4,
9:48.4,211835,),0,0,2,
9:50.0,212424,(,0,0,0,
9:50.1,212447,p,0,0,0,
9:50.1,212463,),0,0,0,
9:50.2,212482,(,0,0,1,
9:50.2,212501,N,0,0,0,
9:50.3,212508,),0,0,1,
9:50.4,212575,(,0,0,2,
9:50.5,212586,t,0,0,4,
9:50.6,212620,t,0,0,4,
9:50.7,212658,),0,0,2,
9:50.8,212699,(,0,0,0,
9:50.8,212720,p,0,0,0,
9:50.9,212738,),0,0,0,
9:50.9,212757,(,0,0,1,
9:51.0,212777,N,0,0,0,
9:51.0,212784,),0,0,1,
9:51.2,212850,(,0,0,2,
9:51.3,212870,t,0,0,4,
9:51.4,212904,t,0,0,4,
9:51.5,212949,),0,0,2,
9:52.3,213247,(,0,0,0,
9:52.4,213268,p,0,0,0,
9:52.4,213285,),0,0,0,
9:52.5,213306,(,0,0,1,
9:52.5,213325,N,0,0,0,
9:52.5,213332,),0,0,1,
9:52.7,213400,(,0,0,2,
9:52.8,213411,t,0,0,4,
9:52.9,213451,t,0,0,4,
9:52.9,213473,),0,0,2,
9:53.9,213804,(,0,0,0,
9:53.9,213835,p,0,0,0,
9:54.0,213851,),0,0,0,
9:54.0,213875,(,0,0,1,
9:54.1,213893,N,0,0,0,
9:54.1,213900,),0,0,1,
9:54.3,213967,(,0,0,2,
9:54.4,213988,t,0,0,4,
9:54.4,214019,t,0,0,4,
9:54.5,214030,),0,0,2,
9:55.5,214383,(,0,0,0,
9:55.5,214406,p,0,0,0,
9:55.6,214424,),0,0,0,
9:55.6,214444,(,0,0,1,
9:55.7,214464,N,0,0,0,
9:55.7,214471,),0,0,1,
9:56.0,214566,(,0,0,2,
9:56.0,214592,t,0,0,0,
9:56.1,214624,),0,0,2,
9:56.2,214662,(,0,0,0,
9:56.3,214681,p,0,0,0,
9:56.3,214698,),0,0,0,
9:56.4,214719,(,0,0,1,
9:56.4,214737,N,0,0,0,
9:56.5,214744,),0,0,1,
9:56.6,214810,(,0,0,2,
9:56.7,214821,t,0,0,4,
9:56.8,214858,t,0,0,4,
9:56.9,214898,),0,0,2,
9:59.3,215764,(,0,0,0,
9:59.4,215787,p,0,0,0,
9:59.4,215806,),0,0,0,
9:59.5,215828,(,0,0,1,
9:59.5,215849,N,0,0,0,
9:59.6,215856,),0,0,1,
9:59.7,215925,(,0,0,2,
9:59.8,215933,t,0,0,4,
9:59.9,215996,t,0,0,4,
10:00.0,216016,),0,0,2,
10:00.1,216059,(,0,0,0,
10:00.2,216081,p,0,0,0,
10:00.2,216099,),0,0,0,
10:00.3,216120,(,0,0,1,
10:00.3,216140,N,0,0,0,
10:00.4,216147,),0,0,1,
10:00.6,216224,(,0,0,2,
10:00.6,216237,t,0,0,4,
10:00.7,216273,t,0,0,4,
10:00.8,216307,),0,0,2,
10:01.7,216629,(,0,0,0,
10:01.8,216652,p,0,0,0,
10:01.8,216668,),0,0,0,
10:01.9,216691,(,0,0,1,
10:01.9,216708,N,0,0,0,
10:01.9,216717,),0,0,1,
10:02.1,216791,(,0,0,2,
10:02.2,216800,t,0,0,4,
10:02.3,216841,t,0,0,4,
10:02.4,216875,),0,0,2,
10:02.5,216905,(,0,0,0,
10:02.5,216934,p,0,0,0,
10:02.6,216950,),0,0,0,
10:02.6,216970,(,0,0,1,
10:02.7,216989,N,0,0,0,
10:02.7,216996,),0,0,1,
10:02.9,217069,(,0,0,2,
10:03.0,217081,t,0,0,4,
10:03.1,217118,t,0,0,4,
10:03.2,217165,),0,0,2,
10:03.3,217195,(,0,0,0,
10:03.3,217212,p,0,0,0,
10:03.4,217229,),0,0,0,
10:03.4,217249,(,0,0,1,
10:03.5,217267,N,0,0,0,
10:03.5,217275,),0,0,1,
10:03.7,217341,(,0,0,2,
10:03.7,217356,t,0,0,4,
10:03.8,217396,t,0,0,4,
10:03.9,217420,),0,0,2,
10:04.0,217466,(,0,0,0,
10:04.1,217494,p,0,0,0,
10:04.1,217510,),0,0,0,
10:04.2,217528,(,0,0,1,
10:04.2,217546,N,0,0,0,
10:04.3,217553,),0,0,1,
10:04.5,217623,(,0,0,2,
10:04.5,217637,t,0,0,4,
10:04.6,217678,t,0,0,4,
10:04.7,217702,),0,0,2,
10:08.0,218895,(,0,0,0,
10:08.1,218917,p,0,0,0,
10:08.1,218933,),0,0,0,
10:08.2,218954,(,0,0,1,
10:08.2,218971,N,0,0,0,
10:08.2,218978,),0,0,1,
10:08.5,219070,(,0,0,2,
10:08.6,219100,t,0,0,0,
10:08.6,219128,),0,0,2,
10:09.5,219449,(,0,0,0,
10:09.6,219474,p,0,0,0,
10:09.6,219490,),0,0,0,
10:09.7,219508,(,0,0,1,
10:09.8,219528,N,0,0,0,
10:09.8,219537,),0,0,1,
10:10.0,219603,(,0,0,2,
10:10.0,219619,t,0,0,4,
10:10.1,219656,t,0,0,4,
10:10.2,219692,),0,0,2,
10:10.3,219726,(,0,0,0,
10:10.4,219756,p,0,0,0,
10:10.4,219773,),0,0,0,
10:10.5,219791,(,0,0,1,
10:10.5,219812,N,0,0,0,
10:10.6,219819,),0,0,1,
10:10.8,219907,(,0,0,2,
10:10.9,219933,t,0,0,0,
10:11.0,219968,),0,0,2,
10:11.1,220008,(,0,0,0,
10:11.2,220038,p,0,0,0,
10:11.2,220053,),0,0,0,
10:11.3,220076,(,0,0,1,
10:11.3,220097,N,0,0,0,
10:11.4,220104,),0,0,1,
10:11.6,220196,(,0,0,2,
10:11.7,220232,t,0,0,0,
10:11.7,220247,),0,0,2,
10:12.7,220606,(,0,0,0,
10:12.8,220632,p,0,0,0,
10:12.9,220651,),0,0,0,
10:12.9,220670,(,0,0,1,
10:13.0,220690,N,0,0,0,
10:13.0,220700,),0,0,1,
10:13.2,220765,(,0,0,2,
10:13.3,220792,t,0,0,4,
10:13.4,220837,t,0,0,4,
10:13.4,220857,),0,0,2,
10:13.5,220895,(,0,0,0,
10:13.6,220921,p,0,0,0,
10:13.7,220937,),0,0,0,
10:13.7,220958,(,0,0,1,
10:13.8,220976,N,0,0,0,
10:13.8,220984,),0,0,1,
10:14.0,221074,(,0,0,2,
10:14.1,221102,t,0,0,0,
10:14.2,221133,),0,0,2,
10:15.1,221449,(,0,0,0,
10:15.1,221469,p,0,0,0,
10:15.2,221486,),0,0,0,
10:15.3,221508,(,0,0,1,
10:15.3,221526,N,0,0,0,
10:15.3,221532,),0,0,1,
10:15.5,221594,(,0,0,2,
10:15.6,221616,t,0,0,4,
10:15.7,221655,t,0,0,4,
10:15.7,221672,),0,0,2,
10:16.6,221997,(,0,0,0,
10:16.7,222022,p,0,0,0,
10:16.7,222037,),0,0,0,
10:16.8,222062,(,0,0,1,
10:16.8,222080,N,0,0,0,
10:16.9,222087,),0,0,1,
10:17.0,222125,(,0,0,2,
10:17.0,222138,t,0,0,4,
10:17.2,222210,t,0,0,4,
10:17.3,222253,),0,0,2,
10:18.2,222581,(,0,0,0,
10:18.3,222610,p,0,0,0,
10:18.4,222625,),0,0,0,
10:18.4,222647,(,0,0,1,
10:18.5,222665,N,0,0,0,
