Elapsedtime,sample,Type,Sub,Chan,Num
0:00.783,282,(,0,0,0
0:00.825,297,p,0,0,0
0:00.947,341,),0,0,0
0:01.086,391,(,0,0,1
0:01.136,409,N,0,0,0
0:01.239,446,),0,0,1
0:01.289,464,(,0,0,2
0:01.442,519,t,0,0,0
0:01.539,554,),0,0,2
0:01.892,681,(,0,0,1
0:01.933,696,N,0,0,0
0:02.056,740,),0,0,1
0:02.161,778,(,0,0,2
0:02.258,813,t,0,0,0
0:02.350,846,),0,0,2
0:02.697,971,(,0,0,1
0:02.744,988,N,0,0,0
0:02.881,1037,),0,0,1
0:02.939,1058,(,0,0,2
0:02.994,1078,t,0,0,4
0:03.094,1114,t,0,0,4
0:03.214,1157,),0,0,2
0:03.572,1286,(,0,0,1
0:03.622,1304,N,0,0,0
0:03.767,1356,),0,0,1
0:04.439,1598,(,0,0,1
0:04.481,1613,N,0,0,0
0:04.617,1662,),0,0,1
0:04.708,1695,(,0,0,2
0:04.831,1739,t,0,0,0
0:04.917,1770,),0,0,2
0:05.267,1896,(,0,0,1
0:05.303,1909,N,0,0,0
0:05.436,1957,),0,0,1
0:05.528,1990,(,0,0,2
0:05.642,2031,t,0,0,0
0:05.728,2062,),0,0,2
0:06.072,2186,(,0,0,1
0:06.111,2200,N,0,0,0
0:06.239,2246,),0,0,1
0:06.333,2280,(,0,0,2
0:06.433,2316,t,0,0,0
0:06.539,2354,),0,0,2
0:06.667,2400,(,0,0,0
0:06.750,2430,p,0,0,0
0:06.833,2460,),0,0,0
0:06.864,2471,(,0,0,1
0:06.911,2488,N,0,0,0
0:07.011,2524,),0,0,1
0:07.136,2569,(,0,0,2
0:07.236,2605,t,0,0,0
0:07.319,2635,),0,0,2
0:07.567,2724,(,0,0,0
0:07.603,2737,p,0,0,0
0:07.650,2754,),0,0,0
0:07.686,2767,(,0,0,1
0:07.722,2780,N,0,0,0
0:07.819,2815,),0,0,1
0:07.825,2817,(,0,0,2
0:07.875,2835,t,0,0,4
0:08.047,2897,t,0,0,4
0:08.144,2932,),0,0,2
0:08.467,3048,(,0,0,1
0:08.531,3071,N,0,0,0
0:08.661,3118,),0,0,1
0:08.678,3124,(,0,0,2
0:08.842,3183,t,0,0,0
0:08.939,3218,),0,0,2
0:09.303,3349,(,0,0,1
0:09.367,3372,N,0,0,0
0:09.475,3411,),0,0,1
0:09.533,3432,(,0,0,2
0:09.711,3496,t,0,0,0
0:09.819,3535,),0,0,2
0:10.211,3676,(,0,0,1
0:10.253,3691,N,0,0,0
0:10.367,3732,),0,0,1
0:10.483,3774,(,0,0,2
0:10.592,3813,t,0,0,0
0:10.719,3859,),0,0,2
0:11.056,3980,(,0,0,1
0:11.103,3997,N,0,0,0
0:11.236,4045,),0,0,1
0:11.294,4066,(,0,0,2
0:11.336,4081,t,0,0,4
0:11.431,4115,t,0,0,4
0:11.542,4155,),0,0,2
0:11.872,4274,(,0,0,1
0:11.911,4288,N,0,0,0
0:12.036,4333,),0,0,1
0:12.144,4372,(,0,0,2
0:12.231,4403,t,0,0,0
0:12.333,4440,),0,0,2
0:12.675,4563,(,0,0,1
0:12.714,4577,N,0,0,0
0:12.833,4620,),0,0,1
0:12.931,4655,(,0,0,2
0:13.025,4689,t,0,0,0
0:13.125,4725,),0,0,2
0:13.267,4776,(,0,0,0
0:13.303,4789,p,0,0,0
0:13.356,4808,),0,0,0
0:13.475,4851,(,0,0,1
0:13.511,4864,N,0,0,0
0:13.611,4900,),0,0,1
0:13.753,4951,(,0,0,2
0:13.847,4985,t,0,0,0
0:13.939,5018,),0,0,2
0:14.158,5097,(,0,0,0
0:14.214,5117,p,0,0,0
0:14.292,5145,),0,0,0
0:14.308,5151,(,0,0,1
0:14.342,5163,N,0,0,0
0:14.475,5211,),0,0,1
0:14.572,5246,(,0,0,2
0:14.656,5276,t,0,0,0
0:14.772,5318,),0,0,2
0:15.144,5452,(,0,0,1
0:15.178,5464,N,0,0,0
0:15.286,5503,),0,0,1
0:15.339,5522,(,0,0,2
0:15.514,5585,t,0,0,0
0:15.603,5617,),0,0,2
0:15.975,5751,(,0,0,1
0:16.019,5767,N,0,0,0
0:16.150,5814,),0,0,1
0:16.256,5852,(,0,0,2
0:16.372,5894,t,0,0,0
0:16.478,5932,),0,0,2
0:16.722,6020,(,0,0,0
0:16.750,6030,p,0,0,0
0:16.781,6041,),0,0,0
0:16.842,6063,(,0,0,1
0:16.897,6083,N,0,0,0
0:17.028,6130,),0,0,1
0:17.119,6163,(,0,0,2
0:17.233,6204,t,0,0,0
0:17.342,6243,),0,0,2
0:17.383,6258,(,0,0,0
0:17.394,6262,p,0,0,0
0:17.447,6281,),0,0,0
0:17.675,6363,(,0,0,1
0:17.719,6379,N,0,0,0
0:17.847,6425,),0,0,1
0:17.956,6464,(,0,0,2
0:18.050,6498,t,0,0,0
0:18.133,6528,),0,0,2
0:18.467,6648,(,0,0,1
0:18.508,6663,N,0,0,0
0:18.633,6708,),0,0,1
0:18.700,6732,(,0,0,2
0:18.744,6748,t,0,0,4
0:18.844,6784,t,0,0,4
0:18.939,6818,),0,0,2
0:19.239,6926,(,0,0,1
0:19.306,6950,N,0,0,0
0:19.428,6994,),0,0,1
0:19.497,7019,(,0,0,2
0:19.581,7049,t,0,0,0
0:19.719,7099,),0,0,2
0:20.069,7225,(,0,0,1
0:20.111,7240,N,0,0,0
0:20.244,7288,),0,0,1
0:20.350,7326,(,0,0,2
0:20.475,7371,t,0,0,0
0:20.575,7407,),0,0,2
0:20.925,7533,(,0,0,1
0:20.967,7548,N,0,0,0
0:21.103,7597,),0,0,1
0:21.217,7638,(,0,0,2
0:21.322,7676,t,0,0,0
0:21.400,7704,),0,0,2
0:21.550,7758,(,0,0,0
0:21.647,7793,p,0,0,0
0:21.722,7820,),0,0,0
0:21.783,7842,(,0,0,1
0:21.819,7855,N,0,0,0
0:21.928,7894,),0,0,1
0:22.067,7944,(,0,0,2
0:22.142,7971,t,0,0,0
0:22.244,8008,),0,0,2
0:22.472,8090,(,0,0,0
0:22.522,8108,p,0,0,0
0:22.567,8124,),0,0,0
0:22.619,8143,(,0,0,1
0:22.661,8158,N,0,0,0
0:22.822,8216,),0,0,1
0:22.906,8246,(,0,0,2
0:23.017,8286,t,0,0,0
0:23.133,8328,),0,0,2
0:23.322,8396,(,0,0,0
0:23.447,8441,p,0,0,0
0:23.481,8453,),0,0,0
0:23.503,8461,(,0,0,1
0:23.533,8472,N,0,0,0
0:23.633,8508,),0,0,1
0:23.686,8527,(,0,0,2
0:23.850,8586,t,0,0,0
0:23.956,8624,),0,0,2
0:23.986,8635,(,0,0,0
0:24.031,8651,p,0,0,0
0:24.139,8690,),0,0,0
0:24.303,8749,(,0,0,1
0:24.339,8762,N,0,0,0
0:24.456,8804,),0,0,1
0:24.542,8835,(,0,0,2
0:24.653,8875,t,0,0,0
0:24.728,8902,),0,0,2
0:25.069,9025,(,0,0,1
0:25.114,9041,N,0,0,0
0:25.239,9086,),0,0,1
0:25.353,9127,(,0,0,2
0:25.439,9158,t,0,0,0
0:25.525,9189,),0,0,2
0:25.886,9319,(,0,0,1
0:25.922,9332,N,0,0,0
0:26.044,9376,),0,0,1
0:26.131,9407,(,0,0,2
0:26.169,9421,t,0,0,1
0:26.250,9450,),0,0,2
0:26.708,9615,(,0,0,1
0:26.747,9629,N,0,0,0
0:26.881,9677,),0,0,1
0:27.003,9721,(,0,0,2
0:27.100,9756,t,0,0,0
0:27.197,9791,),0,0,2
0:27.372,9854,(,0,0,0
0:27.403,9865,p,0,0,0
0:27.433,9876,),0,0,0
0:27.572,9926,(,0,0,1
0:27.608,9939,N,0,0,0
0:27.742,9987,),0,0,1
0:27.858,10029,(,0,0,2
0:27.958,10065,t,0,0,0
0:28.033,10092,),0,0,2
0:28.122,10124,(,0,0,0
0:28.186,10147,p,0,0,0
0:28.228,10162,),0,0,0
0:28.414,10229,(,0,0,1
0:28.456,10244,N,0,0,0
0:28.589,10292,),0,0,1
0:28.694,10330,(,0,0,2
0:28.806,10370,t,0,0,0
0:28.892,10401,),0,0,2
0:29.242,10527,(,0,0,1
0:29.283,10542,N,0,0,0
0:29.417,10590,),0,0,1
0:29.550,10638,(,0,0,2
0:29.636,10669,t,0,0,0
0:29.719,10699,),0,0,2
0:29.875,10755,(,0,0,0
0:30.006,10802,p,0,0,0
0:30.036,10813,),0,0,0
0:30.056,10820,(,0,0,1
0:30.122,10844,N,0,0,0
0:30.222,10880,),0,0,1
0:30.333,10920,(,0,0,2
0:30.433,10956,t,0,0,0
0:30.528,10990,),0,0,2
0:30.758,11073,(,0,0,0
0:30.792,11085,p,0,0,0
0:30.831,11099,),0,0,0
0:30.881,11117,(,0,0,1
0:30.969,11149,N,0,0,0
0:31.014,11165,),0,0,1
0:31.156,11216,(,0,0,2
0:31.236,11245,t,0,0,0
0:31.328,11278,),0,0,2
0:31.667,11400,(,0,0,1
0:31.703,11413,N,0,0,0
0:31.803,11449,),0,0,1
0:31.822,11456,(,0,0,2
0:31.856,11468,t,0,0,4
0:32.036,11533,t,0,0,4
0:32.117,11562,),0,0,2
0:32.481,11693,(,0,0,1
0:32.525,11709,N,0,0,0
0:32.647,11753,),0,0,1
0:32.739,11786,(,0,0,2
0:32.867,11832,t,0,0,0
0:32.964,11867,),0,0,2
0:33.322,11996,(,0,0,1
0:33.381,12017,N,0,0,0
0:33.517,12066,),0,0,1
0:33.592,12093,(,0,0,2
0:33.628,12106,t,0,0,4
0:33.744,12148,t,0,0,4
0:33.864,12191,),0,0,2
0:34.206,12314,(,0,0,1
0:34.247,12329,N,0,0,0
0:34.381,12377,),0,0,1
0:34.431,12395,(,0,0,2
0:34.500,12420,t,0,0,4
0:34.614,12461,t,0,0,4
0:34.697,12491,),0,0,2
0:35.047,12617,(,0,0,1
0:35.086,12631,N,0,0,0
0:35.217,12678,),0,0,1
0:35.328,12718,(,0,0,2
0:35.442,12759,t,0,0,0
0:35.550,12798,),0,0,2
0:35.869,12913,(,0,0,1
0:35.903,12925,N,0,0,0
0:36.036,12973,),0,0,1
0:36.125,13005,(,0,0,2
0:36.244,13048,t,0,0,5
0:36.433,13116,t,0,0,5
0:36.472,13130,),0,0,2
0:36.497,13139,(,0,0,0
0:36.611,13180,p,0,0,0
0:36.664,13199,),0,0,0
0:36.686,13207,(,0,0,1
0:36.728,13222,N,0,0,0
0:36.861,13270,),0,0,1
0:36.961,13306,(,0,0,2
0:37.058,13341,t,0,0,0
0:37.142,13371,),0,0,2
0:37.397,13463,(,0,0,0
0:37.436,13477,p,0,0,0
0:37.472,13490,),0,0,0
0:37.492,13497,(,0,0,1
0:37.528,13510,N,0,0,0
0:37.622,13544,),0,0,1
0:37.628,13546,(,0,0,2
0:37.675,13563,t,0,0,4
0:37.856,13628,t,0,0,4
0:37.961,13666,),0,0,2
0:37.978,13672,(,0,0,0
0:38.025,13689,p,0,0,0
0:38.100,13716,),0,0,0
0:38.283,13782,(,0,0,1
0:38.322,13796,N,0,0,0
0:38.450,13842,),0,0,1
0:38.553,13879,(,0,0,2
0:38.664,13919,t,0,0,0
0:38.803,13969,),0,0,2
0:39.111,14080,(,0,0,1
0:39.158,14097,N,0,0,0
0:39.289,14144,),0,0,1
0:39.403,14185,(,0,0,2
0:39.508,14223,t,0,0,0
0:39.614,14261,),0,0,2
0:39.981,14393,(,0,0,1
0:40.019,14407,N,0,0,0
0:40.158,14457,),0,0,1
0:40.183,14466,(,0,0,2
0:40.339,14522,t,0,0,0
0:40.564,14603,),0,0,2
0:40.833,14700,(,0,0,1
0:40.881,14717,N,0,0,0
0:41.008,14763,),0,0,1
0:41.122,14804,(,0,0,2
0:41.211,14836,t,0,0,0
0:41.392,14901,),0,0,2
0:41.661,14998,(,0,0,1
0:41.700,15012,N,0,0,0
0:41.825,15057,),0,0,1
0:41.931,15095,(,0,0,2
0:42.031,15131,t,0,0,0
0:42.206,15194,),0,0,2
0:42.458,15285,(,0,0,1
0:42.497,15299,N,0,0,0
0:42.603,15337,),0,0,1
0:42.744,15388,(,0,0,2
0:42.850,15426,t,0,0,0
0:42.944,15460,),0,0,2
0:43.158,15537,(,0,0,0
0:43.208,15555,p,0,0,0
0:43.250,15570,),0,0,0
0:43.308,15591,(,0,0,1
0:43.383,15618,N,0,0,0
0:43.425,15633,),0,0,1
0:43.575,15687,(,0,0,2
0:43.658,15717,t,0,0,0
0:43.761,15754,),0,0,2
0:44.100,15876,(,0,0,1
0:44.136,15889,N,0,0,0
0:44.236,15925,),0,0,1
0:44.253,15931,(,0,0,2
0:44.292,15945,t,0,0,4
0:44.461,16006,t,0,0,4
0:44.564,16043,),0,0,2
0:44.906,16166,(,0,0,1
0:44.950,16182,N,0,0,0
0:45.083,16230,),0,0,1
0:45.097,16235,(,0,0,2
0:45.200,16272,t,0,0,4
0:45.319,16315,t,0,0,4
0:45.422,16352,),0,0,2
0:45.772,16478,(,0,0,1
0:45.806,16490,N,0,0,0
0:45.939,16538,),0,0,1
0:45.981,16553,(,0,0,2
0:46.119,16603,t,0,0,0
0:46.269,16657,),0,0,2
0:46.633,16788,(,0,0,1
0:46.672,16802,N,0,0,0
0:46.808,16851,),0,0,1
0:46.892,16881,(,0,0,2
0:47.031,16931,t,0,0,0
0:47.133,16968,),0,0,2
0:47.472,17090,(,0,0,1
0:47.517,17106,N,0,0,0
0:47.639,17150,),0,0,1
0:47.753,17191,(,0,0,2
0:47.850,17226,t,0,0,0
0:47.928,17254,),0,0,2
0:47.992,17277,(,0,0,0
0:48.125,17325,p,0,0,0
0:48.161,17338,),0,0,0
0:48.247,17369,(,0,0,1
0:48.311,17392,N,0,0,0
0:48.444,17440,),0,0,1
0:48.544,17476,(,0,0,2
0:48.644,17512,t,0,0,0
0:48.750,17550,),0,0,2
0:48.875,17595,(,0,0,0
0:48.900,17604,p,0,0,0
0:48.953,17623,),0,0,0
0:49.069,17665,(,0,0,1
0:49.108,17679,N,0,0,0
0:49.253,17731,),0,0,1
0:49.367,17772,(,0,0,2
0:49.461,17806,t,0,0,0
0:49.544,17836,),0,0,2
0:49.906,17966,(,0,0,1
0:49.939,17978,N,0,0,0
0:50.067,18024,),0,0,1
0:50.172,18062,(,0,0,2
0:50.261,18094,t,0,0,0
0:50.361,18130,),0,0,2
0:50.700,18252,(,0,0,1
0:50.758,18273,N,0,0,0
0:50.883,18318,),0,0,1
0:50.908,18327,(,0,0,2
0:51.075,18387,t,0,0,0
0:51.158,18417,),0,0,2
0:51.544,18556,(,0,0,1
0:51.589,18572,N,0,0,0
0:51.694,18610,),0,0,1
0:51.725,18621,(,0,0,2
0:51.753,18631,t,0,0,4
0:51.942,18699,t,0,0,4
0:52.039,18734,),0,0,2
0:52.389,18860,(,0,0,1
0:52.439,18878,N,0,0,0
0:52.575,18927,),0,0,1
0:52.619,18943,(,0,0,2
0:52.683,18966,t,0,0,4
0:52.808,19011,t,0,0,4
0:52.886,19039,),0,0,2
0:53.142,19131,(,0,0,0
0:53.169,19141,p,0,0,0
0:53.197,19151,),0,0,0
0:53.247,19169,(,0,0,1
0:53.286,19183,N,0,0,0
0:53.425,19233,),0,0,1
0:53.514,19265,(,0,0,2
0:53.633,19308,t,0,0,0
0:53.725,19341,),0,0,2
0:54.069,19465,(,0,0,1
0:54.108,19479,N,0,0,0
0:54.233,19524,),0,0,1
0:54.356,19568,(,0,0,2
0:54.458,19605,t,0,0,0
0:54.544,19636,),0,0,2
0:54.856,19748,(,0,0,1
0:54.900,19764,N,0,0,0
0:55.025,19809,),0,0,1
0:55.136,19849,(,0,0,2
0:55.239,19886,t,0,0,0
0:55.311,19912,),0,0,2
0:55.447,19961,(,0,0,0
0:55.481,19973,p,0,0,0
0:55.525,19989,),0,0,0
0:55.653,20035,(,0,0,1
0:55.706,20054,N,0,0,0
0:55.811,20092,),0,0,1
0:55.944,20140,(,0,0,2
0:56.056,20180,t,0,0,0
0:56.122,20204,),0,0,2
0:56.328,20278,(,0,0,0
0:56.411,20308,p,0,0,0
0:56.494,20338,),0,0,0
0:56.514,20345,(,0,0,1
0:56.547,20357,N,0,0,0
0:56.683,20406,),0,0,1
0:56.794,20446,(,0,0,2
0:56.889,20480,t,0,0,0
0:56.983,20514,),0,0,2
0:57.050,20538,(,0,0,0
0:57.089,20552,p,0,0,0
0:57.186,20587,),0,0,0
0:57.353,20647,(,0,0,1
0:57.394,20662,N,0,0,0
0:57.522,20708,),0,0,1
0:57.567,20724,(,0,0,2
0:57.614,20741,t,0,0,4
0:57.747,20789,t,0,0,4
0:57.836,20821,),0,0,2
0:57.972,20870,(,0,0,0
0:58.094,20914,p,0,0,0
0:58.150,20934,),0,0,0
0:58.200,20952,(,0,0,1
0:58.233,20964,N,0,0,0
0:58.372,21014,),0,0,1
0:58.469,21049,(,0,0,2
0:58.506,21062,t,0,0,4
0:58.606,21098,t,0,0,4
0:58.731,21143,),0,0,2
0:59.031,21251,(,0,0,1
0:59.075,21267,N,0,0,0
0:59.208,21315,),0,0,1
0:59.303,21349,(,0,0,2
0:59.433,21396,t,0,0,0
0:59.544,21436,),0,0,2
0:59.869,21553,(,0,0,1
0:59.906,21566,N,0,0,0
1:00.039,21614,),0,0,1
1:00.139,21650,(,0,0,2
1:00.247,21689,t,0,0,0
1:00.436,21757,),0,0,2
1:00.464,21767,(,0,0,0
1:00.578,21808,p,0,0,0
1:00.636,21829,),0,0,0
1:00.669,21841,(,0,0,1
1:00.708,21855,N,0,0,0
1:00.842,21903,),0,0,1
1:00.933,21936,(,0,0,2
1:01.039,21974,t,0,0,0
1:01.119,22003,),0,0,2
1:01.289,22064,(,0,0,0
1:01.322,22076,p,0,0,0
1:01.369,22093,),0,0,0
1:01.458,22125,(,0,0,1
1:01.503,22141,N,0,0,0
1:01.644,22192,),0,0,1
1:01.733,22224,(,0,0,2
1:01.825,22257,t,0,0,0
1:01.919,22291,),0,0,2
1:02.164,22379,(,0,0,0
1:02.192,22389,p,0,0,0
1:02.239,22406,),0,0,0
1:02.275,22419,(,0,0,1
1:02.314,22433,N,0,0,0
1:02.419,22471,),0,0,1
1:02.578,22528,(,0,0,2
1:02.683,22566,t,0,0,0
1:02.769,22597,),0,0,2
1:03.128,22726,(,0,0,1
1:03.175,22743,N,0,0,0
1:03.283,22782,),0,0,1
1:03.306,22790,(,0,0,2
1:03.339,22802,t,0,0,4
1:03.522,22868,t,0,0,4
1:03.617,22902,),0,0,2
1:03.947,23021,(,0,0,1
1:04.025,23049,N,0,0,0
1:04.156,23096,),0,0,1
1:04.206,23114,(,0,0,2
1:04.256,23132,t,0,0,4
1:04.383,23178,t,0,0,4
1:04.464,23207,),0,0,2
1:04.814,23333,(,0,0,1
1:04.858,23349,N,0,0,0
1:04.994,23398,),0,0,1
1:05.097,23435,(,0,0,2
1:05.231,23483,t,0,0,0
1:05.328,23518,),0,0,2
1:05.639,23630,(,0,0,1
1:05.683,23646,N,0,0,0
1:05.814,23693,),0,0,1
1:05.931,23735,(,0,0,2
1:06.050,23778,t,0,0,0
1:06.186,23827,),0,0,2
1:06.239,23846,(,0,0,0
1:06.339,23882,p,0,0,0
1:06.367,23892,),0,0,0
1:06.464,23927,(,0,0,1
1:06.508,23943,N,0,0,0
1:06.647,23993,),0,0,1
1:06.761,24034,(,0,0,2
1:06.881,24077,t,0,0,0
1:06.967,24108,),0,0,2
1:07.050,24138,(,0,0,0
1:07.147,24173,p,0,0,0
1:07.178,24184,),0,0,0
1:07.267,24216,(,0,0,1
1:07.314,24233,N,0,0,0
1:07.456,24284,),0,0,1
1:07.567,24324,(,0,0,2
1:07.661,24358,t,0,0,0
1:07.797,24407,),0,0,2
1:08.064,24503,(,0,0,1
1:08.114,24521,N,0,0,0
1:08.203,24553,),0,0,1
1:08.242,24567,(,0,0,2
1:08.264,24575,t,0,0,4
1:08.467,24648,t,0,0,4
1:08.603,24697,),0,0,2
1:08.911,24808,(,0,0,1
1:08.956,24824,N,0,0,0
1:09.053,24859,),0,0,1
1:09.214,24917,(,0,0,2
1:09.336,24961,t,0,0,0
1:09.397,24983,),0,0,2
1:09.589,25052,(,0,0,0
1:09.656,25076,p,0,0,0
1:09.756,25112,),0,0,0
1:09.783,25122,(,0,0,1
1:09.825,25137,N,0,0,0
1:09.981,25193,),0,0,1
1:10.069,25225,(,0,0,2
1:10.172,25262,t,0,0,0
1:10.258,25293,),0,0,2
1:10.625,25425,(,0,0,1
1:10.667,25440,N,0,0,0
1:10.758,25473,),0,0,1
1:10.933,25536,(,0,0,2
1:11.022,25568,t,0,0,0
1:11.086,25591,),0,0,2
1:11.442,25719,(,0,0,1
1:11.486,25735,N,0,0,0
1:11.589,25772,),0,0,1
1:11.747,25829,(,0,0,2
1:11.850,25866,t,0,0,0
1:11.961,25906,),0,0,2
1:12.033,25932,(,0,0,0
1:12.111,25960,p,0,0,0
1:12.175,25983,),0,0,0
1:12.228,26002,(,0,0,1
1:12.286,26023,N,0,0,0
1:12.422,26072,),0,0,1
1:12.542,26115,(,0,0,2
1:12.622,26144,t,0,0,0
1:12.769,26197,),0,0,2
1:13.061,26302,(,0,0,1
1:13.100,26316,N,0,0,0
1:13.244,26368,),0,0,1
1:13.361,26410,(,0,0,2
1:13.456,26444,t,0,0,0
1:13.572,26486,),0,0,2
1:13.856,26588,(,0,0,1
1:13.906,26606,N,0,0,0
1:14.044,26656,),0,0,1
1:14.161,26698,(,0,0,2
1:14.269,26737,t,0,0,0
1:14.350,26766,),0,0,2
1:14.672,26882,(,0,0,1
1:14.717,26898,N,0,0,0
1:14.847,26945,),0,0,1
1:14.986,26995,(,0,0,2
1:15.078,27028,t,0,0,0
1:15.167,27060,),0,0,2
1:15.367,27132,(,0,0,0
1:15.431,27155,p,0,0,0
1:15.531,27191,),0,0,0
1:15.553,27199,(,0,0,1
1:15.581,27209,N,0,0,0
1:15.714,27257,),0,0,1
1:15.842,27303,(,0,0,2
1:15.950,27342,t,0,0,0
1:16.042,27375,),0,0,2
1:16.403,27505,(,0,0,1
1:16.447,27521,N,0,0,0
1:16.525,27549,),0,0,1
1:16.556,27560,(,0,0,2
1:16.681,27605,t,0,0,1
1:16.811,27652,),0,0,2
1:17.231,27803,(,0,0,1
1:17.278,27820,N,0,0,0
1:17.414,27869,),0,0,1
1:17.478,27892,(,0,0,2
1:17.511,27904,t,0,0,4
1:17.719,27979,t,0,0,4
1:17.794,28006,),0,0,2
1:17.894,28042,(,0,0,0
1:17.911,28048,p,0,0,0
1:17.944,28060,),0,0,0
1:18.039,28094,(,0,0,1
1:18.092,28113,N,0,0,0
1:18.214,28157,),0,0,1
1:18.250,28170,(,0,0,2
1:18.300,28188,t,0,0,4
1:18.422,28232,t,0,0,4
1:18.597,28295,),0,0,2
1:18.847,28385,(,0,0,1
1:18.914,28409,N,0,0,0
1:18.992,28437,),0,0,1
1:18.997,28439,(,0,0,2
1:19.089,28472,t,0,0,4
1:19.192,28509,t,0,0,4
1:19.347,28565,),0,0,2
1:19.361,28570,(,0,0,0
1:19.442,28599,p,0,0,0
1:19.517,28626,),0,0,0
1:19.681,28685,(,0,0,1
1:19.717,28698,N,0,0,0
1:19.794,28726,),0,0,1
1:19.800,28728,(,0,0,2
1:19.894,28762,t,0,0,4
1:20.011,28804,t,0,0,4
1:20.133,28848,),0,0,2
1:20.481,28973,(,0,0,1
1:20.525,28989,N,0,0,0
1:20.583,29010,),0,0,1
1:20.589,29012,(,0,0,2
1:20.683,29046,t,0,0,4
1:20.844,29104,t,0,0,4
1:20.875,29115,),0,0,2
1:21.100,29196,(,0,0,0
1:21.119,29203,p,0,0,0
1:21.133,29208,),0,0,0
1:21.283,29262,(,0,0,1
1:21.319,29275,N,0,0,0
1:21.392,29301,),0,0,1
1:21.442,29319,(,0,0,2
1:21.492,29337,t,0,0,1
1:21.592,29373,),0,0,2
1:22.125,29565,(,0,0,1
1:22.169,29581,N,0,0,0
1:22.225,29601,),0,0,1
1:22.275,29619,(,0,0,2
1:22.336,29641,t,0,0,4
1:22.483,29694,t,0,0,4
1:22.689,29768,),0,0,2
1:22.842,29823,(,0,0,0
1:22.867,29832,p,0,0,0
1:22.886,29839,),0,0,0
1:22.942,29859,(,0,0,1
1:23.000,29880,N,0,0,0
1:23.086,29911,),0,0,1
1:23.122,29924,(,0,0,2
1:23.156,29936,t,0,0,4
1:23.361,30010,t,0,0,4
1:23.389,30020,),0,0,2
1:23.600,30096,(,0,0,0
1:23.622,30104,p,0,0,0
1:23.681,30125,),0,0,0
1:23.739,30146,(,0,0,1
1:23.775,30159,N,0,0,0
1:23.833,30180,),0,0,1
1:23.839,30182,(,0,0,2
1:23.942,30219,t,0,0,4
1:24.142,30291,t,0,0,4
1:24.214,30317,),0,0,2
1:24.511,30424,(,0,0,1
1:24.553,30439,N,0,0,0
1:24.606,30458,),0,0,1
1:24.611,30460,(,0,0,2
1:24.708,30495,t,0,0,1
1:24.817,30534,),0,0,2
1:25.281,30701,(,0,0,1
1:25.319,30715,N,0,0,0
1:25.367,30732,),0,0,1
1:25.431,30755,(,0,0,2
1:25.483,30774,t,0,0,4
1:25.692,30849,t,0,0,4
1:25.731,30863,),0,0,2
1:25.978,30952,(,0,0,0
1:25.997,30959,p,0,0,0
1:26.028,30970,),0,0,0
1:26.053,30979,(,0,0,1
1:26.106,30998,N,0,0,0
1:26.158,31017,),0,0,1
1:26.203,31033,(,0,0,2
1:26.267,31056,t,0,0,1
1:26.372,31094,),0,0,2
1:26.856,31268,(,0,0,1
1:26.911,31288,N,0,0,0
1:26.964,31307,),0,0,1
1:26.969,31309,(,0,0,2
1:27.078,31348,t,0,0,4
1:27.186,31387,t,0,0,4
1:27.231,31403,),0,0,2
1:27.678,31564,(,0,0,1
1:27.736,31585,N,0,0,0
1:27.786,31603,),0,0,1
1:27.792,31605,(,0,0,2
1:27.894,31642,t,0,0,4
1:28.008,31683,t,0,0,4
1:28.050,31698,),0,0,2
1:28.311,31792,(,0,0,0
1:28.339,31802,p,0,0,0
1:28.375,31815,),0,0,0
1:28.489,31856,(,0,0,1
1:28.558,31881,N,0,0,0
1:28.611,31900,),0,0,1
1:28.642,31911,(,0,0,2
1:28.731,31943,t,0,0,4
1:28.914,32009,t,0,0,4
1:28.950,32022,),0,0,2
1:29.164,32099,(,0,0,0
1:29.219,32119,p,0,0,0
1:29.331,32159,),0,0,0
1:29.350,32166,(,0,0,1
1:29.386,32179,N,0,0,0
1:29.439,32198,),0,0,1
1:29.489,32216,(,0,0,2
1:29.553,32239,t,0,0,4
1:29.653,32275,t,0,0,4
1:29.708,32295,),0,0,2
1:30.128,32446,(,0,0,1
1:30.181,32465,N,0,0,0
1:30.228,32482,),0,0,1
1:30.278,32500,(,0,0,2
1:30.325,32517,t,0,0,1
1:30.417,32550,),0,0,2
1:30.872,32714,(,0,0,1
1:30.925,32733,N,0,0,0
1:30.972,32750,),0,0,1
1:31.019,32767,(,0,0,2
1:31.078,32788,t,0,0,4
1:31.192,32829,t,0,0,4
1:31.303,32869,),0,0,2
1:31.650,32994,(,0,0,1
1:31.692,33009,N,0,0,0
1:31.744,33028,),0,0,1
1:31.786,33043,(,0,0,2
1:31.856,33068,t,0,0,4
1:31.956,33104,t,0,0,4
1:32.019,33127,),0,0,2
1:32.133,33168,(,0,0,0
1:32.214,33197,p,0,0,0
1:32.306,33230,),0,0,0
1:32.431,33275,(,0,0,1
1:32.489,33296,N,0,0,0
1:32.544,33316,),0,0,1
1:32.586,33331,(,0,0,2
1:32.658,33357,t,0,0,4
1:32.769,33397,t,0,0,4
1:32.928,33454,),0,0,2
1:33.256,33572,(,0,0,1
1:33.317,33594,N,0,0,0
1:33.367,33612,),0,0,1
1:33.419,33631,(,0,0,2
1:33.472,33650,t,0,0,4
1:33.600,33696,t,0,0,4
1:33.642,33711,),0,0,2
1:34.061,33862,(,0,0,1
1:34.117,33882,N,0,0,0
1:34.172,33902,),0,0,1
1:34.211,33916,(,0,0,2
1:34.278,33940,t,0,0,4
1:34.381,33977,t,0,0,4
1:34.442,33999,),0,0,2
1:34.558,34041,(,0,0,1
1:34.608,34059,N,0,0,0
1:34.700,34092,),0,0,1
1:34.733,34104,(,0,0,2
1:34.806,34130,t,0,0,0
1:34.947,34181,),0,0,2
1:35.178,34264,(,0,0,0
1:35.292,34305,p,0,0,0
1:35.342,34323,),0,0,0
1:35.444,34360,(,0,0,1
1:35.481,34373,N,0,0,0
1:35.578,34408,),0,0,1
1:35.597,34415,(,0,0,2
1:35.642,34431,t,0,0,4
1:35.853,34507,t,0,0,4
1:35.922,34532,),0,0,2
1:35.989,34556,(,0,0,0
1:36.092,34593,p,0,0,0
1:36.106,34598,),0,0,0
1:36.258,34653,(,0,0,1
1:36.294,34666,N,0,0,0
1:36.436,34717,),0,0,1
1:36.544,34756,(,0,0,2
1:36.639,34790,t,0,0,0
1:36.700,34812,),0,0,2
1:36.753,34831,(,0,0,0
1:36.828,34858,p,0,0,0
1:36.911,34888,),0,0,0
1:37.036,34933,(,0,0,1
1:37.081,34949,N,0,0,0
1:37.181,34985,),0,0,1
1:37.331,35039,(,0,0,2
1:37.456,35084,t,0,0,0
1:37.633,35148,),0,0,2
1:37.664,35159,(,0,0,0
1:37.742,35187,p,0,0,0
1:37.775,35199,),0,0,0
1:37.844,35224,(,0,0,1
1:37.881,35237,N,0,0,0
1:37.986,35275,),0,0,1
1:38.119,35323,(,0,0,2
1:38.217,35358,t,0,0,0
1:38.333,35400,),0,0,2
1:38.667,35520,(,0,0,1
1:38.708,35535,N,0,0,0
1:38.847,35585,),0,0,1
1:38.969,35629,(,0,0,2
1:39.067,35664,t,0,0,0
1:39.203,35713,),0,0,2
1:39.533,35832,(,0,0,1
1:39.575,35847,N,0,0,0
1:39.714,35897,),0,0,1
1:39.844,35944,(,0,0,2
1:39.958,35985,t,0,0,0
1:40.036,36013,),0,0,2
1:40.367,36132,(,0,0,1
1:40.422,36152,N,0,0,0
1:40.550,36198,),0,0,1
1:40.689,36248,(,0,0,2
1:40.786,36283,t,0,0,0
1:40.869,36313,),0,0,2
1:41.206,36434,(,0,0,1
1:41.253,36451,N,0,0,0
1:41.367,36492,),0,0,1
1:41.369,36493,(,0,0,2
1:41.458,36525,t,0,0,4
1:41.608,36579,t,0,0,4
1:41.694,36610,),0,0,2
1:41.842,36663,(,0,0,0
1:41.889,36680,p,0,0,0
1:41.942,36699,),0,0,0
1:42.053,36739,(,0,0,1
1:42.094,36754,N,0,0,0
1:42.236,36805,),0,0,1
1:42.242,36807,(,0,0,2
1:42.333,36840,t,0,0,4
1:42.431,36875,t,0,0,4
1:42.481,36893,),0,0,2
1:42.847,37025,(,0,0,1
1:42.894,37042,N,0,0,0
1:43.019,37087,),0,0,1
1:43.025,37089,(,0,0,2
1:43.119,37123,t,0,0,4
1:43.217,37158,t,0,0,4
1:43.264,37175,),0,0,2
1:43.639,37310,(,0,0,1
1:43.681,37325,N,0,0,0
1:43.803,37369,),0,0,1
1:43.808,37371,(,0,0,2
1:43.894,37402,t,0,0,4
1:43.994,37438,t,0,0,4
1:44.186,37507,),0,0,2
1:44.456,37604,(,0,0,1
1:44.539,37634,N,0,0,0
1:44.600,37656,),0,0,1
1:44.606,37658,(,0,0,2
1:44.700,37692,t,0,0,4
1:44.797,37727,t,0,0,4
1:44.956,37784,),0,0,2
1:45.300,37908,(,0,0,1
1:45.367,37932,N,0,0,0
1:45.433,37956,),0,0,1
1:45.439,37958,(,0,0,2
1:45.539,37994,t,0,0,4
1:45.644,38032,t,0,0,4
1:45.728,38062,),0,0,2
1:45.883,38118,(,0,0,0
1:45.931,38135,p,0,0,0
1:46.014,38165,),0,0,0
1:46.156,38216,(,0,0,1
1:46.214,38237,N,0,0,0
1:46.294,38266,),0,0,1
1:46.300,38268,(,0,0,2
1:46.400,38304,t,0,0,4
1:46.500,38340,t,0,0,4
1:46.625,38385,),0,0,2
1:47.014,38525,(,0,0,1
1:47.053,38539,N,0,0,0
1:47.144,38572,),0,0,1
1:47.172,38582,(,0,0,2
1:47.217,38598,t,0,0,4
1:47.322,38636,t,0,0,4
1:47.369,38653,),0,0,2
1:47.800,38808,(,0,0,1
1:47.842,38823,N,0,0,0
1:47.892,38841,),0,0,1
1:47.897,38843,(,0,0,2
1:47.997,38879,t,0,0,4
1:48.103,38917,t,0,0,4
1:48.181,38945,),0,0,2
1:48.414,39029,(,0,0,0
1:48.439,39038,p,0,0,0
1:48.475,39051,),0,0,0
1:48.597,39095,(,0,0,1
1:48.653,39115,N,0,0,0
1:48.708,39135,),0,0,1
1:48.714,39137,(,0,0,2
1:48.814,39173,t,0,0,4
1:48.911,39208,t,0,0,4
1:48.964,39227,),0,0,2
1:49.122,39284,(,0,0,0
1:49.189,39308,p,0,0,0
1:49.281,39341,),0,0,0
1:49.389,39380,(,0,0,1
1:49.444,39400,N,0,0,0
1:49.497,39419,),0,0,1
1:49.503,39421,(,0,0,2
1:49.600,39456,t,0,0,4
1:49.700,39492,t,0,0,4
1:49.850,39546,),0,0,2
1:50.172,39662,(,0,0,1
1:50.228,39682,N,0,0,0
1:50.278,39700,),0,0,1
1:50.308,39711,(,0,0,2
1:50.386,39739,t,0,0,4
1:50.489,39776,t,0,0,4
1:50.569,39805,),0,0,2
1:50.825,39897,(,0,0,0
1:50.853,39907,p,0,0,0
1:50.914,39929,),0,0,0
1:50.989,39956,(,0,0,1
1:51.044,39976,N,0,0,0
1:51.103,39997,),0,0,1
1:51.136,40009,(,0,0,2
1:51.208,40035,t,0,0,4
1:51.314,40073,t,0,0,4
1:51.375,40095,),0,0,2
1:51.828,40258,(,0,0,1
1:51.886,40279,N,0,0,0
1:51.942,40299,),0,0,1
1:51.983,40314,(,0,0,2
1:52.053,40339,t,0,0,4
1:52.158,40377,t,0,0,4
1:52.225,40401,),0,0,2
1:52.689,40568,(,0,0,1
1:52.744,40588,N,0,0,0
1:52.800,40608,),0,0,1
1:52.847,40625,(,0,0,2
1:52.908,40647,t,0,0,4
1:53.008,40683,t,0,0,4
1:53.100,40716,),0,0,2
1:53.392,40821,(,0,0,0
1:53.411,40828,p,0,0,0
1:53.436,40837,),0,0,0
1:53.508,40863,(,0,0,1
1:53.553,40879,N,0,0,0
1:53.606,40898,),0,0,1
1:53.661,40918,(,0,0,2
1:53.708,40935,t,0,0,4
1:53.808,40971,t,0,0,4
1:54.003,41041,),0,0,2
1:54.033,41052,(,0,0,0
1:54.125,41085,p,0,0,0
1:54.175,41103,),0,0,0
1:54.264,41135,(,0,0,1
1:54.322,41156,N,0,0,0
1:54.375,41175,),0,0,1
1:54.411,41188,(,0,0,2
1:54.478,41212,t,0,0,4
1:54.581,41249,t,0,0,4
1:54.636,41269,),0,0,2
1:55.089,41432,(,0,0,1
1:55.133,41448,N,0,0,0
1:55.214,41477,),0,0,1
1:55.219,41479,(,0,0,2
1:55.300,41508,t,0,0,4
1:55.394,41542,t,0,0,4
1:55.453,41563,),0,0,2
1:55.728,41662,(,0,0,0
1:55.781,41681,p,0,0,0
1:55.856,41708,),0,0,0
1:55.878,41716,(,0,0,1
1:55.919,41731,N,0,0,0
1:55.972,41750,),0,0,1
1:56.022,41768,(,0,0,2
1:56.081,41789,t,0,0,1
1:56.169,41821,),0,0,2
1:56.408,41907,(,0,0,0
1:56.467,41928,p,0,0,0
1:56.519,41947,),0,0,0
1:56.661,41998,(,0,0,1
1:56.700,42012,N,0,0,0
1:56.758,42033,),0,0,1
1:56.806,42050,(,0,0,2
1:56.872,42074,t,0,0,4
1:56.972,42110,t,0,0,4
1:57.028,42130,),0,0,2
1:57.497,42299,(,0,0,1
1:57.544,42316,N,0,0,0
1:57.650,42354,),0,0,1
1:57.658,42357,(,0,0,2
1:57.714,42377,t,0,0,4
1:57.817,42414,t,0,0,4
1:57.867,42432,),0,0,2
1:58.247,42569,(,0,0,0
1:58.278,42580,p,0,0,0
1:58.311,42592,),0,0,0
1:58.319,42595,(,0,0,1
1:58.378,42616,N,0,0,0
1:58.436,42637,),0,0,1
1:58.492,42657,(,0,0,2
1:58.542,42675,t,0,0,4
1:58.653,42715,t,0,0,4
1:58.736,42745,),0,0,2
1:58.950,42822,(,0,0,0
1:58.994,42838,p,0,0,0
1:59.025,42849,),0,0,0
1:59.153,42895,(,0,0,1
1:59.208,42915,N,0,0,0
1:59.264,42935,),0,0,1
1:59.269,42937,(,0,0,2
1:59.381,42977,t,0,0,4
1:59.481,43013,t,0,0,4
1:59.556,43040,),0,0,2
1:59.964,43187,(,0,0,1
2:00.006,43202,N,0,0,0
2:00.058,43221,),0,0,1
2:00.064,43223,(,0,0,2
2:00.169,43261,t,0,0,4
2:00.264,43295,t,0,0,4
2:00.328,43318,),0,0,2
2:00.736,43465,(,0,0,1
2:00.778,43480,N,0,0,0
2:00.836,43501,),0,0,1
2:00.878,43516,(,0,0,2
2:00.936,43537,t,0,0,4
2:01.036,43573,t,0,0,4
2:01.064,43583,),0,0,2
2:01.233,43644,(,0,0,0
2:01.297,43667,p,0,0,0
2:01.381,43697,),0,0,0
2:01.528,43750,(,0,0,1
2:01.572,43766,N,0,0,0
2:01.631,43787,),0,0,1
2:01.661,43798,(,0,0,2
2:01.739,43826,t,0,0,4
2:01.853,43867,t,0,0,4
2:01.972,43910,),0,0,2
2:02.317,44034,(,0,0,1
2:02.375,44055,N,0,0,0
2:02.433,44076,),0,0,1
2:02.467,44088,(,0,0,2
2:02.550,44118,t,0,0,4
2:02.658,44157,t,0,0,4
2:02.717,44178,),0,0,2
2:03.153,44335,(,0,0,1
2:03.194,44350,N,0,0,0
2:03.250,44370,),0,0,1
2:03.278,44380,(,0,0,2
2:03.372,44414,t,0,0,4
2:03.481,44453,t,0,0,4
2:03.553,44479,),0,0,2
2:03.647,44513,(,0,0,0
2:03.744,44548,p,0,0,0
2:03.797,44567,),0,0,0
2:03.933,44616,(,0,0,1
2:04.028,44650,N,0,0,0
2:04.083,44670,),0,0,1
2:04.128,44686,(,0,0,2
2:04.203,44713,t,0,0,4
2:04.308,44751,t,0,0,4
2:04.456,44804,),0,0,2
2:04.803,44929,(,0,0,1
2:04.847,44945,N,0,0,0
2:04.903,44965,),0,0,1
2:04.947,44981,(,0,0,2
2:05.022,45008,t,0,0,4
2:05.131,45047,t,0,0,4
2:05.208,45075,),0,0,2
2:05.503,45181,(,0,0,0
2:05.544,45196,p,0,0,0
2:05.567,45204,),0,0,0
2:05.614,45221,(,0,0,1
2:05.675,45243,N,0,0,0
2:05.722,45260,),0,0,1
2:05.772,45278,(,0,0,2
2:05.828,45298,t,0,0,4
2:06.031,45371,t,0,0,4
2:06.081,45389,),0,0,2
2:06.100,45396,(,0,0,0
2:06.131,45407,p,0,0,0
2:06.167,45420,),0,0,0
2:06.406,45506,(,0,0,1
2:06.444,45520,N,0,0,0
2:06.503,45541,),0,0,1
2:06.544,45556,(,0,0,2
2:06.617,45582,t,0,0,4
2:06.711,45616,t,0,0,4
2:06.761,45634,),0,0,2
2:06.925,45693,(,0,0,0
2:06.947,45701,p,0,0,0
2:06.975,45711,),0,0,0
2:07.164,45779,(,0,0,1
2:07.217,45798,N,0,0,0
2:07.272,45818,),0,0,1
2:07.325,45837,(,0,0,2
2:07.378,45856,t,0,0,4
2:07.481,45893,t,0,0,4
2:07.522,45908,),0,0,2
2:07.947,46061,(,0,0,1
2:08.019,46087,N,0,0,0
2:08.072,46106,),0,0,1
2:08.106,46118,(,0,0,2
2:08.194,46150,t,0,0,4
2:08.378,46216,t,0,0,4
2:08.422,46232,),0,0,2
2:08.567,46284,(,0,0,0
2:08.583,46290,p,0,0,0
2:08.611,46300,),0,0,0
2:08.778,46360,(,0,0,1
2:08.831,46379,N,0,0,0
2:08.886,46399,),0,0,1
2:08.892,46401,(,0,0,2
2:09.008,46443,t,0,0,4
2:09.114,46481,t,0,0,4
2:09.161,46498,),0,0,2
2:09.606,46658,(,0,0,1
2:09.661,46678,N,0,0,0
2:09.714,46697,),0,0,1
2:09.719,46699,(,0,0,2
2:09.833,46740,t,0,0,4
2:09.936,46777,t,0,0,4
2:09.975,46791,),0,0,2
2:10.242,46887,(,0,0,0
2:10.269,46897,p,0,0,0
2:10.289,46904,),0,0,0
2:10.444,46960,(,0,0,1
2:10.492,46977,N,0,0,0
2:10.547,46997,),0,0,1
2:10.553,46999,(,0,0,2
2:10.664,47039,t,0,0,4
2:10.775,47079,t,0,0,4
2:10.828,47098,),0,0,2
2:11.133,47208,(,0,0,0
2:11.169,47221,p,0,0,0
2:11.192,47229,),0,0,0
2:11.242,47247,(,0,0,1
2:11.297,47267,N,0,0,0
2:11.358,47289,),0,0,1
2:11.394,47302,(,0,0,2
2:11.467,47328,t,0,0,4
2:11.575,47367,t,0,0,4
2:11.664,47399,),0,0,2
2:11.758,47433,(,0,0,0
2:11.839,47462,p,0,0,0
2:11.919,47491,),0,0,0
2:12.056,47540,(,0,0,1
2:12.111,47560,N,0,0,0
2:12.167,47580,),0,0,1
2:12.206,47594,(,0,0,2
2:12.278,47620,t,0,0,4
2:12.433,47676,t,0,0,4
2:12.486,47695,),0,0,2
2:12.711,47776,(,0,0,0
2:12.728,47782,p,0,0,0
2:12.758,47793,),0,0,0
2:12.822,47816,(,0,0,1
2:12.889,47840,N,0,0,0
2:12.939,47858,),0,0,1
2:12.981,47873,(,0,0,2
2:13.039,47894,t,0,0,4
2:13.150,47934,t,0,0,4
2:13.236,47965,),0,0,2
2:13.578,48088,(,0,0,1
2:13.656,48116,N,0,0,0
2:13.708,48135,),0,0,1
2:13.714,48137,(,0,0,2
2:13.808,48171,t,0,0,4
2:13.914,48209,t,0,0,4
2:13.981,48233,),0,0,2
2:14.397,48383,(,0,0,1
2:14.456,48404,N,0,0,0
2:14.511,48424,),0,0,1
2:14.556,48440,(,0,0,2
2:14.628,48466,t,0,0,1
2:14.728,48502,),0,0,2
2:15.031,48611,(,0,0,0
2:15.114,48641,p,0,0,0
2:15.181,48665,),0,0,0
2:15.247,48689,(,0,0,1
2:15.300,48708,N,0,0,0
2:15.353,48727,),0,0,1
2:15.425,48753,(,0,0,2
2:15.461,48766,t,0,0,4
2:15.572,48806,t,0,0,4
2:15.592,48813,),0,0,2
2:15.786,48883,(,0,0,0
2:15.861,48910,p,0,0,0
2:15.931,48935,),0,0,0
2:16.075,48987,(,0,0,1
2:16.117,49002,N,0,0,0
2:16.175,49023,),0,0,1
2:16.214,49037,(,0,0,2
2:16.281,49061,t,0,0,4
2:16.381,49097,t,0,0,4
2:16.453,49123,),0,0,2
2:16.614,49181,(,0,0,0
2:16.656,49196,p,0,0,0
2:16.686,49207,),0,0,0
2:16.878,49276,(,0,0,1
2:16.922,49292,N,0,0,0
2:16.975,49311,),0,0,1
2:17.022,49328,(,0,0,2
2:17.089,49352,t,0,0,4
2:17.197,49391,t,0,0,4
2:17.264,49415,),0,0,2
2:17.644,49552,(,0,0,1
2:17.717,49578,N,0,0,0
2:17.769,49597,),0,0,1
2:17.819,49615,(,0,0,2
2:17.875,49635,t,0,0,4
2:17.983,49674,t,0,0,4
2:18.017,49686,),0,0,2
2:18.131,49727,(,0,0,0
2:18.183,49746,p,0,0,0
2:18.225,49761,),0,0,0
2:18.453,49843,(,0,0,1
2:18.492,49857,N,0,0,0
2:18.547,49877,),0,0,1
2:18.581,49889,(,0,0,2
2:18.664,49919,t,0,0,4
2:18.764,49955,t,0,0,4
2:18.817,49974,),0,0,2
2:19.231,50123,(,0,0,1
2:19.283,50142,N,0,0,0
2:19.331,50159,),0,0,1
2:19.375,50175,(,0,0,2
2:19.436,50197,t,0,0,4
2:19.539,50234,t,0,0,4
2:19.583,50250,),0,0,2
2:19.833,50340,(,0,0,0
2:19.894,50362,p,0,0,0
2:19.964,50387,),0,0,0
2:20.008,50403,(,0,0,1
2:20.047,50417,N,0,0,0
2:20.097,50435,),0,0,1
2:20.167,50460,(,0,0,2
2:20.206,50474,t,0,0,4
2:20.353,50527,t,0,0,4
2:20.417,50550,),0,0,2
2:20.672,50642,(,0,0,0
2:20.703,50653,p,0,0,0
2:20.722,50660,),0,0,0
2:20.792,50685,(,0,0,1
2:20.833,50700,N,0,0,0
2:20.894,50722,),0,0,1
2:20.922,50732,(,0,0,2
2:21.019,50767,t,0,0,4
2:21.131,50807,t,0,0,4
2:21.172,50822,),0,0,2
2:21.642,50991,(,0,0,1
2:21.700,51012,N,0,0,0
2:21.758,51033,),0,0,1
2:21.797,51047,(,0,0,2
2:21.872,51074,t,0,0,4
2:21.981,51113,t,0,0,4
2:22.019,51127,),0,0,2
2:22.308,51231,(,0,0,0
2:22.378,51256,p,0,0,0
2:22.411,51268,),0,0,0
2:22.475,51291,(,0,0,1
2:22.533,51312,N,0,0,0
2:22.583,51330,),0,0,1
2:22.619,51343,(,0,0,2
2:22.692,51369,t,0,0,1
2:22.792,51405,),0,0,2
2:23.267,51576,(,0,0,1
2:23.325,51597,N,0,0,0
2:23.378,51616,),0,0,1
2:23.419,51631,(,0,0,2
2:23.486,51655,t,0,0,4
2:23.586,51691,t,0,0,4
2:23.636,51709,),0,0,2
2:24.061,51862,(,0,0,1
2:24.117,51882,N,0,0,0
2:24.167,51900,),0,0,1
2:24.208,51915,(,0,0,2
2:24.275,51939,t,0,0,4
2:24.514,52025,t,0,0,4
2:24.553,52039,),0,0,2
2:24.775,52119,(,0,0,0
2:24.806,52130,p,0,0,0
2:24.831,52139,),0,0,0
2:24.850,52146,(,0,0,1
2:24.886,52159,N,0,0,0
2:24.936,52177,),0,0,1
2:24.981,52193,(,0,0,2
2:25.044,52216,t,0,0,4
2:25.150,52254,t,0,0,4
2:25.192,52269,),0,0,2
2:25.628,52426,(,0,0,1
2:25.669,52441,N,0,0,0
2:25.717,52458,),0,0,1
2:25.758,52473,(,0,0,2
2:25.828,52498,t,0,0,4
2:25.925,52533,t,0,0,4
2:25.967,52548,),0,0,2
2:26.394,52702,(,0,0,1
2:26.456,52724,N,0,0,0
2:26.503,52741,),0,0,1
2:26.533,52752,(,0,0,2
2:26.611,52780,t,0,0,1
2:26.719,52819,),0,0,2
2:26.906,52886,(,0,0,0
2:26.978,52912,p,0,0,0
2:27.044,52936,),0,0,0
2:27.208,52995,(,0,0,1
2:27.250,53010,N,0,0,0
2:27.311,53032,),0,0,1
2:27.317,53034,(,0,0,2
2:27.428,53074,t,0,0,4
2:27.533,53112,t,0,0,4
2:27.581,53129,),0,0,2
2:28.044,53296,(,0,0,1
2:28.103,53317,N,0,0,0
2:28.161,53338,),0,0,1
2:28.167,53340,(,0,0,2
2:28.281,53381,t,0,0,4
2:28.386,53419,t,0,0,4
2:28.486,53455,),0,0,2
2:28.733,53544,(,0,0,0
2:28.753,53551,p,0,0,0
2:28.781,53561,),0,0,0
2:28.842,53583,(,0,0,1
2:28.928,53614,N,0,0,0
2:28.978,53632,),0,0,1
2:29.033,53652,(,0,0,2
2:29.094,53674,t,0,0,4
2:29.267,53736,t,0,0,4
2:29.314,53753,),0,0,2
2:29.644,53872,(,0,0,1
2:29.700,53892,N,0,0,0
2:29.756,53912,),0,0,1
2:29.789,53924,(,0,0,2
2:29.867,53952,t,0,0,4
2:29.964,53987,t,0,0,4
2:30.028,54010,),0,0,2
2:30.422,54152,(,0,0,1
2:30.481,54173,N,0,0,0
2:30.533,54192,),0,0,1
2:30.569,54205,(,0,0,2
2:30.644,54232,t,0,0,1
2:30.731,54263,),0,0,2
2:31.028,54370,(,0,0,0
2:31.086,54391,p,0,0,0
2:31.150,54414,),0,0,0
2:31.161,54418,(,0,0,1
2:31.250,54450,N,0,0,0
2:31.303,54469,),0,0,1
2:31.339,54482,(,0,0,2
2:31.408,54507,t,0,0,4
2:31.581,54569,t,0,0,4
2:31.669,54601,),0,0,2
2:31.856,54668,(,0,0,0
2:31.886,54679,p,0,0,0
2:31.908,54687,),0,0,0
2:31.989,54716,(,0,0,1
2:32.033,54732,N,0,0,0
2:32.086,54751,),0,0,1
2:32.092,54753,(,0,0,2
2:32.200,54792,t,0,0,4
2:32.303,54829,t,0,0,4
2:32.356,54848,),0,0,2
2:32.772,54998,(,0,0,1
2:32.831,55019,N,0,0,0
2:32.886,55039,),0,0,1
2:32.942,55059,(,0,0,2
2:33.003,55081,t,0,0,4
2:33.111,55120,t,0,0,4
2:33.153,55135,),0,0,2
2:33.592,55293,(,0,0,1
2:33.650,55314,N,0,0,0
2:33.706,55334,),0,0,1
2:33.744,55348,(,0,0,2
2:33.822,55376,t,0,0,4
2:33.931,55415,t,0,0,4
2:34.000,55440,),0,0,2
2:34.183,55506,(,0,0,0
2:34.206,55514,p,0,0,0
2:34.231,55523,),0,0,0
2:34.436,55597,(,0,0,1
2:34.492,55617,N,0,0,0
2:34.542,55635,),0,0,1
2:34.578,55648,(,0,0,2
2:34.672,55682,t,0,0,4
2:34.775,55719,t,0,0,4
2:34.850,55746,),0,0,2
2:35.233,55884,(,0,0,0
2:35.250,55890,p,0,0,0
2:35.294,55906,),0,0,0
2:35.311,55912,(,0,0,1
2:35.458,55965,N,0,0,0
2:35.569,56005,),0,0,1
2:36.033,56172,(,0,0,1
2:36.086,56191,N,0,0,0
2:36.142,56211,),0,0,1
2:36.194,56230,(,0,0,2
2:36.250,56250,t,0,0,4
2:36.361,56290,t,0,0,4
2:36.408,56307,),0,0,2
2:36.678,56404,(,0,0,0
2:36.700,56412,p,0,0,0
2:36.725,56421,),0,0,0
2:36.797,56447,(,0,0,1
2:36.856,56468,N,0,0,0
2:36.911,56488,),0,0,1
2:36.933,56496,(,0,0,2
2:37.025,56529,t,0,0,4
2:37.222,56600,t,0,0,4
2:37.289,56624,),0,0,2
2:37.575,56727,(,0,0,1
2:37.617,56742,N,0,0,0
2:37.672,56762,),0,0,1
2:37.722,56780,(,0,0,2
2:37.786,56803,t,0,0,4
2:37.894,56842,t,0,0,4
2:37.964,56867,),0,0,2
2:38.369,57013,(,0,0,1
2:38.428,57034,N,0,0,0
2:38.483,57054,),0,0,1
2:38.533,57072,(,0,0,2
2:38.606,57098,t,0,0,4
2:38.711,57136,t,0,0,4
2:38.750,57150,),0,0,2
2:39.022,57248,(,0,0,0
2:39.056,57260,p,0,0,0
2:39.081,57269,),0,0,0
2:39.153,57295,(,0,0,1
2:39.247,57329,N,0,0,0
2:39.297,57347,),0,0,1
2:39.331,57359,(,0,0,2
2:39.417,57390,t,0,0,4
2:39.525,57429,t,0,0,4
2:39.561,57442,),0,0,2
2:39.819,57535,(,0,0,0
2:39.853,57547,p,0,0,0
2:39.928,57574,),0,0,0
2:40.000,57600,(,0,0,1
2:40.056,57620,N,0,0,0
2:40.108,57639,),0,0,1
2:40.156,57656,(,0,0,2
2:40.222,57680,t,0,0,4
2:40.336,57721,t,0,0,4
2:40.381,57737,),0,0,2
2:40.833,57900,(,0,0,1
2:40.892,57921,N,0,0,0
2:40.947,57941,),0,0,1
2:40.983,57954,(,0,0,2
2:41.072,57986,t,0,0,4
2:41.186,58027,t,0,0,4
2:41.236,58045,),0,0,2
2:41.567,58164,(,0,0,0
2:41.586,58171,p,0,0,0
2:41.619,58183,),0,0,0
2:41.650,58194,(,0,0,1
2:41.706,58214,N,0,0,0
2:41.756,58232,),0,0,1
2:41.800,58248,(,0,0,2
2:41.861,58270,t,0,0,4
2:41.975,58311,t,0,0,4
2:42.147,58373,),0,0,2
2:42.439,58478,(,0,0,0
2:42.469,58489,p,0,0,0
2:42.511,58504,),0,0,0
2:42.628,58546,N,0,0,0
2:42.636,58549,(,0,0,1
2:42.767,58596,),0,0,1
2:42.814,58613,(,0,0,2
2:42.964,58667,t,0,0,1
2:43.008,58683,),0,0,2
2:43.183,58746,(,0,0,1
2:43.236,58765,N,0,0,0
2:43.286,58783,),0,0,1
2:43.292,58785,(,0,0,2
2:43.403,58825,t,0,0,4
2:43.508,58863,t,0,0,4
2:43.553,58879,),0,0,2
2:43.967,59028,(,0,0,1
2:44.008,59043,N,0,0,0
2:44.058,59061,),0,0,1
2:44.103,59077,(,0,0,2
2:44.172,59102,t,0,0,4
2:44.289,59144,t,0,0,4
2:44.350,59166,),0,0,2
2:44.644,59272,(,0,0,0
2:44.664,59279,p,0,0,0
2:44.686,59287,),0,0,0
2:44.764,59315,(,0,0,1
2:44.819,59335,N,0,0,0
2:44.878,59356,),0,0,1
2:44.933,59376,(,0,0,2
2:45.000,59400,t,0,0,4
2:45.117,59442,t,0,0,4
2:45.181,59465,),0,0,2
2:45.356,59528,(,0,0,0
2:45.383,59538,p,0,0,0
2:45.428,59554,),0,0,0
2:45.600,59616,(,0,0,1
2:45.658,59637,N,0,0,0
2:45.714,59657,),0,0,1
2:45.764,59675,(,0,0,2
2:45.833,59700,t,0,0,4
2:45.944,59740,t,0,0,4
2:45.983,59754,),0,0,2
2:46.422,59912,(,0,0,1
2:46.478,59932,N,0,0,0
2:46.531,59951,),0,0,1
2:46.536,59953,(,0,0,2
2:46.650,59994,t,0,0,4
2:46.753,60031,t,0,0,4
2:46.806,60050,),0,0,2
2:47.242,60207,(,0,0,1
2:47.286,60223,N,0,0,0
2:47.342,60243,),0,0,1
2:47.397,60263,(,0,0,2
2:47.461,60286,t,0,0,4
2:47.567,60324,t,0,0,4
2:47.678,60364,),0,0,2
2:48.039,60494,(,0,0,1
2:48.094,60514,N,0,0,0
2:48.144,60532,),0,0,1
2:48.183,60546,(,0,0,2
2:48.253,60571,t,0,0,4
2:48.353,60607,t,0,0,4
2:48.511,60664,),0,0,2
2:48.822,60776,(,0,0,1
2:48.861,60790,N,0,0,0
2:48.914,60809,),0,0,1
2:48.953,60823,(,0,0,2
2:49.019,60847,t,0,0,4
2:49.242,60927,t,0,0,4
2:49.283,60942,),0,0,2
2:49.572,61046,(,0,0,1
2:49.614,61061,N,0,0,0
2:49.669,61081,),0,0,1
2:49.725,61101,(,0,0,2
2:49.781,61121,t,0,0,4
2:49.889,61160,t,0,0,4
2:49.953,61183,),0,0,2
2:50.353,61327,(,0,0,1
2:50.411,61348,N,0,0,0
2:50.461,61366,),0,0,1
2:50.467,61368,(,0,0,2
2:50.581,61409,t,0,0,4
2:50.689,61448,t,0,0,4
2:50.736,61465,),0,0,2
2:51.197,61631,(,0,0,1
2:51.239,61646,N,0,0,0
2:51.292,61665,),0,0,1
2:51.314,61673,(,0,0,2
2:51.425,61713,t,0,0,4
2:51.531,61751,t,0,0,4
2:51.575,61767,),0,0,2
2:51.856,61868,(,0,0,0
2:51.922,61892,p,0,0,0
2:51.981,61913,),0,0,0
2:52.019,61927,(,0,0,1
2:52.072,61946,N,0,0,0
2:52.128,61966,),0,0,1
2:52.175,61983,(,0,0,2
2:52.247,62009,t,0,0,4
2:52.356,62048,t,0,0,4
2:52.464,62087,),0,0,2
2:52.836,62221,(,0,0,1
2:52.892,62241,N,0,0,0
2:52.944,62260,),0,0,1
2:52.986,62275,(,0,0,2
2:53.058,62301,t,0,0,4
2:53.164,62339,t,0,0,4
2:53.203,62353,),0,0,2
2:53.403,62425,(,0,0,0
2:53.458,62445,p,0,0,0
2:53.553,62479,),0,0,0
2:53.633,62508,(,0,0,1
2:53.694,62530,N,0,0,0
2:53.747,62549,),0,0,1
2:53.781,62561,(,0,0,2
2:53.861,62590,t,0,0,4
2:54.114,62681,t,0,0,4
2:54.186,62707,),0,0,2
2:54.456,62804,(,0,0,1
2:54.511,62824,N,0,0,0
2:54.592,62853,),0,0,1
2:54.614,62861,(,0,0,2
2:54.742,62907,t,0,0,1
2:54.853,62947,),0,0,2
2:55.039,63014,(,0,0,0
2:55.069,63025,p,0,0,0
2:55.136,63049,),0,0,0
2:55.278,63100,(,0,0,1
2:55.311,63112,N,0,0,0
2:55.444,63160,),0,0,1
2:55.561,63202,(,0,0,2
2:55.644,63232,t,0,0,0
2:55.733,63264,),0,0,2
2:55.911,63328,(,0,0,0
2:55.939,63338,p,0,0,0
2:55.989,63356,),0,0,0
2:56.064,63383,(,0,0,1
2:56.106,63398,N,0,0,0
2:56.247,63449,),0,0,1
2:56.372,63494,(,0,0,2
2:56.467,63528,t,0,0,0
2:56.528,63550,),0,0,2
2:56.683,63606,(,0,0,0
2:56.753,63631,p,0,0,0
2:56.811,63652,),0,0,0
2:56.861,63670,(,0,0,1
2:56.936,63697,N,0,0,0
2:57.081,63749,),0,0,1
2:57.208,63795,(,0,0,2
2:57.294,63826,t,0,0,0
2:57.394,63862,),0,0,2
2:57.764,63995,(,0,0,1
2:57.803,64009,N,0,0,0
2:57.900,64044,),0,0,1
2:57.950,64062,(,0,0,2
2:57.981,64073,t,0,0,4
2:58.192,64149,t,0,0,4
2:58.289,64184,),0,0,2
2:58.628,64306,(,0,0,1
2:58.669,64321,N,0,0,0
2:58.803,64369,),0,0,1
2:58.942,64419,(,0,0,2
2:59.025,64449,t,0,0,0
2:59.119,64483,),0,0,2
2:59.186,64507,(,0,0,0
2:59.206,64514,p,0,0,0
2:59.314,64553,),0,0,0
2:59.453,64603,(,0,0,1
2:59.494,64618,N,0,0,0
2:59.625,64665,),0,0,1
2:59.686,64687,(,0,0,2
2:59.747,64709,t,0,0,4
2:59.850,64746,t,0,0,4
2:59.928,64774,),0,0,2
3:00.247,64889,(,0,0,1
3:00.294,64906,N,0,0,0
3:00.433,64956,),0,0,1
3:00.486,64975,(,0,0,2
3:00.550,64998,t,0,0,4
3:00.664,65039,t,0,0,4
3:00.742,65067,),0,0,2
3:00.867,65112,(,0,0,0
3:00.894,65122,p,0,0,0
3:00.908,65127,),0,0,0
3:01.061,65182,(,0,0,1
3:01.119,65203,N,0,0,0
3:01.256,65252,),0,0,1
3:01.300,65268,(,0,0,2
3:01.356,65288,t,0,0,4
3:01.467,65328,t,0,0,4
3:01.531,65351,),0,0,2
3:01.881,65477,(,0,0,1
3:01.925,65493,N,0,0,0
3:02.050,65538,),0,0,1
3:02.094,65554,(,0,0,2
3:02.158,65577,t,0,0,4
3:02.272,65618,t,0,0,4
3:02.358,65649,),0,0,2
3:02.681,65765,(,0,0,1
3:02.722,65780,N,0,0,0
3:02.858,65829,),0,0,1
3:02.900,65844,(,0,0,2
3:02.969,65869,t,0,0,4
3:03.106,65918,t,0,0,4
3:03.194,65950,),0,0,2
3:03.511,66064,(,0,0,1
3:03.567,66084,N,0,0,0
3:03.706,66134,),0,0,1
3:03.769,66157,(,0,0,2
3:03.817,66174,t,0,0,4
3:03.950,66222,t,0,0,4
3:04.047,66257,),0,0,2
3:04.383,66378,(,0,0,1
3:04.431,66395,N,0,0,0
3:04.528,66430,),0,0,1
3:04.581,66449,(,0,0,2
3:04.614,66461,t,0,0,4
3:04.822,66536,t,0,0,4
3:04.925,66573,),0,0,2
3:05.244,66688,(,0,0,1
3:05.281,66701,N,0,0,0
3:05.411,66748,),0,0,1
3:05.417,66750,(,0,0,2
3:05.483,66774,t,0,0,4
3:05.639,66830,t,0,0,4
3:05.756,66872,),0,0,2
3:06.044,66976,(,0,0,1
3:06.081,66989,N,0,0,0
3:06.208,67035,),0,0,1
3:06.325,67077,(,0,0,2
3:06.419,67111,t,0,0,0
3:06.517,67146,),0,0,2
3:06.842,67263,(,0,0,1
3:06.886,67279,N,0,0,0
3:06.981,67313,),0,0,1
3:07.017,67326,(,0,0,2
3:07.061,67342,t,0,0,4
3:07.261,67414,t,0,0,4
3:07.353,67447,),0,0,2
3:07.675,67563,(,0,0,1
3:07.714,67577,N,0,0,0
3:07.806,67610,),0,0,1
3:07.836,67621,(,0,0,2
3:07.878,67636,t,0,0,4
3:08.069,67705,t,0,0,4
3:08.172,67742,),0,0,2
3:08.500,67860,(,0,0,1
3:08.531,67871,N,0,0,0
3:08.664,67919,),0,0,1
3:08.778,67960,(,0,0,2
3:08.897,68003,t,0,0,0
3:08.981,68033,),0,0,2
3:09.317,68154,(,0,0,1
3:09.364,68171,N,0,0,0
3:09.472,68210,),0,0,1
3:09.497,68219,(,0,0,2
3:09.539,68234,t,0,0,4
3:09.747,68309,t,0,0,4
3:09.828,68338,),0,0,2
3:10.169,68461,(,0,0,1
3:10.217,68478,N,0,0,0
3:10.319,68515,),0,0,1
3:10.333,68520,(,0,0,2
3:10.386,68539,t,0,0,4
3:10.589,68612,t,0,0,4
3:10.669,68641,),0,0,2
3:10.864,68711,(,0,0,0
3:10.889,68720,p,0,0,0
3:10.922,68732,),0,0,0
3:11.022,68768,(,0,0,1
3:11.075,68787,N,0,0,0
3:11.172,68822,),0,0,1
3:11.342,68883,(,0,0,2
3:11.428,68914,t,0,0,0
3:11.531,68951,),0,0,2
3:11.828,69058,(,0,0,1
3:11.894,69082,N,0,0,0
3:11.992,69117,),0,0,1
3:11.997,69119,(,0,0,2
3:12.053,69139,t,0,0,4
3:12.233,69204,t,0,0,4
3:12.311,69232,),0,0,2
3:12.347,69245,(,0,0,0
3:12.403,69265,p,0,0,0
3:12.475,69291,),0,0,0
3:12.622,69344,(,0,0,1
3:12.683,69366,N,0,0,0
3:12.878,69436,),0,0,1
3:12.919,69451,(,0,0,2
3:13.014,69485,t,0,0,0
3:13.078,69508,),0,0,2
3:13.311,69592,(,0,0,0
3:13.342,69603,p,0,0,0
3:13.378,69616,),0,0,0
3:13.428,69634,(,0,0,1
3:13.486,69655,N,0,0,0
3:13.628,69706,),0,0,1
3:13.650,69714,(,0,0,2
3:13.831,69779,t,0,0,0
3:13.892,69801,),0,0,2
3:14.122,69884,(,0,0,0
3:14.194,69910,p,0,0,0
3:14.236,69925,),0,0,0
3:14.281,69941,(,0,0,1
3:14.314,69953,N,0,0,0
3:14.414,69989,),0,0,1
3:14.419,69991,(,0,0,2
3:14.472,70010,t,0,0,4
3:14.672,70082,t,0,0,4
3:14.733,70104,),0,0,2
3:15.028,70210,(,0,0,0
3:15.058,70221,p,0,0,0
3:15.089,70232,),0,0,0
3:15.106,70238,(,0,0,1
3:15.144,70252,N,0,0,0
3:15.244,70288,),0,0,1
3:16.011,70564,(,0,0,1
3:16.083,70590,N,0,0,0
3:16.178,70624,),0,0,1
3:16.225,70641,(,0,0,2
3:16.344,70684,t,0,0,0
3:16.436,70717,),0,0,2
3:16.806,70850,(,0,0,0
3:16.839,70862,p,0,0,0
3:16.922,70892,),0,0,0
3:16.936,70897,(,0,0,1
3:16.947,70901,N,0,0,0
3:17.031,70931,),0,0,1
3:17.150,70974,(,0,0,2
3:17.214,70997,t,0,0,0
3:17.314,71033,),0,0,2
3:17.633,71148,(,0,0,1
3:17.675,71163,N,0,0,0
3:17.808,71211,),0,0,1
3:17.947,71261,(,0,0,2
3:18.008,71283,t,0,0,0
3:18.144,71332,),0,0,2
3:18.342,71403,(,0,0,0
3:18.386,71419,p,0,0,0
3:18.483,71454,),0,0,0
3:18.511,71464,(,0,0,1
3:18.578,71488,N,0,0,0
3:18.617,71502,),0,0,1
3:18.733,71544,(,0,0,2
3:18.814,71573,t,0,0,0
3:18.956,71624,),0,0,2
3:19.247,71729,(,0,0,1
3:19.283,71742,N,0,0,0
3:19.408,71787,),0,0,1
3:19.539,71834,(,0,0,2
3:19.622,71864,t,0,0,0
3:19.756,71912,),0,0,2
3:20.061,72022,(,0,0,1
3:20.097,72035,N,0,0,0
3:20.233,72084,),0,0,1
3:20.386,72139,(,0,0,2
3:20.481,72173,t,0,0,0
3:20.514,72185,),0,0,2
3:20.669,72241,(,0,0,0
3:20.764,72275,p,0,0,0
3:20.800,72288,),0,0,0
3:20.900,72324,(,0,0,1
3:20.950,72342,N,0,0,0
3:21.097,72395,),0,0,1
3:21.225,72441,(,0,0,2
3:21.319,72475,t,0,0,0
3:21.367,72492,),0,0,2
3:21.767,72636,(,0,0,0
3:21.822,72656,p,0,0,0
3:21.892,72681,),0,0,0
3:21.942,72699,(,0,0,1
3:21.958,72705,N,0,0,0
3:22.161,72778,),0,0,1
3:22.589,72932,(,0,0,1
3:22.636,72949,N,0,0,0
3:22.739,72986,),0,0,1
3:22.744,72988,(,0,0,2
3:22.806,73010,t,0,0,4
3:23.006,73082,t,0,0,4
3:23.069,73105,),0,0,2
3:23.367,73212,(,0,0,0
3:23.383,73218,p,0,0,0
3:23.461,73246,),0,0,0
3:23.489,73256,(,0,0,1
3:23.553,73279,N,0,0,0
3:23.692,73329,),0,0,1
3:23.719,73339,(,0,0,2
3:23.828,73378,t,0,0,0
3:23.900,73404,),0,0,2
3:24.133,73488,(,0,0,0
3:24.178,73504,p,0,0,0
3:24.281,73541,),0,0,0
3:24.306,73550,(,0,0,1
3:24.381,73577,N,0,0,0
3:24.561,73642,),0,0,1
3:24.581,73649,(,0,0,2
3:24.658,73677,t,0,0,0
3:24.744,73708,),0,0,2
3:25.039,73814,(,0,0,1
3:25.086,73831,N,0,0,0
3:25.214,73877,),0,0,1
3:25.347,73925,(,0,0,2
3:25.425,73953,t,0,0,0
3:25.606,74018,),0,0,2
3:25.761,74074,(,0,0,0
3:25.800,74088,p,0,0,0
3:25.875,74115,),0,0,0
3:25.903,74125,(,0,0,1
3:25.969,74149,N,0,0,0
3:26.044,74176,),0,0,1
3:26.125,74205,(,0,0,2
3:26.222,74240,t,0,0,0
3:26.317,74274,),0,0,2
3:26.583,74370,(,0,0,0
3:26.611,74380,p,0,0,0
3:26.708,74415,),0,0,0
3:26.733,74424,(,0,0,1
3:26.817,74454,N,0,0,0
3:26.864,74471,),0,0,1
3:27.003,74521,(,0,0,2
3:27.111,74560,t,0,0,0
3:27.217,74598,),0,0,2
3:27.400,74664,(,0,0,0
3:27.417,74670,p,0,0,0
3:27.508,74703,),0,0,0
3:27.533,74712,(,0,0,1
3:27.581,74729,N,0,0,0
3:27.722,74780,),0,0,1
3:27.853,74827,(,0,0,2
3:27.967,74868,t,0,0,0
3:28.064,74903,),0,0,2
3:28.192,74949,(,0,0,0
3:28.317,74994,p,0,0,0
3:28.350,75006,),0,0,0
3:28.375,75015,(,0,0,1
3:28.422,75032,N,0,0,0
3:28.528,75070,),0,0,1
3:28.672,75122,(,0,0,2
3:28.772,75158,t,0,0,0
3:28.833,75180,),0,0,2
3:29.092,75273,(,0,0,0
3:29.119,75283,p,0,0,0
3:29.144,75292,),0,0,0
3:29.206,75314,(,0,0,1
3:29.256,75332,N,0,0,0
3:29.403,75385,),0,0,1
3:29.511,75424,(,0,0,2
3:29.603,75457,t,0,0,0
3:29.694,75490,),0,0,2
3:30.022,75608,(,0,0,1
3:30.072,75626,N,0,0,0
3:30.269,75697,),0,0,1
3:30.322,75716,(,0,0,2
3:30.428,75754,t,0,0,0
3:30.494,75778,),0,0,2
3:30.633,75828,(,0,0,0
3:30.747,75869,p,0,0,0
3:30.764,75875,),0,0,0
3:30.908,75927,(,0,0,1
3:30.978,75952,N,0,0,0
3:31.072,75986,),0,0,1
3:31.131,76007,(,0,0,2
3:31.231,76043,t,0,0,0
3:31.325,76077,),0,0,2
3:31.619,76183,(,0,0,1
3:31.692,76209,N,0,0,0
3:31.833,76260,),0,0,1
3:31.944,76300,(,0,0,2
3:32.031,76331,t,0,0,0
3:32.122,76364,),0,0,2
3:32.442,76479,(,0,0,1
3:32.497,76499,N,0,0,0
3:32.603,76537,),0,0,1
3:32.608,76539,(,0,0,2
3:32.664,76559,t,0,0,4
3:32.864,76631,t,0,0,4
3:32.947,76661,),0,0,2
3:33.136,76729,(,0,0,0
3:33.217,76758,p,0,0,0
3:33.294,76786,),0,0,0
3:33.319,76795,(,0,0,1
3:33.358,76809,N,0,0,0
3:33.503,76861,),0,0,1
3:33.536,76873,(,0,0,2
3:33.619,76903,t,0,0,4
3:33.742,76947,t,0,0,4
3:33.864,76991,),0,0,2
3:34.175,77103,(,0,0,1
3:34.314,77153,N,0,0,0
3:34.358,77169,),0,0,1
3:34.522,77228,(,0,0,2
3:34.589,77252,t,0,0,0
3:34.703,77293,),0,0,2
3:35.075,77427,(,0,0,1
3:35.144,77452,N,0,0,0
3:35.233,77484,),0,0,1
3:35.308,77511,(,0,0,2
3:35.422,77552,t,0,0,0
3:35.592,77613,),0,0,2
3:35.819,77695,(,0,0,1
3:35.869,77713,N,0,0,0
3:35.964,77747,),0,0,1
3:36.136,77809,(,0,0,2
3:36.350,77886,t,0,0,0
3:36.517,77946,),0,0,2
3:36.639,77990,(,0,0,0
3:36.672,78002,p,0,0,0
3:36.686,78007,),0,0,0
3:36.731,78023,(,0,0,1
3:36.786,78043,N,0,0,0
3:36.858,78069,),0,0,1
3:36.925,78093,(,0,0,2
3:37.017,78126,t,0,0,0
3:37.097,78155,),0,0,2
3:37.361,78250,(,0,0,0
3:37.381,78257,p,0,0,0
3:37.428,78274,),0,0,0
3:37.447,78281,(,0,0,1
3:37.481,78293,N,0,0,0
3:37.583,78330,),0,0,1
3:37.589,78332,(,0,0,2
3:37.647,78353,t,0,0,4
3:37.833,78420,t,0,0,4
3:37.947,78461,),0,0,2
3:38.261,78574,(,0,0,0
3:38.292,78585,p,0,0,0
3:38.317,78594,),0,0,0
3:38.344,78604,(,0,0,1
3:38.381,78617,N,0,0,0
3:38.450,78642,),0,0,1
3:38.553,78679,(,0,0,2
3:38.644,78712,t,0,0,0
3:38.725,78741,),0,0,2
3:39.078,78868,(,0,0,1
3:39.119,78883,N,0,0,0
3:39.258,78933,),0,0,1
3:39.344,78964,(,0,0,2
3:39.392,78981,t,0,0,1
3:39.500,79020,),0,0,2
3:39.969,79189,(,0,0,0
3:40.000,79200,p,0,0,0
3:40.022,79208,),0,0,0
3:40.050,79218,(,0,0,1
3:40.092,79233,N,0,0,0
3:40.186,79267,),0,0,1
3:40.272,79298,(,0,0,2
3:40.372,79334,t,0,0,0
3:40.494,79378,),0,0,2
3:40.669,79441,(,0,0,0
3:40.744,79468,p,0,0,0
3:40.847,79505,),0,0,0
3:40.875,79515,(,0,0,1
3:40.972,79550,N,0,0,0
3:41.067,79584,),0,0,1
3:41.119,79603,(,0,0,2
3:41.236,79645,t,0,0,0
3:41.400,79704,),0,0,2
3:41.633,79788,(,0,0,1
3:41.672,79802,N,0,0,0
3:41.769,79837,),0,0,1
3:41.811,79852,(,0,0,2
3:41.833,79860,t,0,0,4
3:42.033,79932,t,0,0,4
3:42.144,79972,),0,0,2
3:42.250,80010,(,0,0,0
3:42.275,80019,p,0,0,0
3:42.339,80042,),0,0,0
3:42.442,80079,(,0,0,1
3:42.481,80093,N,0,0,0
3:42.578,80128,),0,0,1
3:42.583,80130,(,0,0,2
3:42.639,80150,t,0,0,4
3:42.836,80221,t,0,0,4
3:42.897,80243,),0,0,2
3:43.086,80311,(,0,0,0
3:43.117,80322,p,0,0,0
3:43.164,80339,),0,0,0
3:43.233,80364,(,0,0,1
3:43.278,80380,N,0,0,0
3:43.381,80417,),0,0,1
3:43.525,80469,(,0,0,2
3:43.628,80506,t,0,0,0
3:43.694,80530,),0,0,2
3:43.953,80623,(,0,0,0
3:43.983,80634,p,0,0,0
3:44.033,80652,),0,0,0
3:44.058,80661,(,0,0,1
3:44.164,80699,N,0,0,0
3:44.306,80750,),0,0,1
3:44.367,80772,(,0,0,2
3:44.461,80806,t,0,0,0
3:44.539,80834,),0,0,2
3:44.958,80985,(,0,0,1
3:45.025,81009,N,0,0,0
3:45.097,81035,),0,0,1
3:45.181,81065,(,0,0,2
3:45.292,81105,t,0,0,0
3:45.381,81137,),0,0,2
3:45.531,81191,(,0,0,0
3:45.600,81216,p,0,0,0
3:45.656,81236,),0,0,0
3:45.717,81258,(,0,0,1
3:45.864,81311,N,0,0,0
3:45.906,81326,),0,0,1
3:46.003,81361,(,0,0,2
3:46.036,81373,t,0,0,4
3:46.144,81412,t,0,0,4
3:46.222,81440,),0,0,2
3:46.597,81575,(,0,0,1
3:46.642,81591,N,0,0,0
3:46.783,81642,),0,0,1
3:46.925,81693,(,0,0,2
3:47.006,81722,t,0,0,0
3:47.119,81763,),0,0,2
3:47.222,81800,(,0,0,0
3:47.269,81817,p,0,0,0
3:47.311,81832,),0,0,0
3:47.506,81902,(,0,0,1
3:47.572,81926,N,0,0,0
3:47.661,81958,),0,0,1
3:47.736,81985,(,0,0,2
3:47.833,82020,t,0,0,0
3:47.928,82054,),0,0,2
3:47.989,82076,(,0,0,0
3:48.081,82109,p,0,0,0
3:48.133,82128,),0,0,0
3:48.233,82164,(,0,0,1
3:48.272,82178,N,0,0,0
3:48.364,82211,),0,0,1
3:48.408,82227,(,0,0,2
3:48.433,82236,t,0,0,4
3:48.625,82305,t,0,0,4
3:48.697,82331,),0,0,2
3:48.831,82379,(,0,0,0
3:48.867,82392,p,0,0,0
3:48.908,82407,),0,0,0
3:49.011,82444,(,0,0,1
3:49.069,82465,N,0,0,0
3:49.178,82504,),0,0,1
3:49.333,82560,(,0,0,2
3:49.422,82592,t,0,0,0
3:49.497,82619,),0,0,2
3:49.842,82743,(,0,0,1
3:49.875,82755,N,0,0,0
3:49.978,82792,),0,0,1
3:50.022,82808,(,0,0,2
3:50.044,82816,t,0,0,4
3:50.236,82885,t,0,0,4
3:50.317,82914,),0,0,2
3:50.694,83050,(,0,0,0
3:50.725,83061,p,0,0,0
3:50.750,83070,),0,0,0
3:50.775,83079,(,0,0,1
3:50.817,83094,N,0,0,0
3:50.922,83132,),0,0,1
3:50.967,83148,(,0,0,2
3:51.078,83188,t,0,0,0
3:51.164,83219,),0,0,2
3:51.544,83356,(,0,0,0
3:51.575,83367,p,0,0,0
3:51.664,83399,),0,0,0
3:51.675,83403,(,0,0,1
3:51.686,83407,N,0,0,0
3:51.931,83495,),0,0,1
3:51.942,83499,t,0,0,3
3:52.067,83544,),0,0,2
3:52.369,83653,(,0,0,1
3:52.411,83668,N,0,0,0
3:52.506,83702,),0,0,1
3:52.686,83767,(,0,0,2
3:52.769,83797,t,0,0,0
3:52.919,83851,),0,0,2
3:53.256,83972,(,0,0,0
3:53.286,83983,p,0,0,0
3:53.311,83992,),0,0,0
3:53.333,84000,(,0,0,1
3:53.375,84015,N,0,0,0
3:53.469,84049,),0,0,1
3:53.536,84073,(,0,0,2
3:53.636,84109,t,0,0,0
3:53.764,84155,),0,0,2
3:53.989,84236,(,0,0,0
3:54.017,84246,p,0,0,0
3:54.097,84275,),0,0,0
3:54.131,84287,(,0,0,1
3:54.200,84312,N,0,0,0
3:54.286,84343,),0,0,1
3:54.350,84366,(,0,0,2
3:54.447,84401,t,0,0,0
3:54.503,84421,),0,0,2
3:54.856,84548,(,0,0,0
3:54.911,84568,p,0,0,0
3:54.986,84595,),0,0,0
3:55.022,84608,(,0,0,1
3:55.047,84617,N,0,0,0
3:55.222,84680,),0,0,1
3:55.650,84834,(,0,0,1
3:55.686,84847,N,0,0,0
3:55.792,84885,),0,0,1
3:55.828,84898,(,0,0,2
3:55.856,84908,t,0,0,4
3:56.036,84973,t,0,0,4
3:56.117,85002,),0,0,2
3:56.436,85117,(,0,0,1
3:56.503,85141,N,0,0,0
3:56.600,85176,),0,0,1
3:56.756,85232,(,0,0,2
3:56.867,85272,t,0,0,0
3:56.969,85309,),0,0,2
3:57.319,85435,(,0,0,1
3:57.364,85451,N,0,0,0
3:57.461,85486,),0,0,1
3:57.508,85503,(,0,0,2
3:57.611,85540,t,0,0,4
3:57.736,85585,t,0,0,4
3:57.850,85626,),0,0,2
3:58.161,85738,(,0,0,1
3:58.208,85755,N,0,0,0
3:58.347,85805,),0,0,1
3:58.436,85837,(,0,0,2
3:58.575,85887,t,0,0,0
3:58.736,85945,),0,0,2
3:58.886,85999,(,0,0,0
3:58.936,86017,p,0,0,0
3:59.033,86052,),0,0,0
3:59.058,86061,(,0,0,1
3:59.133,86088,N,0,0,0
3:59.181,86105,),0,0,1
3:59.322,86156,(,0,0,2
3:59.436,86197,t,0,0,0
3:59.572,86246,),0,0,2
3:59.650,86274,(,0,0,0
3:59.744,86308,p,0,0,0
3:59.800,86328,),0,0,0
3:59.833,86340,(,0,0,1
3:59.883,86358,N,0,0,0
3:59.981,86393,),0,0,1
4:00.011,86404,(,0,0,2
4:00.053,86419,t,0,0,4
4:00.247,86489,t,0,0,4
4:00.306,86510,),0,0,2
4:00.414,86549,(,0,0,0
4:00.547,86597,p,0,0,0
4:00.569,86605,),0,0,0
4:00.639,86630,(,0,0,1
4:00.692,86649,N,0,0,0
4:00.792,86685,),0,0,1
4:00.953,86743,(,0,0,2
4:01.044,86776,t,0,0,0
4:01.225,86841,),0,0,2
4:01.311,86872,(,0,0,0
4:01.342,86883,p,0,0,0
4:01.389,86900,),0,0,0
4:01.439,86918,(,0,0,1
4:01.478,86932,N,0,0,0
4:01.578,86968,),0,0,1
4:01.719,87019,(,0,0,2
4:01.822,87056,t,0,0,0
4:01.933,87096,),0,0,2
4:02.253,87211,(,0,0,1
4:02.294,87226,N,0,0,0
4:02.431,87275,),0,0,1
4:02.464,87287,(,0,0,2
4:02.533,87312,t,0,0,4
4:02.653,87355,t,0,0,4
4:02.742,87387,),0,0,2
4:03.100,87516,(,0,0,1
4:03.139,87530,N,0,0,0
4:03.272,87578,),0,0,1
4:03.386,87619,(,0,0,2
4:03.497,87659,t,0,0,0
4:03.617,87702,),0,0,2
4:03.750,87750,(,0,0,0
4:03.844,87784,p,0,0,0
4:03.928,87814,),0,0,0
4:03.961,87826,(,0,0,1
4:04.131,87887,N,0,0,0
4:04.158,87897,),0,0,1
4:04.308,87951,(,0,0,2
4:04.383,87978,t,0,0,0
4:04.461,88006,),0,0,2
4:04.819,88135,(,0,0,1
4:04.858,88149,N,0,0,0
4:04.992,88197,),0,0,1
4:05.156,88256,(,0,0,2
4:05.225,88281,t,0,0,0
4:05.344,88324,),0,0,2
4:05.631,88427,(,0,0,1
4:05.669,88441,N,0,0,0
4:05.800,88488,),0,0,1
4:05.906,88526,(,0,0,2
4:06.022,88568,t,0,0,0
4:06.075,88587,),0,0,2
4:06.122,88604,(,0,0,0
4:06.269,88657,p,0,0,0
4:06.286,88663,),0,0,0
4:06.436,88717,(,0,0,1
4:06.500,88740,N,0,0,0
4:06.636,88789,),0,0,1
4:06.750,88830,(,0,0,2
4:06.850,88866,t,0,0,0
4:06.944,88900,),0,0,2
4:07.069,88945,(,0,0,0
4:07.103,88957,p,0,0,0
4:07.150,88974,),0,0,0
4:07.253,89011,(,0,0,1
4:07.300,89028,N,0,0,0
4:07.397,89063,),0,0,1
4:07.556,89120,(,0,0,2
4:07.644,89152,t,0,0,0
4:07.725,89181,),0,0,2
4:08.036,89293,(,0,0,1
4:08.092,89313,N,0,0,0
4:08.186,89347,),0,0,1
4:08.192,89349,(,0,0,2
4:08.253,89371,t,0,0,4
4:08.433,89436,t,0,0,4
4:08.525,89469,),0,0,2
4:08.642,89511,(,0,0,0
4:08.733,89544,p,0,0,0
4:08.758,89553,),0,0,0
4:08.858,89589,(,0,0,1
4:08.919,89611,N,0,0,0
4:09.053,89659,),0,0,1
4:09.161,89698,(,0,0,2
4:09.269,89737,t,0,0,0
4:09.369,89773,),0,0,2
4:09.736,89905,(,0,0,1
4:09.772,89918,N,0,0,0
4:09.875,89955,),0,0,1
4:09.911,89968,(,0,0,2
4:09.944,89980,t,0,0,4
4:10.156,90056,t,0,0,4
4:10.244,90088,),0,0,2
4:10.603,90217,(,0,0,1
4:10.644,90232,N,0,0,0
4:10.733,90264,),0,0,1
4:10.781,90281,(,0,0,2
4:10.856,90308,t,0,0,4
4:11.006,90362,t,0,0,4
4:11.094,90394,),0,0,2
4:11.317,90474,(,0,0,0
4:11.342,90483,p,0,0,0
4:11.367,90492,),0,0,0
4:11.428,90514,(,0,0,1
4:11.467,90528,N,0,0,0
4:11.592,90573,),0,0,1
4:11.717,90618,(,0,0,2
4:11.817,90654,t,0,0,0
4:11.908,90687,),0,0,2
4:12.222,90800,(,0,0,1
4:12.261,90814,N,0,0,0
4:12.353,90847,),0,0,1
4:12.397,90863,(,0,0,2
4:12.503,90901,t,0,0,4
4:12.633,90948,t,0,0,4
4:12.719,90979,),0,0,2
4:13.047,91097,(,0,0,1
4:13.092,91113,N,0,0,0
4:13.192,91149,),0,0,1
4:13.236,91165,(,0,0,2
4:13.317,91194,t,0,0,4
4:13.444,91240,t,0,0,4
4:13.539,91274,),0,0,2
4:13.858,91389,(,0,0,1
4:13.903,91405,N,0,0,0
4:14.039,91454,),0,0,1
4:14.100,91476,(,0,0,2
4:14.128,91486,t,0,0,4
4:14.247,91529,t,0,0,4
4:14.328,91558,),0,0,2
4:14.669,91681,(,0,0,1
4:14.711,91696,N,0,0,0
4:14.803,91729,),0,0,1
4:14.847,91745,(,0,0,2
4:14.956,91784,t,0,0,4
4:15.083,91830,t,0,0,4
4:15.178,91864,),0,0,2
4:15.525,91989,(,0,0,1
4:15.564,92003,N,0,0,0
4:15.653,92035,),0,0,1
4:15.689,92048,(,0,0,2
4:15.800,92088,t,0,0,4
4:15.939,92138,t,0,0,4
4:16.028,92170,),0,0,2
4:16.222,92240,(,0,0,0
4:16.292,92265,p,0,0,0
4:16.356,92288,),0,0,0
4:16.378,92296,(,0,0,1
4:16.414,92309,N,0,0,0
4:16.550,92358,),0,0,1
4:16.686,92407,(,0,0,2
4:16.797,92447,t,0,0,0
4:16.892,92481,),0,0,2
4:17.233,92604,(,0,0,1
4:17.272,92618,N,0,0,0
4:17.397,92663,),0,0,1
4:17.447,92681,(,0,0,2
4:17.508,92703,t,0,0,4
4:17.633,92748,t,0,0,4
4:17.711,92776,),0,0,2
4:18.031,92891,(,0,0,1
4:18.247,92969,N,0,0,0
4:18.381,93017,),0,0,1
4:18.433,93036,(,0,0,2
4:18.497,93059,t,0,0,1
4:18.511,93064,),0,0,2
4:18.831,93179,(,0,0,0
4:18.864,93191,p,0,0,0
4:18.881,93197,),0,0,0
4:18.919,93211,(,0,0,1
4:18.972,93230,N,0,0,0
4:19.108,93279,),0,0,1
4:19.111,93280,(,0,0,2
4:19.219,93319,t,0,0,0
4:19.325,93357,),0,0,2
4:19.661,93478,(,0,0,0
4:19.708,93495,p,0,0,0
4:19.775,93519,),0,0,0
4:19.822,93536,(,0,0,1
4:19.858,93549,N,0,0,0
4:20.025,93609,),0,0,1
4:20.053,93619,(,0,0,2
4:20.125,93645,t,0,0,1
4:20.133,93648,),0,0,2
4:20.475,93771,(,0,0,0
4:20.522,93788,p,0,0,0
4:20.589,93812,),0,0,0
4:20.600,93816,(,0,0,1
4:20.664,93839,N,0,0,0
4:20.833,93900,),0,0,1
4:21.214,94037,(,0,0,0
4:21.231,94043,p,0,0,0
4:21.322,94076,),0,0,0
4:21.347,94085,(,0,0,1
4:21.425,94113,N,0,0,0
4:21.517,94146,),0,0,1
4:21.569,94165,(,0,0,2
4:21.694,94210,t,0,0,0
4:21.789,94244,),0,0,2
4:22.183,94386,(,0,0,1
4:22.342,94443,N,0,0,0
4:22.544,94516,),0,0,1
4:22.978,94672,(,0,0,1
4:23.031,94691,N,0,0,0
4:23.136,94729,),0,0,1
4:23.142,94731,(,0,0,2
4:23.192,94749,t,0,0,4
4:23.400,94824,t,0,0,4
4:23.483,94854,),0,0,2
4:23.800,94968,(,0,0,1
4:23.864,94991,N,0,0,0
4:24.000,95040,),0,0,1
4:24.119,95083,(,0,0,2
4:24.203,95113,t,0,0,0
4:24.289,95144,),0,0,2
4:24.597,95255,(,0,0,1
4:24.814,95333,N,0,0,0
4:24.856,95348,),0,0,1
4:24.892,95361,(,0,0,2
4:25.003,95401,t,0,0,0
4:25.078,95428,),0,0,2
4:25.167,95460,(,0,0,0
4:25.236,95485,p,0,0,0
4:25.333,95520,),0,0,0
4:25.461,95566,(,0,0,1
4:25.572,95606,N,0,0,0
4:25.825,95697,),0,0,1
4:25.842,95703,(,0,0,2
4:26.069,95785,t,0,0,1
4:26.133,95808,),0,0,2
4:26.150,95814,(,0,0,0
4:26.206,95834,p,0,0,0
4:26.292,95865,),0,0,0
4:26.317,95874,(,0,0,1
4:26.403,95905,N,0,0,0
4:26.436,95917,),0,0,1
4:26.511,95944,(,0,0,2
4:26.561,95962,t,0,0,1
4:26.656,95996,),0,0,2
4:27.103,96157,(,0,0,1
4:27.139,96170,N,0,0,0
4:27.272,96218,),0,0,1
4:27.408,96267,(,0,0,2
4:27.497,96299,t,0,0,0
4:27.583,96330,),0,0,2
4:27.903,96445,(,0,0,1
4:28.094,96514,N,0,0,0
4:28.117,96522,),0,0,1
4:28.264,96575,(,0,0,2
4:28.353,96607,t,0,0,0
4:28.444,96640,),0,0,2
4:28.719,96739,(,0,0,0
4:28.744,96748,p,0,0,0
4:28.814,96773,),0,0,0
4:28.839,96782,(,0,0,1
4:28.928,96814,N,0,0,0
4:28.958,96825,),0,0,1
4:29.100,96876,(,0,0,2
4:29.192,96909,t,0,0,0
4:29.306,96950,),0,0,2
4:29.614,97061,(,0,0,1
4:29.656,97076,N,0,0,0
4:29.792,97125,),0,0,1
4:29.936,97177,(,0,0,2
4:30.025,97209,t,0,0,0
4:30.131,97247,),0,0,2
4:30.406,97346,(,0,0,1
4:30.464,97367,N,0,0,0
4:30.594,97414,),0,0,1
4:30.717,97458,(,0,0,2
4:30.808,97491,t,0,0,0
4:30.894,97522,),0,0,2
4:31.192,97629,(,0,0,1
4:31.256,97652,N,0,0,0
4:31.389,97700,),0,0,1
4:31.519,97747,(,0,0,2
4:31.592,97773,t,0,0,0
4:31.689,97808,),0,0,2
4:31.842,97863,(,0,0,0
4:31.875,97875,p,0,0,0
4:31.983,97914,),0,0,0
4:32.017,97926,(,0,0,1
4:32.056,97940,N,0,0,0
4:32.192,97989,),0,0,1
4:32.333,98040,(,0,0,2
4:32.422,98072,t,0,0,0
4:32.522,98108,),0,0,2
4:32.858,98229,(,0,0,1
4:32.911,98248,N,0,0,0
4:33.028,98290,),0,0,1
4:33.036,98293,(,0,0,2
4:33.106,98318,t,0,0,4
4:33.275,98379,t,0,0,4
4:33.319,98395,),0,0,2
4:33.744,98548,(,0,0,0
4:33.778,98560,p,0,0,0
4:33.839,98582,),0,0,0
4:33.853,98587,(,0,0,1
4:33.936,98617,N,0,0,0
4:34.111,98680,),0,0,1
4:34.197,98711,t,0,0,3
4:34.311,98752,),0,0,2
4:34.553,98839,(,0,0,1
4:34.597,98855,N,0,0,0
4:34.731,98903,),0,0,1
4:34.736,98905,(,0,0,2
4:34.842,98943,t,0,0,4
4:35.097,99035,t,0,0,4
4:35.164,99059,),0,0,2
4:35.403,99145,(,0,0,0
4:35.433,99156,p,0,0,0
4:35.519,99187,),0,0,0
4:35.578,99208,(,0,0,1
4:35.586,99211,N,0,0,0
4:35.742,99267,),0,0,1
4:35.767,99276,(,0,0,2
4:35.800,99288,t,0,0,0
4:35.864,99311,),0,0,2
4:36.092,99393,(,0,0,0
4:36.186,99427,p,0,0,0
4:36.250,99450,),0,0,0
4:36.256,99452,(,0,0,1
4:36.306,99470,N,0,0,0
4:36.347,99485,),0,0,1
4:36.394,99502,(,0,0,2
4:36.417,99510,t,0,0,4
4:36.619,99583,t,0,0,4
4:36.697,99611,),0,0,2
4:37.064,99743,(,0,0,1
4:37.114,99761,N,0,0,0
4:37.181,99785,),0,0,1
4:37.311,99832,(,0,0,2
4:37.481,99893,t,0,0,0
4:37.600,99936,),0,0,2
4:37.833   100020,(,0,0,1
4:37.856   100028,N,0,0,0
4:37.872   100034,),0,0,1
4:37.919   100051,(,0,0,2
4:37.967   100068,t,0,0,4
4:38.200   100152,t,0,0,4
4:38.289   100184,),0,0,2
4:38.689   100328,(,0,0,1
4:38.722   100340,N,0,0,0
4:38.781   100361,),0,0,1
4:38.897   100403,(,0,0,2
4:38.961   100426,t,0,0,1
4:39.078   100468,),0,0,2
4:39.558   100641,(,0,0,1
4:39.592   100653,N,0,0,0
4:39.644   100672,),0,0,1
4:39.783   100722,(,0,0,2
4:39.942   100779,t,0,0,0
4:40.022   100808,),0,0,2
4:40.361   100930,(,0,0,1
4:40.400   100944,N,0,0,0
4:40.419   100951,),0,0,1
4:40.497   100979,(,0,0,2
4:40.742   101067,t,0,0,0
4:40.894   101122,),0,0,2
4:41.047   101177,(,0,0,0
4:41.111   101200,p,0,0,0
4:41.222   101240,),0,0,0
4:41.231   101243,(,0,0,1
4:41.264   101255,N,0,0,0
4:41.319   101275,),0,0,1
4:41.486   101335,(,0,0,2
4:41.594   101374,t,0,0,0
4:41.733   101424,),0,0,2
4:42.033   101532,(,0,0,1
4:42.047   101537,N,0,0,0
4:42.178   101584,),0,0,1
4:42.269   101617,(,0,0,2
4:42.386   101659,t,0,0,0
4:42.497   101699,),0,0,2
4:42.842   101823,(,0,0,1
4:42.856   101828,N,0,0,0
4:42.978   101872,),0,0,1
4:43.044   101896,(,0,0,2
4:43.167   101940,t,0,0,0
4:43.278   101980,),0,0,2
4:43.467   102048,(,0,0,0
4:43.547   102077,p,0,0,0
4:43.642   102111,),0,0,0
4:43.647   102113,(,0,0,1
4:43.678   102124,N,0,0,0
4:43.736   102145,),0,0,1
4:43.942   102219,(,0,0,2
4:44.017   102246,t,0,0,0
4:44.131   102287,),0,0,2
4:44.453   102403,(,0,0,1
4:44.467   102408,N,0,0,0
4:44.600   102456,),0,0,1
4:44.683   102486,(,0,0,2
4:44.725   102501,t,0,0,4
4:44.825   102537,t,0,0,4
4:44.936   102577,),0,0,2
4:45.311   102712,(,0,0,1
4:45.339   102722,N,0,0,0
4:45.403   102745,),0,0,1
4:45.547   102797,(,0,0,2
4:45.594   102814,t,0,0,4
4:45.703   102853,t,0,0,4
4:45.803   102889,),0,0,2
4:46.181   103025,(,0,0,1
4:46.211   103036,N,0,0,0
4:46.272   103058,),0,0,1
4:46.378   103096,(,0,0,2
4:46.450   103122,t,0,0,4
4:46.572   103166,t,0,0,4
4:46.664   103199,),0,0,2
4:47.022   103328,(,0,0,1
4:47.056   103340,N,0,0,0
4:47.108   103359,),0,0,1
4:47.161   103378,(,0,0,2
4:47.267   103416,t,0,0,4
4:47.400   103464,t,0,0,4
4:47.483   103494,),0,0,2
4:47.814   103613,(,0,0,1
4:47.836   103621,N,0,0,0
4:47.853   103627,),0,0,1
4:47.872   103634,(,0,0,2
4:47.944   103660,t,0,0,4
4:48.194   103750,t,0,0,4
4:48.281   103781,),0,0,2
4:48.347   103805,(,0,0,0
4:48.378   103816,p,0,0,0
4:48.472   103850,),0,0,0
4:48.639   103910,(,0,0,1
4:48.672   103922,N,0,0,0
4:48.789   103964,),0,0,1
4:48.822   103976,(,0,0,2
4:48.867   103992,t,0,0,4
4:49.003   104041,t,0,0,4
4:49.081   104069,),0,0,2
4:49.117   104082,(,0,0,0
4:49.147   104093,p,0,0,0
4:49.236   104125,),0,0,0
4:49.422   104192,(,0,0,1
4:49.447   104201,N,0,0,0
4:49.464   104207,),0,0,1
4:49.492   104217,(,0,0,2
4:49.647   104273,t,0,0,1
4:49.817   104334,),0,0,2
4:50.267   104496,(,0,0,1
4:50.300   104508,N,0,0,0
4:50.356   104528,),0,0,1
4:50.400   104544,(,0,0,2
4:50.425   104553,t,0,0,4
4:50.636   104629,t,0,0,4
4:50.722   104660,),0,0,2
4:51.097   104795,(,0,0,1
4:51.131   104807,N,0,0,0
4:51.186   104827,),0,0,1
4:51.192   104829,(,0,0,2
4:51.267   104856,t,0,0,4
4:51.467   104928,t,0,0,4
4:51.542   104955,),0,0,2
4:51.592   104973,(,0,0,0
4:51.622   104984,p,0,0,0
4:51.725   105021,),0,0,0
4:51.911   105088,(,0,0,1
4:51.958   105105,N,0,0,0
4:51.975   105111,),0,0,1
4:52.011   105124,(,0,0,2
4:52.131   105167,t,0,0,1
4:52.336   105241,),0,0,2
4:52.639   105350,(,0,0,0
4:52.703   105373,p,0,0,0
4:52.814   105413,),0,0,0
4:52.819   105415,(,0,0,1
4:52.872   105434,N,0,0,0
4:52.917   105450,),0,0,1
4:53.086   105511,(,0,0,2
4:53.175   105543,t,0,0,0
4:53.242   105567,),0,0,2
4:53.469   105649,(,0,0,0
4:53.547   105677,p,0,0,0
4:53.633   105708,),0,0,0
4:53.636   105709,(,0,0,1
4:53.686   105727,N,0,0,0
4:53.731   105743,),0,0,1
4:53.886   105799,(,0,0,2
4:53.978   105832,t,0,0,0
4:54.047   105857,),0,0,2
4:54.367   105972,(,0,0,0
4:54.375   105975,p,0,0,0
4:54.428   105994,),0,0,0
4:54.433   105996,(,0,0,1
4:54.486   106015,N,0,0,0
4:54.528   106030,),0,0,1
4:54.547   106037,(,0,0,2
4:54.622   106064,t,0,0,1
4:54.767   106116,),0,0,2
4:56.736   106825,(,0,0,0
4:56.781   106841,p,0,0,0
4:56.886   106879,),0,0,0
4:56.931   106895,(,0,0,1
4:56.950   106902,N,0,0,0
4:57.042   106935,),0,0,1
4:57.047   106937,(,0,0,2
4:57.119   106963,t,0,0,4
4:57.331   107039,t,0,0,4
4:57.433   107076,),0,0,2
4:57.678   107164,(,0,0,1
4:57.731   107183,N,0,0,0
4:57.750   107190,),0,0,1
4:58.561   107482,(,0,0,1
4:58.600   107496,N,0,0,0
4:58.617   107502,),0,0,1
4:58.639   107510,(,0,0,2
4:58.711   107536,t,0,0,1
4:58.786   107563,),0,0,2
4:59.450   107802,(,0,0,1
4:59.481   107813,N,0,0,0
4:59.536   107833,),0,0,1
4:59.756   107912,(,0,0,2
4:59.819   107935,t,0,0,0
4:59.889   107960,),0,0,2
5:00.242   108087,(,0,0,1
5:00.253   108091,N,0,0,0
5:00.386   108139,),0,0,1
5:00.467   108168,(,0,0,2
5:00.586   108211,t,0,0,0
5:00.672   108242,),0,0,2
5:01.036   108373,(,0,0,1
5:01.064   108383,N,0,0,0
5:01.125   108405,),0,0,1
5:01.286   108463,(,0,0,2
5:01.394   108502,t,0,0,0
5:01.472   108530,),0,0,2
5:01.681   108605,(,0,0,0
5:01.731   108623,p,0,0,0
5:01.836   108661,),0,0,0
5:01.839   108662,(,0,0,1
5:01.850   108666,N,0,0,0
5:01.992   108717,),0,0,1
5:02.092   108753,(,0,0,2
5:02.203   108793,t,0,0,0
5:02.297   108827,),0,0,2
5:02.678   108964,(,0,0,1
5:02.689   108968,N,0,0,0
5:02.819   109015,),0,0,1
5:02.925   109053,(,0,0,2
5:03.042   109095,t,0,0,0
5:03.133   109128,),0,0,2
5:03.372   109214,(,0,0,0
5:03.431   109235,p,0,0,0
5:03.517   109266,),0,0,0
5:03.525   109269,(,0,0,1
5:03.556   109280,N,0,0,0
5:03.619   109303,),0,0,1
5:03.786   109363,(,0,0,2
5:03.903   109405,t,0,0,0
5:03.983   109434,),0,0,2
5:04.186   109507,(,0,0,0
5:04.236   109525,p,0,0,0
5:04.356   109568,),0,0,0
5:04.364   109571,(,0,0,1
5:04.392   109581,N,0,0,0
5:04.450   109602,),0,0,1
5:04.681   109685,(,0,0,2
5:04.742   109707,t,0,0,0
5:04.858   109749,),0,0,2
5:05.078   109828,(,0,0,0
5:05.128   109846,p,0,0,0
5:05.219   109879,),0,0,0
5:05.222   109880,(,0,0,1
5:05.233   109884,N,0,0,0
5:05.358   109929,),0,0,1
5:05.472   109970,(,0,0,2
5:05.494   109978,t,0,0,4
5:05.594   110014,t,0,0,4
5:05.686   110047,),0,0,2
5:06.039   110174,(,0,0,1
5:06.072   110186,N,0,0,0
5:06.153   110215,),0,0,1
5:06.272   110258,(,0,0,2
5:06.308   110271,t,0,0,4
5:06.400   110304,t,0,0,4
5:06.486   110335,),0,0,2
5:06.828   110458,(,0,0,1
5:06.856   110468,N,0,0,0
5:06.908   110487,),0,0,1
5:07.039   110534,(,0,0,2
5:07.083   110550,t,0,0,4
5:07.178   110584,t,0,0,4
5:07.286   110623,),0,0,2
5:07.633   110748,(,0,0,1
5:07.664   110759,N,0,0,0
5:07.722   110780,),0,0,1
5:07.842   110823,(,0,0,2
5:07.883   110838,t,0,0,4
5:07.986   110875,t,0,0,4
5:08.067   110904,),0,0,2
5:08.422   111032,(,0,0,1
5:08.447   111041,N,0,0,0
5:08.464   111047,),0,0,1
5:08.494   111058,(,0,0,2
5:08.644   111112,t,0,0,1
5:08.825   111177,),0,0,2
5:09.292   111345,(,0,0,1
5:09.317   111354,N,0,0,0
5:09.333   111360,),0,0,1
5:09.364   111371,(,0,0,2
5:09.508   111423,t,0,0,1
5:09.692   111489,),0,0,2
5:10.142   111651,(,0,0,1
5:10.169   111661,N,0,0,0
5:10.186   111667,),0,0,1
5:11.006   111962,(,0,0,1
5:11.039   111974,N,0,0,0
5:11.097   111995,),0,0,1
5:11.142   112011,(,0,0,2
5:11.247   112049,t,0,0,4
5:11.381   112097,t,0,0,4
5:11.461   112126,),0,0,2
5:11.808   112251,(,0,0,1
5:11.844   112264,N,0,0,0
5:11.861   112270,),0,0,1
5:11.889   112280,(,0,0,2
5:12.053   112339,t,0,0,1
5:12.197   112391,),0,0,2
5:12.653   112555,(,0,0,1
5:12.675   112563,N,0,0,0
5:12.739   112586,),0,0,1
5:12.900   112644,(,0,0,2
5:12.997   112679,t,0,0,0
5:13.083   112710,),0,0,2
5:13.439   112838,(,0,0,1
5:13.478   112852,N,0,0,0
5:13.525   112869,),0,0,1
5:13.572   112886,(,0,0,2
5:13.600   112896,t,0,0,4
5:13.792   112965,t,0,0,4
5:13.875   112995,),0,0,2
5:13.953   113023,(,0,0,0
5:13.956   113024,p,0,0,0
5:14.058   113061,),0,0,0
5:14.206   113114,(,0,0,1
5:14.247   113129,N,0,0,0
5:14.264   113135,),0,0,1
5:14.292   113145,(,0,0,2
5:14.417   113190,t,0,0,1
5:14.594   113254,),0,0,2
5:15.036   113413,(,0,0,1
5:15.081   113429,N,0,0,0
5:15.100   113436,),0,0,1
5:15.958   113745,(,0,0,1
5:16.017   113766,N,0,0,0
5:16.089   113792,),0,0,1
5:16.214   113837,(,0,0,2
5:16.317   113874,t,0,0,0
5:16.397   113903,),0,0,2
5:16.806   114050,(,0,0,1
5:16.861   114070,N,0,0,0
5:16.900   114084,),0,0,1
5:17.053   114139,(,0,0,2
5:17.150   114174,t,0,0,0
5:17.211   114196,),0,0,2
5:17.614   114341,(,0,0,1
5:17.667   114360,N,0,0,0
5:17.761   114394,),0,0,1
5:17.875   114435,(,0,0,2
5:17.950   114462,t,0,0,0
5:18.039   114494,),0,0,2
5:19.222   114920,(,0,0,1
5:19.250   114930,N,0,0,0
5:19.267   114936,),0,0,1
5:19.333   114960,(,0,0,2
5:19.481   115013,t,0,0,1
5:19.589   115052,),0,0,2
5:22.611   116140,(,0,0,1
5:22.664   116159,N,0,0,0
5:22.731   116183,),0,0,1
5:22.825   116217,(,0,0,2
5:22.942   116259,t,0,0,0
5:23.056   116300,),0,0,2
5:23.436   116437,(,0,0,1
5:23.467   116448,N,0,0,0
5:23.589   116492,),0,0,1
5:23.617   116502,(,0,0,2
5:23.672   116522,t,0,0,4
5:23.792   116565,t,0,0,4
5:23.869   116593,),0,0,2
5:24.197   116711,(,0,0,1
5:24.222   116720,N,0,0,0
5:24.239   116726,),0,0,1
5:24.264   116735,(,0,0,2
5:24.417   116790,t,0,0,1
5:24.583   116850,),0,0,2
5:25.019   117007,(,0,0,1
5:25.044   117016,N,0,0,0
5:25.064   117023,),0,0,1
5:25.117   117042,(,0,0,2
5:25.147   117053,t,0,0,4
5:25.397   117143,t,0,0,4
5:25.486   117175,),0,0,2
5:25.858   117309,(,0,0,1
5:25.897   117323,N,0,0,0
5:25.950   117342,),0,0,1
5:26.158   117417,(,0,0,2
5:26.222   117440,t,0,0,0
5:26.308   117471,),0,0,2
5:26.489   117536,(,0,0,0
5:26.544   117556,p,0,0,0
5:26.661   117598,),0,0,0
5:26.667   117600,(,0,0,1
5:26.678   117604,N,0,0,0
5:26.803   117649,),0,0,1
5:26.900   117684,(,0,0,2
5:27.017   117726,t,0,0,0
5:27.111   117760,),0,0,2
5:27.517   117906,(,0,0,1
5:27.547   117917,N,0,0,0
5:27.608   117939,),0,0,1
5:27.767   117996,(,0,0,2
5:27.886   118039,t,0,0,0
5:27.978   118072,),0,0,2
5:28.342   118203,(,0,0,1
5:28.367   118212,N,0,0,0
5:28.386   118219,),0,0,1
5:28.469   118249,(,0,0,2
5:28.706   118334,t,0,0,0
5:28.942   118419,),0,0,2
5:29.186   118507,(,0,0,1
5:29.222   118520,N,0,0,0
5:29.242   118527,),0,0,1
5:29.261   118534,(,0,0,2
5:29.333   118560,t,0,0,1
5:29.428   118594,),0,0,2
5:30.578   119008,(,0,0,0
5:30.697   119051,p,0,0,0
5:30.739   119066,),0,0,0
5:30.819   119095,(,0,0,1
5:30.872   119114,N,0,0,0
5:30.914   119129,),0,0,1
5:31.064   119183,(,0,0,2
5:31.164   119219,t,0,0,0
5:31.272   119258,),0,0,2
5:31.489   119336,(,0,0,0
5:31.550   119358,p,0,0,0
5:31.647   119393,),0,0,0
5:31.650   119394,(,0,0,1
5:31.703   119413,N,0,0,0
5:31.750   119430,),0,0,1
5:31.900   119484,(,0,0,2
5:31.986   119515,t,0,0,0
5:32.100   119556,),0,0,2
5:32.478   119692,(,0,0,1
5:32.531   119711,N,0,0,0
5:32.569   119725,),0,0,1
5:32.575   119727,(,0,0,2
5:32.642   119751,t,0,0,4
5:32.822   119816,t,0,0,4
5:32.908   119847,),0,0,2
5:33.311   119992,(,0,0,1
5:33.358   120009,N,0,0,0
5:33.397   120023,),0,0,1
5:33.442   120039,(,0,0,2
5:33.494   120058,t,0,0,4
5:33.669   120121,t,0,0,4
5:33.764   120155,),0,0,2
5:34.122   120284,(,0,0,1
5:34.158   120297,N,0,0,0
5:34.178   120304,),0,0,1
5:34.200   120312,(,0,0,2
5:34.267   120336,t,0,0,1
5:34.339   120362,),0,0,2
5:35.011   120604,(,0,0,1
5:35.047   120617,N,0,0,0
5:35.097   120635,),0,0,1
5:35.308   120711,(,0,0,2
5:35.378   120736,t,0,0,0
5:35.481   120773,),0,0,2
5:35.819   120895,(,0,0,1
5:35.842   120903,N,0,0,0
5:35.858   120909,),0,0,1
5:35.936   120937,(,0,0,2
5:36.136   121009,t,0,0,0
5:36.397   121103,),0,0,2
5:36.472   121130,(,0,0,0
5:36.531   121151,p,0,0,0
5:36.631   121187,),0,0,0
5:36.636   121189,(,0,0,1
5:36.667   121200,N,0,0,0
5:36.706   121214,),0,0,1
5:36.867   121272,(,0,0,2
5:36.967   121308,t,0,0,0
5:37.050   121338,),0,0,2
5:38.236   121765,(,0,0,1
5:38.253   121771,N,0,0,0
5:38.272   121778,),0,0,1
5:38.294   121786,(,0,0,2
5:38.453   121843,t,0,0,1
5:38.608   121899,),0,0,2
5:39.072   122066,(,0,0,1
5:39.094   122074,N,0,0,0
5:39.114   122081,),0,0,1
5:39.906   122366,(,0,0,1
5:39.939   122378,N,0,0,0
5:39.958   122385,),0,0,1
5:39.981   122393,(,0,0,2
5:40.125   122445,t,0,0,1
5:40.306   122510,),0,0,2
5:40.789   122684,(,0,0,1
5:40.817   122694,N,0,0,0
5:40.869   122713,),0,0,1
5:41.028   122770,(,0,0,2
5:41.147   122813,t,0,0,0
5:41.253   122851,),0,0,2
5:41.561   122962,(,0,0,1
5:41.617   122982,N,0,0,0
5:41.633   122988,),0,0,1
5:43.239   123566,(,0,0,1
5:43.289   123584,N,0,0,0
5:43.328   123598,),0,0,1
5:43.478   123652,(,0,0,2
5:43.564   123683,t,0,0,0
5:43.636   123709,),0,0,2
5:44.008   123843,(,0,0,1
5:44.033   123852,N,0,0,0
5:44.047   123857,),0,0,1
5:44.064   123863,(,0,0,2
5:44.139   123890,t,0,0,4
5:44.403   123985,t,0,0,4
5:44.481   124013,),0,0,2
5:44.897   124163,(,0,0,1
5:44.931   124175,N,0,0,0
5:44.983   124194,),0,0,1
5:45.067   124224,(,0,0,2
5:45.150   124254,t,0,0,4
5:45.264   124295,t,0,0,4
5:45.342   124323,),0,0,2
5:45.719   124459,(,0,0,1
5:45.744   124468,N,0,0,0
5:45.764   124475,),0,0,1
5:45.847   124505,(,0,0,2
5:45.922   124532,t,0,0,0
5:45.997   124559,),0,0,2
5:46.442   124719,(,0,0,0
5:46.492   124737,p,0,0,0
5:46.569   124765,),0,0,0
5:46.578   124768,(,0,0,1
5:46.611   124780,N,0,0,0
5:46.667   124800,),0,0,1
5:46.806   124850,(,0,0,2
5:46.844   124864,t,0,0,4
5:46.944   124900,t,0,0,4
5:47.078   124948,),0,0,2
5:47.228   125002,(,0,0,0
5:47.289   125024,p,0,0,0
5:47.400   125064,),0,0,0
5:47.406   125066,(,0,0,1
5:47.431   125075,N,0,0,0
5:47.486   125095,),0,0,1
5:47.653   125155,(,0,0,2
5:47.761   125194,t,0,0,0
5:47.856   125228,),0,0,2
5:48.167   125340,(,0,0,1
5:48.211   125356,N,0,0,0
5:48.297   125387,),0,0,1
5:48.456   125444,(,0,0,2
5:48.569   125485,t,0,0,0
5:48.647   125513,),0,0,2
5:48.758   125553,(,0,0,0
5:48.792   125565,p,0,0,0
5:48.844   125584,),0,0,0
5:49.022   125648,(,0,0,1
5:49.053   125659,N,0,0,0
5:49.111   125680,),0,0,1
5:49.156   125696,(,0,0,2
5:49.175   125703,t,0,0,4
5:49.369   125773,t,0,0,4
5:49.433   125796,),0,0,2
5:49.819   125935,(,0,0,1
5:49.872   125954,N,0,0,0
5:49.914   125969,),0,0,1
5:50.061   126022,(,0,0,2
5:50.153   126055,t,0,0,0
5:50.239   126086,),0,0,2
5:50.600   126216,(,0,0,1
5:50.633   126228,N,0,0,0
5:50.653   126235,),0,0,1
5:50.683   126246,(,0,0,2
5:50.808   126291,t,0,0,1
5:51.003   126361,),0,0,2
5:51.364   126491,(,0,0,0
5:51.419   126511,p,0,0,0
5:51.511   126544,),0,0,0
5:51.517   126546,(,0,0,1
5:51.547   126557,N,0,0,0
5:51.608   126579,),0,0,1
5:51.700   126612,(,0,0,2
5:51.769   126637,t,0,0,4
5:51.892   126681,t,0,0,4
5:51.969   126709,),0,0,2
5:52.331   126839,(,0,0,1
5:52.367   126852,N,0,0,0
5:52.383   126858,),0,0,1
5:53.164   127139,(,0,0,1
5:53.192   127149,N,0,0,0
5:53.211   127156,),0,0,1
5:53.289   127184,(,0,0,2
5:53.467   127248,t,0,0,0
5:53.728   127342,),0,0,2
5:54.781   127721,(,0,0,1
5:54.814   127733,N,0,0,0
5:54.833   127740,),0,0,1
5:54.858   127749,(,0,0,2
5:55.006   127802,t,0,0,1
5:55.161   127858,),0,0,2
5:56.258   128253,(,0,0,0
5:56.336   128281,p,0,0,0
5:56.431   128315,),0,0,0
5:56.439   128318,(,0,0,1
5:56.489   128336,N,0,0,0
5:56.533   128352,),0,0,1
5:56.539   128354,(,0,0,2
5:56.597   128375,t,0,0,4
5:56.786   128443,t,0,0,4
5:56.867   128472,),0,0,2
5:57.247   128609,(,0,0,1
5:57.278   128620,N,0,0,0
5:57.297   128627,),0,0,1
5:57.328   128638,(,0,0,2
5:57.458   128685,t,0,0,1
5:57.656   128756,),0,0,2
5:58.114   128921,(,0,0,1
5:58.150   128934,N,0,0,0
5:58.169   128941,),0,0,1
5:58.875   129195,(,0,0,0
5:58.925   129213,p,0,0,0
5:58.992   129237,),0,0,0
5:58.997   129239,(,0,0,1
5:59.031   129251,N,0,0,0
5:59.083   129270,),0,0,1
5:59.233   129324,(,0,0,2
5:59.264   129335,t,0,0,4
5:59.358   129369,t,0,0,4
5:59.442   129399,),0,0,2
5:59.800   129528,(,0,0,1
5:59.811   129532,N,0,0,0
5:59.939   129578,),0,0,1
6:00.067   129624,(,0,0,2
6:00.139   129650,t,0,0,0
6:00.228   129682,),0,0,2
6:00.547   129797,(,0,0,1
6:00.592   129813,N,0,0,0
6:00.608   129819,),0,0,1
6:00.625   129825,(,0,0,2
6:00.697   129851,t,0,0,4
6:00.942   129939,t,0,0,4
6:01.086   129991,),0,0,2
6:01.225   130041,(,0,0,0
6:01.250   130050,p,0,0,0
6:01.400   130104,),0,0,0
6:01.406   130106,(,0,0,1
6:01.444   130120,N,0,0,0
6:01.494   130138,),0,0,1
6:01.675   130203,(,0,0,2
6:01.775   130239,t,0,0,0
6:01.858   130269,),0,0,2
6:01.967   130308,(,0,0,0
6:01.978   130312,p,0,0,0
6:02.033   130332,),0,0,0
6:02.194   130390,(,0,0,1
6:02.222   130400,N,0,0,0
6:02.239   130406,),0,0,1
6:02.269   130417,(,0,0,2
6:02.389   130460,t,0,0,1
6:02.575   130527,),0,0,2
6:02.953   130663,(,0,0,0
6:02.997   130679,p,0,0,0
6:03.053   130699,),0,0,0
6:03.058   130701,(,0,0,1
6:03.114   130721,N,0,0,0
6:03.158   130737,),0,0,1
6:03.319   130795,(,0,0,2
6:03.414   130829,t,0,0,0
6:03.492   130857,),0,0,2
6:03.878   130996,(,0,0,1
6:03.917   131010,N,0,0,0
6:03.933   131016,),0,0,1
6:03.969   131029,(,0,0,2
6:04.094   131074,t,0,0,1
6:04.297   131147,),0,0,2
6:04.761   131314,(,0,0,1
6:04.789   131324,N,0,0,0
6:04.806   131330,),0,0,1
6:04.825   131337,(,0,0,2
6:05.025   131409,t,0,0,4
6:05.167   131460,t,0,0,4
6:05.231   131483,),0,0,2
6:05.619   131623,(,0,0,1
6:05.644   131632,N,0,0,0
6:05.686   131647,),0,0,1
6:05.842   131703,(,0,0,2
6:05.878   131716,t,0,0,4
6:05.969   131749,t,0,0,4
6:06.064   131783,),0,0,2
6:06.136   131809,(,0,0,0
6:06.139   131810,p,0,0,0
6:06.303   131869,),0,0,0
6:06.381   131897,(,0,0,1
6:06.406   131906,N,0,0,0
6:06.422   131912,),0,0,1
6:07.161   132178,(,0,0,1
6:07.197   132191,N,0,0,0
6:07.217   132198,),0,0,1
6:07.294   132226,(,0,0,2
6:07.475   132291,t,0,0,0
6:07.606   132338,),0,0,2
6:07.678   132364,(,0,0,0
6:07.711   132376,p,0,0,0
6:07.764   132395,),0,0,0
6:07.992   132477,(,0,0,1
6:08.017   132486,N,0,0,0
6:08.036   132493,),0,0,1
6:08.069   132505,(,0,0,2
6:08.183   132546,t,0,0,1
6:08.372   132614,),0,0,2
6:09.450   133002,(,0,0,0
6:09.567   133044,p,0,0,0
6:09.617   133062,),0,0,0
6:09.692   133089,(,0,0,1
6:09.744   133108,N,0,0,0
6:09.792   133125,),0,0,1
6:09.797   133127,(,0,0,2
6:09.856   133148,t,0,0,4
6:10.050   133218,t,0,0,4
6:10.133   133248,),0,0,2
6:10.494   133378,(,0,0,1
6:10.550   133398,N,0,0,0
6:10.567   133404,),0,0,1
6:10.600   133416,(,0,0,2
6:10.744   133468,t,0,0,1
6:10.931   133535,),0,0,2
6:11.375   133695,(,0,0,1
6:11.403   133705,N,0,0,0
6:11.419   133711,),0,0,1
6:11.508   133743,(,0,0,2
6:11.594   133774,t,0,0,0
6:11.633   133788,),0,0,2
6:12.967   134268,(,0,0,1
6:13.017   134286,N,0,0,0
6:13.075   134307,),0,0,1
6:13.253   134371,(,0,0,2
6:13.325   134397,t,0,0,0
6:13.417   134430,),0,0,2
6:13.633   134508,(,0,0,0
6:13.686   134527,p,0,0,0
6:13.786   134563,),0,0,0
6:13.794   134566,(,0,0,1
6:13.881   134597,N,0,0,0
6:13.942   134619,),0,0,1
6:14.042   134655,(,0,0,2
6:14.156   134696,t,0,0,5
6:14.233   134724,t,0,0,5
6:14.278   134740,),0,0,2
6:14.575   134847,(,0,0,1
6:14.631   134867,N,0,0,0
6:14.647   134873,),0,0,1
6:14.669   134881,(,0,0,2
6:14.814   134933,t,0,0,1
6:15.000   135000,),0,0,2
6:15.178   135064,(,0,0,0
6:15.200   135072,p,0,0,0
6:15.267   135096,),0,0,0
6:15.489   135176,(,0,0,1
6:15.517   135186,N,0,0,0
6:15.564   135203,),0,0,1
6:15.569   135205,(,0,0,2
6:15.625   135225,t,0,0,4
6:15.858   135309,t,0,0,4
6:15.939   135338,),0,0,2
6:16.256   135452,(,0,0,0
6:16.281   135461,p,0,0,0
6:16.325   135477,),0,0,0
6:16.331   135479,(,0,0,1
6:16.386   135499,N,0,0,0
6:16.428   135514,),0,0,1
6:16.597   135575,(,0,0,2
6:16.694   135610,t,0,0,0
6:16.753   135631,),0,0,2
6:17.158   135777,(,0,0,1
6:17.183   135786,N,0,0,0
6:17.200   135792,),0,0,1
6:18.011   136084,(,0,0,1
6:18.039   136094,N,0,0,0
6:18.094   136114,),0,0,1
6:18.197   136151,(,0,0,2
6:18.250   136170,t,0,0,4
6:18.372   136214,t,0,0,4
6:18.447   136241,),0,0,2
6:18.794   136366,(,0,0,1
6:18.831   136379,N,0,0,0
6:18.878   136396,),0,0,1
6:19.031   136451,(,0,0,2
6:19.067   136464,t,0,0,4
6:19.164   136499,t,0,0,4
6:19.239   136526,),0,0,2
6:19.561   136642,(,0,0,1
6:19.678   136684,N,0,0,0
6:19.681   136685,),0,0,1
6:19.869   136753,(,0,0,2
6:19.931   136775,t,0,0,0
6:20.039   136814,),0,0,2
6:20.403   136945,(,0,0,1
6:20.503   136981,N,0,0,0
6:20.506   136982,),0,0,1
6:20.686   137047,(,0,0,2
6:20.786   137083,t,0,0,0
6:20.881   137117,),0,0,2
6:21.233   137244,(,0,0,1
6:21.258   137253,N,0,0,0
6:21.278   137260,),0,0,1
6:21.314   137273,(,0,0,2
6:21.467   137328,t,0,0,1
6:21.639   137390,),0,0,2
6:21.825   137457,(,0,0,0
6:21.856   137468,p,0,0,0
6:21.933   137496,),0,0,0
6:22.122   137564,(,0,0,1
6:22.153   137575,N,0,0,0
6:22.211   137596,),0,0,1
6:22.386   137659,(,0,0,2
6:22.483   137694,t,0,0,0
6:22.556   137720,),0,0,2
6:22.850   137826,(,0,0,0
6:22.867   137832,p,0,0,0
6:22.953   137863,),0,0,0
6:22.956   137864,(,0,0,1
6:23.006   137882,N,0,0,0
6:23.053   137899,),0,0,1
6:23.228   137962,(,0,0,2
6:23.308   137991,t,0,0,0
6:23.411   138028,),0,0,2
6:23.789   138164,(,0,0,1
6:23.844   138184,N,0,0,0
6:23.883   138198,),0,0,1
6:23.889   138200,(,0,0,2
6:23.953   138223,t,0,0,4
6:24.142   138291,t,0,0,4
6:24.208   138315,),0,0,2
6:24.439   138398,(,0,0,0
6:24.500   138420,p,0,0,0
6:24.594   138454,),0,0,0
6:24.603   138457,(,0,0,1
6:24.647   138473,N,0,0,0
6:24.686   138487,),0,0,1
6:24.731   138503,(,0,0,2
6:24.764   138515,t,0,0,4
6:24.961   138586,t,0,0,4
6:25.022   138608,),0,0,2
6:25.222   138680,(,0,0,0
6:25.281   138701,p,0,0,0
6:25.386   138739,),0,0,0
6:25.394   138742,(,0,0,1
6:25.417   138750,N,0,0,0
6:25.481   138773,),0,0,1
6:25.594   138814,(,0,0,2
6:25.631   138827,t,0,0,4
6:25.742   138867,t,0,0,4
6:25.869   138913,),0,0,2
6:26.206   139034,(,0,0,1
6:26.239   139046,N,0,0,0
6:26.294   139066,),0,0,1
6:26.458   139125,(,0,0,2
6:26.489   139136,t,0,0,4
6:26.581   139169,t,0,0,4
6:26.656   139196,),0,0,2
6:26.994   139318,(,0,0,1
6:27.042   139335,N,0,0,0
6:27.061   139342,),0,0,1
6:27.078   139348,(,0,0,2
6:27.147   139373,t,0,0,4
6:27.408   139467,t,0,0,4
6:27.503   139501,),0,0,2
6:27.872   139634,(,0,0,1
6:27.919   139651,N,0,0,0
6:27.939   139658,),0,0,1
6:27.958   139665,(,0,0,2
6:28.025   139689,t,0,0,4
6:28.294   139786,t,0,0,4
6:28.367   139812,),0,0,2
6:28.742   139947,(,0,0,1
6:28.769   139957,N,0,0,0
6:28.786   139963,),0,0,1
6:28.800   139968,(,0,0,2
6:28.878   139996,t,0,0,4
6:29.144   140092,t,0,0,4
6:29.253   140131,),0,0,2
6:29.558   140241,(,0,0,1
6:29.583   140250,N,0,0,0
6:29.600   140256,),0,0,1
6:30.375   140535,(,0,0,1
6:30.403   140545,N,0,0,0
6:30.422   140552,),0,0,1
6:30.447   140561,(,0,0,2
6:30.547   140597,t,0,0,1
6:30.742   140667,),0,0,2
6:31.056   140780,(,0,0,0
6:31.156   140816,p,0,0,0
6:31.208   140835,),0,0,0
6:31.214   140837,(,0,0,1
6:31.261   140854,N,0,0,0
6:31.306   140870,),0,0,1
6:31.417   140910,(,0,0,2
6:31.444   140920,t,0,0,4
6:31.561   140962,t,0,0,4
6:31.644   140992,),0,0,2
6:31.789   141044,(,0,0,0
6:31.872   141074,p,0,0,0
6:31.947   141101,),0,0,0
6:31.975   141111,(,0,0,1
6:31.997   141119,N,0,0,0
6:32.014   141125,),0,0,1
6:32.056   141140,(,0,0,2
6:32.161   141178,t,0,0,1
6:32.331   141239,),0,0,2
6:32.758   141393,(,0,0,1
6:32.822   141416,N,0,0,0
6:32.842   141423,),0,0,1
6:32.858   141429,(,0,0,2
6:32.925   141453,t,0,0,4
6:33.183   141546,t,0,0,4
6:33.253   141571,),0,0,2
6:33.383   141618,(,0,0,0
6:33.414   141629,p,0,0,0
6:33.458   141645,),0,0,0
6:33.625   141705,(,0,0,1
6:33.675   141723,N,0,0,0
6:33.692   141729,),0,0,1
6:33.722   141740,(,0,0,2
6:33.869   141793,t,0,0,1
6:34.056   141860,),0,0,2
6:34.508   142023,(,0,0,1
6:34.542   142035,N,0,0,0
6:34.561   142042,),0,0,1
6:34.592   142053,(,0,0,2
6:34.750   142110,t,0,0,1
6:34.914   142169,),0,0,2
6:35.358   142329,(,0,0,1
6:35.372   142334,N,0,0,0
6:35.392   142341,),0,0,1
6:35.475   142371,(,0,0,2
6:35.719   142459,t,0,0,0
6:35.811   142492,),0,0,2
6:36.142   142611,(,0,0,1
6:36.172   142622,N,0,0,0
6:36.186   142627,),0,0,1
6:36.206   142634,(,0,0,2
6:36.281   142661,t,0,0,4
6:36.542   142755,t,0,0,4
6:36.644   142792,),0,0,2
6:36.975   142911,(,0,0,1
6:36.997   142919,N,0,0,0
6:37.017   142926,),0,0,1
6:37.100   142956,(,0,0,2
6:37.314   143033,t,0,0,0
6:37.503   143101,),0,0,2
6:37.775   143199,(,0,0,1
6:37.806   143210,N,0,0,0
6:37.822   143216,),0,0,1
6:37.856   143228,(,0,0,2
6:38.000   143280,t,0,0,1
6:38.150   143334,),0,0,2
6:38.328   143398,(,0,0,0
6:38.358   143409,p,0,0,0
6:38.411   143428,),0,0,0
6:38.597   143495,(,0,0,1
6:38.622   143504,N,0,0,0
6:38.639   143510,),0,0,1
6:38.658   143517,(,0,0,2
6:38.803   143569,t,0,0,1
6:38.975   143631,),0,0,2
6:39.297   143747,(,0,0,0
6:39.328   143758,p,0,0,0
6:39.381   143777,),0,0,0
6:39.450   143802,(,0,0,1
6:39.475   143811,N,0,0,0
6:39.492   143817,),0,0,1
6:39.536   143833,(,0,0,2
6:39.681   143885,t,0,0,1
6:39.831   143939,),0,0,2
6:40.272   144098,(,0,0,1
6:40.328   144118,N,0,0,0
6:40.347   144125,),0,0,1
6:40.386   144139,(,0,0,2
6:40.492   144177,t,0,0,1
6:40.681   144245,),0,0,2
6:41.158   144417,(,0,0,1
6:41.189   144428,N,0,0,0
6:41.206   144434,),0,0,1
6:41.225   144441,(,0,0,2
6:41.294   144466,t,0,0,4
6:41.542   144555,t,0,0,4
6:41.619   144583,),0,0,2
6:41.967   144708,(,0,0,1
6:41.992   144717,N,0,0,0
6:42.011   144724,),0,0,1
6:42.142   144771,(,0,0,2
6:42.225   144801,t,0,0,4
6:42.342   144843,t,0,0,4
6:42.425   144873,),0,0,2
6:42.722   144980,(,0,0,1
6:42.775   144999,N,0,0,0
6:42.792   145005,),0,0,1
6:43.569   145285,(,0,0,1
6:43.600   145296,N,0,0,0
6:43.619   145303,),0,0,1
6:44.392   145581,(,0,0,1
6:44.419   145591,N,0,0,0
6:44.436   145597,),0,0,1
6:44.467   145608,(,0,0,2
6:44.642   145671,t,0,0,1
6:44.792   145725,),0,0,2
6:45.222   145880,(,0,0,1
6:45.250   145890,N,0,0,0
6:45.269   145897,),0,0,1
6:45.519   145987,(,0,0,2
6:45.628   146026,t,0,0,0
6:45.725   146061,),0,0,2
6:46.072   146186,(,0,0,1
6:46.111   146200,N,0,0,0
6:46.131   146207,),0,0,1
6:46.161   146218,(,0,0,2
6:46.303   146269,t,0,0,1
6:46.472   146330,),0,0,2
6:46.925   146493,(,0,0,1
6:46.958   146505,N,0,0,0
6:46.978   146512,),0,0,1
6:47.003   146521,(,0,0,2
6:47.103   146557,t,0,0,1
6:47.303   146629,),0,0,2
6:49.356   147368,(,0,0,1
6:49.386   147379,N,0,0,0
6:49.406   147386,),0,0,1
6:49.483   147414,(,0,0,2
6:49.631   147467,t,0,0,0
6:49.833   147540,),0,0,2
6:50.192   147669,(,0,0,1
6:50.228   147682,N,0,0,0
6:50.244   147688,),0,0,1
6:50.267   147696,(,0,0,2
6:50.342   147723,t,0,0,4
6:50.606   147818,t,0,0,4
6:50.733   147864,),0,0,2
6:51.042   147975,(,0,0,1
6:51.072   147986,N,0,0,0
6:51.092   147993,),0,0,1
6:51.142   148011,(,0,0,2
6:51.172   148022,t,0,0,4
6:51.444   148120,t,0,0,4
6:51.517   148146,),0,0,2
6:51.858   148269,(,0,0,1
6:51.908   148287,N,0,0,0
6:51.925   148293,),0,0,1
6:52.008   148323,(,0,0,2
6:52.256   148412,t,0,0,0
6:52.394   148462,),0,0,2
6:52.725   148581,(,0,0,1
6:52.758   148593,N,0,0,0
6:52.775   148599,),0,0,1
6:53.556   148880,(,0,0,1
6:53.586   148891,N,0,0,0
6:53.603   148897,),0,0,1
6:53.628   148906,(,0,0,2
6:53.775   148959,t,0,0,1
6:53.939   149018,),0,0,2
6:54.178   149104,(,0,0,0
6:54.219   149119,p,0,0,0
6:54.267   149136,),0,0,0
6:54.378   149176,(,0,0,1
6:54.403   149185,N,0,0,0
6:54.419   149191,),0,0,1
6:54.450   149202,(,0,0,2
6:54.533   149232,t,0,0,1
6:54.722   149300,),0,0,2
6:55.158   149457,(,0,0,1
6:55.192   149469,N,0,0,0
6:55.208   149475,),0,0,1
6:55.244   149488,(,0,0,2
6:55.342   149523,t,0,0,1
6:55.517   149586,),0,0,2
6:55.956   149744,(,0,0,1
6:55.983   149754,N,0,0,0
6:56.000   149760,),0,0,1
6:56.083   149790,(,0,0,2
6:56.147   149813,t,0,0,1
6:56.336   149881,),0,0,2
6:56.822   150056,(,0,0,1
6:56.847   150065,N,0,0,0
6:56.864   150071,),0,0,1
6:56.889   150080,(,0,0,2
6:56.958   150105,t,0,0,4
6:57.214   150197,t,0,0,4
6:57.303   150229,),0,0,2
6:57.672   150362,(,0,0,1
6:57.706   150374,N,0,0,0
6:57.725   150381,),0,0,1
6:57.747   150389,(,0,0,2
6:57.817   150414,t,0,0,4
6:58.075   150507,t,0,0,4
6:58.172   150542,),0,0,2
6:58.197   150551,(,0,0,0
6:58.217   150558,p,0,0,0
6:58.347   150605,),0,0,0
6:58.472   150650,(,0,0,1
6:58.544   150676,N,0,0,0
6:58.561   150682,),0,0,1
6:59.356   150968,(,0,0,1
6:59.381   150977,N,0,0,0
6:59.400   150984,),0,0,1
6:59.475   151011,(,0,0,2
6:59.722   151100,t,0,0,0
6:59.833   151140,),0,0,2
7:00.172   151262,(,0,0,1
7:00.194   151270,N,0,0,0
7:00.211   151276,),0,0,1
7:00.456   151364,(,0,0,2
7:00.553   151399,t,0,0,0
7:00.661   151438,),0,0,2
7:00.972   151550,(,0,0,1
7:01.006   151562,N,0,0,0
7:01.022   151568,),0,0,1
7:01.558   151761,(,0,0,0
7:01.594   151774,p,0,0,0
7:01.639   151790,),0,0,0
7:01.739   151826,(,0,0,1
7:01.800   151848,N,0,0,0
7:01.817   151854,),0,0,1
7:02.572   152126,(,0,0,1
7:02.614   152141,N,0,0,0
7:02.631   152147,),0,0,1
7:02.669   152161,(,0,0,2
7:02.811   152212,t,0,0,1
7:02.981   152273,),0,0,2
7:03.453   152443,(,0,0,1
7:03.492   152457,N,0,0,0
7:03.511   152464,),0,0,1
7:03.533   152472,(,0,0,2
7:03.686   152527,t,0,0,1
7:03.853   152587,),0,0,2
7:04.286   152743,(,0,0,1
7:04.344   152764,N,0,0,0
7:04.361   152770,),0,0,1
7:05.136   153049,(,0,0,1
7:05.169   153061,N,0,0,0
7:05.183   153066,),0,0,1
7:05.197   153071,(,0,0,2
7:05.281   153101,t,0,0,4
7:05.531   153191,t,0,0,4
7:05.617   153222,),0,0,2
7:05.953   153343,(,0,0,1
7:05.978   153352,N,0,0,0
7:05.997   153359,),0,0,1
7:06.067   153384,(,0,0,2
7:06.214   153437,t,0,0,0
7:06.436   153517,),0,0,2
7:06.753   153631,(,0,0,1
7:06.775   153639,N,0,0,0
7:06.794   153646,),0,0,1
7:07.556   153920,(,0,0,1
7:07.592   153933,N,0,0,0
7:07.608   153939,),0,0,1
7:07.628   153946,(,0,0,2
7:07.775   153999,t,0,0,1
7:07.936   154057,),0,0,2
7:09.203   154513,(,0,0,1
7:09.242   154527,N,0,0,0
7:09.261   154534,),0,0,1
7:09.294   154546,(,0,0,2
7:09.389   154580,t,0,0,1
7:09.619   154663,),0,0,2
7:10.103   154837,(,0,0,1
7:10.131   154847,N,0,0,0
7:10.147   154853,),0,0,1
7:10.953   155143,(,0,0,1
7:10.978   155152,N,0,0,0
7:10.997   155159,),0,0,1
7:11.072   155186,(,0,0,2
7:11.242   155247,t,0,0,0
7:11.425   155313,),0,0,2
7:11.756   155432,(,0,0,1
7:11.783   155442,N,0,0,0
7:11.803   155449,),0,0,1
7:11.878   155476,(,0,0,2
7:12.108   155559,t,0,0,0
7:12.278   155620,),0,0,2
7:12.519   155707,(,0,0,1
7:12.581   155729,N,0,0,0
7:12.597   155735,),0,0,1
7:12.833   155820,(,0,0,2
7:12.919   155851,t,0,0,0
7:13.025   155889,),0,0,2
7:13.319   155995,(,0,0,1
7:13.383   156018,N,0,0,0
7:13.403   156025,),0,0,1
7:13.661   156118,(,0,0,2
7:13.731   156143,t,0,0,0
7:13.817   156174,),0,0,2
7:14.186   156307,(,0,0,1
7:14.211   156316,N,0,0,0
7:14.228   156322,),0,0,1
7:14.278   156340,(,0,0,2
7:14.311   156352,t,0,0,4
7:14.564   156443,t,0,0,4
7:14.667   156480,),0,0,2
7:14.986   156595,(,0,0,1
7:15.039   156614,N,0,0,0
7:15.056   156620,),0,0,1
7:18.336   157801,(,0,0,1
7:18.364   157811,N,0,0,0
7:18.383   157818,),0,0,1
7:18.536   157873,(,0,0,2
7:18.600   157896,t,0,0,4
7:18.728   157942,t,0,0,4
7:18.817   157974,),0,0,2
7:19.133   158088,(,0,0,1
7:19.161   158098,N,0,0,0
7:19.181   158105,),0,0,1
7:19.231   158123,(,0,0,2
7:19.267   158136,t,0,0,4
7:19.522   158228,t,0,0,4
7:19.600   158256,),0,0,2
7:19.953   158383,(,0,0,1
7:19.981   158393,N,0,0,0
7:19.997   158399,),0,0,1
7:20.019   158407,(,0,0,2
7:20.092   158433,t,0,0,4
7:20.350   158526,t,0,0,4
7:20.442   158559,),0,0,2
7:20.767   158676,(,0,0,1
7:20.819   158695,N,0,0,0
7:20.836   158701,),0,0,1
7:21.622   158984,(,0,0,1
7:21.669   159001,N,0,0,0
7:21.686   159007,),0,0,1
7:21.706   159014,(,0,0,2
7:21.825   159057,t,0,0,1
7:22.019   159127,),0,0,2
7:23.317   159594,(,0,0,1
7:23.381   159617,N,0,0,0
7:23.397   159623,),0,0,1
7:23.431   159635,(,0,0,2
7:23.542   159675,t,0,0,1
7:23.728   159742,),0,0,2
7:24.153   159895,(,0,0,1
7:24.178   159904,N,0,0,0
7:24.197   159911,),0,0,1
7:24.219   159919,(,0,0,2
7:24.300   159948,t,0,0,1
7:24.503   160021,),0,0,2
7:24.900   160164,(,0,0,1
7:24.964   160187,N,0,0,0
7:24.981   160193,),0,0,1
7:25.000   160200,(,0,0,2
7:25.069   160225,t,0,0,4
7:25.336   160321,t,0,0,4
7:25.408   160347,),0,0,2
7:25.733   160464,(,0,0,1
7:25.764   160475,N,0,0,0
7:25.783   160482,),0,0,1
7:26.003   160561,(,0,0,2
7:26.042   160575,t,0,0,4
7:26.144   160612,t,0,0,4
7:26.203   160633,),0,0,2
7:26.583   160770,(,0,0,1
7:26.606   160778,N,0,0,0
7:26.625   160785,),0,0,1
7:26.711   160816,(,0,0,2
7:26.897   160883,t,0,0,0
7:27.061   160942,),0,0,2
7:29.917   161970,(,0,0,1
7:29.969   161989,N,0,0,0
7:29.986   161995,),0,0,1
7:30.025   162009,(,0,0,2
7:30.131   162047,t,0,0,1
7:30.317   162114,),0,0,2
7:30.731   162263,(,0,0,1
7:30.761   162274,N,0,0,0
7:30.778   162280,),0,0,1
7:30.881   162317,(,0,0,2
7:30.933   162336,t,0,0,4
7:31.125   162405,t,0,0,4
7:31.172   162422,),0,0,2
7:31.533   162552,(,0,0,1
7:31.561   162562,N,0,0,0
7:31.581   162569,),0,0,1
7:34.064   163463,(,0,0,1
7:34.103   163477,N,0,0,0
7:34.122   163484,),0,0,1
7:34.206   163514,(,0,0,2
7:34.453   163603,t,0,0,0
7:34.547   163637,),0,0,2
7:34.883   163758,(,0,0,1
7:34.933   163776,N,0,0,0
7:34.950   163782,),0,0,1
7:35.000   163800,(,0,0,2
7:35.039   163814,t,0,0,4
7:35.303   163909,t,0,0,4
7:35.361   163930,),0,0,2
7:38.147   164933,(,0,0,1
7:38.169   164941,N,0,0,0
7:38.189   164948,),0,0,1
7:38.214   164957,(,0,0,2
7:38.389   165020,t,0,0,1
7:38.533   165072,),0,0,2
7:41.467   166128,(,0,0,1
7:41.533   166152,N,0,0,0
7:41.550   166158,),0,0,1
7:41.636   166189,(,0,0,2
7:41.800   166248,t,0,0,0
7:41.964   166307,),0,0,2
7:42.333   166440,(,0,0,1
7:42.367   166452,N,0,0,0
7:42.383   166458,),0,0,1
7:43.911   167008,(,0,0,1
7:43.972   167030,N,0,0,0
7:43.989   167036,),0,0,1
7:44.025   167049,(,0,0,2
7:44.158   167097,t,0,0,1
7:44.322   167156,),0,0,2
7:45.614   167621,(,0,0,1
7:45.656   167636,N,0,0,0
7:45.675   167643,),0,0,1
7:47.314   168233,(,0,0,1
7:47.350   168246,N,0,0,0
7:47.369   168253,),0,0,1
7:47.392   168261,(,0,0,2
7:47.522   168308,t,0,0,1
7:47.697   168371,),0,0,2
7:48.111   168520,(,0,0,1
7:48.142   168531,N,0,0,0
7:48.161   168538,),0,0,1
7:48.236   168565,(,0,0,2
7:48.392   168621,t,0,0,0
7:48.583   168690,),0,0,2
7:49.744   169108,(,0,0,1
7:49.769   169117,N,0,0,0
7:49.786   169123,),0,0,1
7:49.806   169130,(,0,0,2
7:49.881   169157,t,0,0,4
7:50.131   169247,t,0,0,4
7:50.242   169287,),0,0,2
7:54.697   170891,(,0,0,1
7:54.742   170907,N,0,0,0
7:54.761   170914,),0,0,1
7:54.789   170924,(,0,0,2
7:54.903   170965,t,0,0,1
7:55.097   171035,),0,0,2
7:55.547   171197,(,0,0,1
7:55.572   171206,N,0,0,0
7:55.589   171212,),0,0,1
7:55.706   171254,(,0,0,2
7:55.806   171290,t,0,0,4
7:55.933   171336,t,0,0,4
7:56.025   171369,),0,0,2
7:56.361   171490,(,0,0,1
7:56.394   171502,N,0,0,0
7:56.411   171508,),0,0,1
7:57.194   171790,(,0,0,1
7:57.225   171801,N,0,0,0
7:57.244   171808,),0,0,1
7:57.269   171817,(,0,0,2
7:57.400   171864,t,0,0,1
7:57.589   171932,),0,0,2
7:58.044   172096,(,0,0,1
7:58.078   172108,N,0,0,0
7:58.097   172115,),0,0,1
7:58.172   172142,(,0,0,2
7:58.328   172198,t,0,0,0
7:58.531   172271,),0,0,2
7:58.861   172390,(,0,0,1
7:58.922   172412,N,0,0,0
7:58.939   172418,),0,0,1
8:02.978   173872,(,0,0,1
8:03.017   173886,N,0,0,0
8:03.036   173893,),0,0,1
8:03.056   173900,(,0,0,2
8:03.128   173926,t,0,0,4
8:03.381   174017,t,0,0,4
8:03.461   174046,),0,0,2
8:03.828   174178,(,0,0,1
8:03.853   174187,N,0,0,0
8:03.872   174194,),0,0,1
8:03.894   174202,(,0,0,2
8:04.044   174256,t,0,0,1
8:04.214   174317,),0,0,2
8:04.661   174478,(,0,0,1
8:04.703   174493,N,0,0,0
8:04.722   174500,),0,0,1
8:04.742   174507,(,0,0,2
8:04.817   174534,t,0,0,4
8:05.069   174625,t,0,0,4
8:05.169   174661,),0,0,2
8:05.494   174778,(,0,0,1
8:05.539   174794,N,0,0,0
8:05.556   174800,),0,0,1
8:06.325   175077,(,0,0,1
8:06.358   175089,N,0,0,0
8:06.375   175095,),0,0,1
8:06.428   175114,(,0,0,2
8:06.475   175131,t,0,0,4
8:06.703   175213,t,0,0,4
8:06.803   175249,),0,0,2
8:06.992   175317,(,0,0,0
8:07.022   175328,p,0,0,0
8:07.072   175346,),0,0,0
8:07.131   175367,(,0,0,1
8:07.156   175376,N,0,0,0
8:07.169   175381,),0,0,1
8:07.206   175394,(,0,0,2
8:07.344   175444,t,0,0,1
8:07.492   175497,),0,0,2
8:07.908   175647,(,0,0,1
8:07.947   175661,N,0,0,0
8:07.967   175668,),0,0,1
8:07.997   175679,(,0,0,2
8:08.117   175722,t,0,0,1
8:08.308   175791,),0,0,2
8:17.092   178953,(,0,0,1
8:17.122   178964,N,0,0,0
8:17.142   178971,),0,0,1
8:17.317   179034,(,0,0,2
8:17.389   179060,t,0,0,1
8:17.492   179097,),0,0,2
8:18.725   179541,(,0,0,1
8:18.747   179549,N,0,0,0
8:18.764   179555,),0,0,1
8:18.844   179584,(,0,0,2
8:19.011   179644,t,0,0,0
8:19.236   179725,),0,0,2
8:29.506   183422,(,0,0,1
8:29.553   183439,N,0,0,0
8:29.569   183445,),0,0,1
8:29.667   183480,(,0,0,2
8:29.711   183496,t,0,0,4
8:29.894   183562,t,0,0,4
8:29.986   183595,),0,0,2
8:30.325   183717,(,0,0,1
8:30.342   183723,N,0,0,0
8:30.358   183729,),0,0,1
8:30.536   183793,(,0,0,2
8:30.600   183816,t,0,0,1
8:30.700   183852,),0,0,2
8:32.758   184593,(,0,0,1
8:32.783   184602,N,0,0,0
8:32.800   184608,),0,0,1
8:32.853   184627,(,0,0,2
8:32.889   184640,t,0,0,4
8:33.158   184737,t,0,0,4
8:33.242   184767,),0,0,2
8:33.597   184895,(,0,0,1
8:33.622   184904,N,0,0,0
8:33.639   184910,),0,0,1
8:36.106   185798,(,0,0,1
8:36.136   185809,N,0,0,0
8:36.153   185815,),0,0,1
8:36.169   185821,(,0,0,2
8:36.294   185866,t,0,0,1
8:36.478   185932,),0,0,2
8:36.906   186086,(,0,0,1
8:36.928   186094,N,0,0,0
8:36.944   186100,),0,0,1
8:36.997   186119,(,0,0,2
8:37.069   186145,t,0,0,1
8:37.275   186219,),0,0,2
8:37.397   186263,(,0,0,0
8:37.406   186266,p,0,0,0
8:37.558   186321,),0,0,0
8:37.686   186367,(,0,0,1
8:37.731   186383,N,0,0,0
8:37.747   186389,),0,0,1
8:37.853   186427,(,0,0,2
8:37.900   186444,t,0,0,4
8:38.108   186519,t,0,0,4
8:38.175   186543,),0,0,2
8:39.264   186935,(,0,0,0
8:39.308   186951,p,0,0,0
8:39.425   186993,),0,0,0
8:39.431   186995,(,0,0,1
8:39.522   187028,N,0,0,0
8:39.525   187029,),0,0,1
8:39.733   187104,(,0,0,2
8:39.803   187129,t,0,0,0
8:39.919   187171,),0,0,2
8:40.239   187286,(,0,0,1
8:40.272   187298,N,0,0,0
8:40.289   187304,),0,0,1
8:40.311   187312,(,0,0,2
8:40.381   187337,t,0,0,4
8:40.639   187430,t,0,0,4
8:40.725   187461,),0,0,2
8:41.086   187591,(,0,0,1
8:41.125   187605,N,0,0,0
8:41.144   187612,),0,0,1
8:41.903   187885,(,0,0,1
8:41.953   187903,N,0,0,0
8:41.969   187909,),0,0,1
8:41.986   187915,(,0,0,2
8:42.092   187953,t,0,0,1
8:42.300   188028,),0,0,2
8:46.036   189373,(,0,0,1
8:46.058   189381,N,0,0,0
8:46.078   189388,),0,0,1
8:46.100   189396,(,0,0,2
8:46.256   189452,t,0,0,1
8:46.433   189516,),0,0,2
8:46.869   189673,(,0,0,1
8:46.889   189680,N,0,0,0
8:46.908   189687,),0,0,1
8:49.153   190495,(,0,0,0
8:49.225   190521,p,0,0,0
8:49.328   190558,),0,0,0
8:49.336   190561,(,0,0,1
8:49.422   190592,N,0,0,0
8:49.425   190593,),0,0,1
8:49.581   190649,(,0,0,2
8:49.672   190682,t,0,0,0
8:49.753   190711,),0,0,2
8:50.950   191142,(,0,0,1
8:50.983   191154,N,0,0,0
8:51.003   191161,),0,0,1
8:51.056   191180,(,0,0,2
8:51.086   191191,t,0,0,4
8:51.347   191285,t,0,0,4
8:51.450   191322,),0,0,2
8:55.900   192924,(,0,0,1
8:55.925   192933,N,0,0,0
8:55.942   192939,),0,0,1
8:55.961   192946,(,0,0,2
8:56.061   192982,t,0,0,1
8:56.269   193057,),0,0,2
8:56.703   193213,(,0,0,1
8:56.753   193231,N,0,0,0
8:56.772   193238,),0,0,1
8:56.894   193282,(,0,0,2
8:57.000   193320,t,0,0,1
8:57.114   193361,),0,0,2
8:57.569   193525,(,0,0,1
8:57.606   193538,N,0,0,0
8:57.625   193545,),0,0,1
8:57.650   193554,(,0,0,2
8:57.819   193615,t,0,0,1
8:57.986   193675,),0,0,2
8:58.453   193843,(,0,0,1
8:58.478   193852,N,0,0,0
8:58.494   193858,),0,0,1
8:58.581   193889,(,0,0,2
8:58.828   193978,t,0,0,0
8:58.939   194018,),0,0,2
8:58.981   194033,(,0,0,0
8:58.994   194038,p,0,0,0
8:59.158   194097,),0,0,0
8:59.283   194142,(,0,0,1
8:59.308   194151,N,0,0,0
8:59.325   194157,),0,0,1
8:59.375   194175,(,0,0,2
8:59.414   194189,t,0,0,4
8:59.667   194280,t,0,0,4
8:59.764   194315,),0,0,2
9:00.086   194431,(,0,0,1
9:00.106   194438,N,0,0,0
9:00.125   194445,),0,0,1
9:00.203   194473,(,0,0,2
9:00.353   194527,t,0,0,0
9:00.533   194592,),0,0,2
9:01.717   195018,(,0,0,1
9:01.742   195027,N,0,0,0
9:01.758   195033,),0,0,1
9:01.792   195045,(,0,0,2
9:01.919   195091,t,0,0,1
9:02.081   195149,),0,0,2
9:02.533   195312,(,0,0,1
9:02.553   195319,N,0,0,0
9:02.572   195326,),0,0,1
9:02.611   195340,(,0,0,2
9:02.750   195390,t,0,0,1
9:02.908   195447,),0,0,2
9:03.353   195607,(,0,0,1
9:03.403   195625,N,0,0,0
9:03.422   195632,),0,0,1
9:03.450   195642,(,0,0,2
9:03.564   195683,t,0,0,1
9:03.747   195749,),0,0,2
9:04.217   195918,(,0,0,1
9:04.253   195931,N,0,0,0
9:04.272   195938,),0,0,1
9:04.353   195967,(,0,0,2
9:04.503   196021,t,0,0,0
9:04.719   196099,),0,0,2
9:06.725   196821,(,0,0,1
9:06.792   196845,N,0,0,0
9:06.850   196866,),0,0,1
9:06.928   196894,(,0,0,2
9:07.044   196936,t,0,0,0
9:07.131   196967,),0,0,2
9:07.503   197101,(,0,0,1
9:07.528   197110,N,0,0,0
9:07.544   197116,),0,0,1
9:11.558   198561,(,0,0,0
9:11.611   198580,p,0,0,0
9:11.719   198619,),0,0,0
9:11.764   198635,(,0,0,1
9:11.808   198651,N,0,0,0
9:11.917   198690,),0,0,1
9:11.964   198707,(,0,0,2
9:12.064   198743,t,0,0,0
9:12.153   198775,),0,0,2
9:12.522   198908,(,0,0,1
9:12.550   198918,N,0,0,0
9:12.603   198937,),0,0,1
9:12.769   198997,(,0,0,2
9:12.861   199030,t,0,0,0
9:12.944   199060,),0,0,2
9:13.064   199103,(,0,0,0
9:13.092   199113,p,0,0,0
9:13.139   199130,),0,0,0
9:13.311   199192,(,0,0,1
9:13.356   199208,N,0,0,0
9:13.400   199224,),0,0,1
9:13.406   199226,(,0,0,2
9:13.469   199249,t,0,0,4
9:13.678   199324,t,0,0,4
9:13.728   199342,),0,0,2
9:13.972   199430,(,0,0,0
9:14.047   199457,p,0,0,0
9:14.144   199492,),0,0,0
9:14.150   199494,(,0,0,1
9:14.200   199512,N,0,0,0
9:14.247   199529,),0,0,1
9:14.406   199586,(,0,0,2
9:14.492   199617,t,0,0,0
9:14.606   199658,),0,0,2
9:14.986   199795,(,0,0,1
9:15.022   199808,N,0,0,0
9:15.075   199827,),0,0,1
9:15.117   199842,(,0,0,2
9:15.153   199855,t,0,0,4
9:15.347   199925,t,0,0,4
9:15.419   199951,),0,0,2
9:15.794   200086,(,0,0,1
9:15.819   200095,N,0,0,0
9:15.836   200101,),0,0,1
9:15.856   200108,(,0,0,2
9:15.944   200140,t,0,0,4
9:16.192   200229,t,0,0,4
9:16.275   200259,),0,0,2
9:16.561   200362,(,0,0,0
9:16.583   200370,p,0,0,0
9:16.661   200398,),0,0,0
9:16.664   200399,(,0,0,1
9:16.675   200403,N,0,0,0
9:16.794   200446,),0,0,1
9:16.961   200506,(,0,0,2
9:17.025   200529,t,0,0,0
9:17.169   200581,),0,0,2
9:17.317   200634,(,0,0,0
9:17.378   200656,p,0,0,0
9:17.494   200698,),0,0,0
9:17.500   200700,(,0,0,1
9:17.528   200710,N,0,0,0
9:17.586   200731,),0,0,1
9:17.753   200791,(,0,0,2
9:17.858   200829,t,0,0,0
9:17.953   200863,),0,0,2
9:18.075   200907,(,0,0,0
9:18.158   200937,p,0,0,0
9:18.219   200959,),0,0,0
9:18.311   200992,(,0,0,1
9:18.322   200996,N,0,0,0
9:18.447   201041,),0,0,1
9:18.556   201080,(,0,0,2
9:18.650   201114,t,0,0,0
9:18.706   201134,),0,0,2
9:18.950   201222,(,0,0,0
9:19.006   201242,p,0,0,0
9:19.097   201275,),0,0,0
9:19.103   201277,(,0,0,1
9:19.125   201285,N,0,0,0
9:19.172   201302,),0,0,1
9:19.347   201365,(,0,0,2
9:19.442   201399,t,0,0,0
9:19.542   201435,),0,0,2
9:19.728   201502,(,0,0,0
9:19.817   201534,p,0,0,0
9:19.900   201564,),0,0,0
9:19.903   201565,(,0,0,1
9:19.956   201584,N,0,0,0
9:20.000   201600,),0,0,1
9:20.108   201639,(,0,0,2
9:20.150   201654,t,0,0,4
9:20.442   201759,t,0,0,4
9:20.492   201777,),0,0,2
9:20.636   201829,(,0,0,0
9:20.658   201837,p,0,0,0
9:20.756   201872,),0,0,0
9:20.761   201874,(,0,0,1
9:20.811   201892,N,0,0,0
9:20.853   201907,),0,0,1
9:20.858   201909,(,0,0,2
9:20.922   201932,t,0,0,4
9:21.122   202004,t,0,0,4
9:21.186   202027,),0,0,2
9:21.431   202115,(,0,0,0
9:21.486   202135,p,0,0,0
9:21.606   202178,),0,0,0
9:21.611   202180,(,0,0,1
9:21.642   202191,N,0,0,0
9:21.706   202214,),0,0,1
9:21.744   202228,(,0,0,2
9:21.761   202234,t,0,0,4
9:21.964   202307,t,0,0,4
9:22.050   202338,),0,0,2
9:22.258   202413,(,0,0,0
9:22.325   202437,p,0,0,0
9:22.361   202450,),0,0,0
9:22.450   202482,(,0,0,1
9:22.481   202493,N,0,0,0
9:22.606   202538,),0,0,1
9:22.636   202549,(,0,0,2
9:22.697   202571,t,0,0,4
9:22.828   202618,t,0,0,4
9:22.894   202642,),0,0,2
9:23.283   202782,(,0,0,1
9:23.297   202787,N,0,0,0
9:23.308   202791,),0,0,1
9:23.492   202857,(,0,0,2
9:23.553   202879,t,0,0,1
9:23.647   202913,),0,0,2
9:24.106   203078,(,0,0,1
9:24.117   203082,N,0,0,0
9:24.247   203129,),0,0,1
9:24.339   203162,(,0,0,2
9:24.464   203207,t,0,0,0
9:24.528   203230,),0,0,2
9:24.917   203370,(,0,0,1
9:24.944   203380,N,0,0,0
9:24.997   203399,),0,0,1
9:25.178   203464,(,0,0,2
9:25.256   203492,t,0,0,0
9:25.344   203524,),0,0,2
9:25.447   203561,(,0,0,0
9:25.578   203608,p,0,0,0
9:25.608   203619,),0,0,0
9:25.711   203656,(,0,0,1
9:25.742   203667,N,0,0,0
9:25.850   203706,),0,0,1
9:25.972   203750,(,0,0,2
9:26.056   203780,t,0,0,0
9:26.133   203808,),0,0,2
9:26.261   203854,(,0,0,0
9:26.367   203892,p,0,0,0
9:26.392   203901,),0,0,0
9:26.533   203952,(,0,0,1
9:26.564   203963,N,0,0,0
9:26.611   203980,),0,0,1
9:26.681   204005,(,0,0,2
9:26.706   204014,t,0,0,4
9:26.911   204088,t,0,0,4
9:26.992   204117,),0,0,2
9:27.342   204243,(,0,0,0
9:27.356   204248,p,0,0,0
9:27.397   204263,),0,0,0
9:27.403   204265,(,0,0,1
9:27.456   204284,N,0,0,0
9:27.500   204300,),0,0,1
9:27.506   204302,(,0,0,2
9:27.567   204324,t,0,0,4
9:27.781   204401,t,0,0,4
9:27.842   204423,),0,0,2
9:28.250   204570,(,0,0,1
9:28.278   204580,N,0,0,0
9:28.333   204600,),0,0,1
9:28.361   204610,(,0,0,2
9:28.478   204652,t,0,0,4
9:28.619   204703,t,0,0,4
9:28.706   204734,),0,0,2
9:28.819   204775,(,0,0,0
9:28.925   204813,p,0,0,0
9:28.956   204824,),0,0,0
9:29.050   204858,(,0,0,1
9:29.075   204867,N,0,0,0
9:29.092   204873,),0,0,1
9:29.111   204880,(,0,0,2
9:29.186   204907,t,0,0,4
9:29.450   205002,t,0,0,4
9:29.536   205033,),0,0,2
9:29.706   205094,(,0,0,0
9:29.794   205126,p,0,0,0
9:29.881   205157,),0,0,0
9:29.889   205160,(,0,0,1
9:29.917   205170,N,0,0,0
9:29.972   205190,),0,0,1
9:30.144   205252,(,0,0,2
9:30.247   205289,t,0,0,0
9:30.347   205325,),0,0,2
9:30.553   205399,(,0,0,0
9:30.578   205408,p,0,0,0
9:30.692   205449,),0,0,0
9:30.700   205452,(,0,0,1
9:30.728   205462,N,0,0,0
9:30.783   205482,),0,0,1
9:30.972   205550,(,0,0,2
9:31.078   205588,t,0,0,0
9:31.178   205624,),0,0,2
9:31.306   205670,(,0,0,0
9:31.353   205687,p,0,0,0
9:31.431   205715,),0,0,0
9:31.511   205744,(,0,0,1
9:31.533   205752,N,0,0,0
9:31.544   205756,),0,0,1
9:31.767   205836,(,0,0,2
9:31.875   205875,t,0,0,0
9:32.083   205950,),0,0,2
9:32.203   205993,(,0,0,0
9:32.222   206000,p,0,0,0
9:32.314   206033,),0,0,0
9:32.319   206035,(,0,0,1
9:32.344   206044,N,0,0,0
9:32.406   206066,),0,0,1
9:32.514   206105,(,0,0,2
9:32.564   206123,t,0,0,4
9:32.689   206168,t,0,0,4
9:32.917   206250,),0,0,2
9:33.003   206281,(,0,0,0
9:33.044   206296,p,0,0,0
9:33.111   206320,),0,0,0
9:33.144   206332,(,0,0,1
9:33.169   206341,N,0,0,0
9:33.186   206347,),0,0,1
9:33.222   206360,(,0,0,2
9:33.389   206420,t,0,0,1
9:33.569   206485,),0,0,2
9:33.842   206583,(,0,0,0
9:33.931   206615,p,0,0,0
9:33.989   206636,),0,0,0
9:34.022   206648,(,0,0,1
9:34.047   206657,N,0,0,0
9:34.064   206663,),0,0,1
9:34.094   206674,(,0,0,2
9:34.236   206725,t,0,0,1
9:34.411   206788,),0,0,2
9:34.825   206937,(,0,0,0
9:34.842   206943,p,0,0,0
9:34.886   206959,),0,0,0
9:34.889   206960,(,0,0,1
9:34.939   206978,N,0,0,0
9:34.986   206995,),0,0,1
9:35.031   207011,(,0,0,2
9:35.047   207017,t,0,0,4
9:35.250   207090,t,0,0,4
9:35.342   207123,),0,0,2
9:35.358   207129,(,0,0,0
9:35.406   207146,p,0,0,0
9:35.503   207181,),0,0,0
9:35.703   207253,(,0,0,1
9:35.739   207266,N,0,0,0
9:35.858   207309,),0,0,1
9:35.967   207348,(,0,0,2
9:36.064   207383,t,0,0,0
9:36.136   207409,),0,0,2
9:36.297   207467,(,0,0,0
9:36.331   207479,p,0,0,0
9:36.361   207490,),0,0,0
9:36.503   207541,(,0,0,1
9:36.528   207550,N,0,0,0
9:36.675   207603,),0,0,1
9:37.022   207728,(,0,0,2
9:37.056   207740,t,0,0,5
9:37.097   207755,t,0,0,5
9:37.147   207773,),0,0,2
9:37.656   207956,(,0,0,0
9:37.753   207991,p,0,0,0
9:37.789   208004,),0,0,0
9:37.872   208034,(,0,0,1
9:37.897   208043,N,0,0,0
9:37.914   208049,),0,0,1
9:37.944   208060,(,0,0,2
9:38.061   208102,t,0,0,1
9:38.267   208176,),0,0,2
9:38.431   208235,(,0,0,0
9:38.456   208244,p,0,0,0
9:38.517   208266,),0,0,0
9:38.722   208340,(,0,0,1
9:38.750   208350,N,0,0,0
9:38.806   208370,),0,0,1
9:38.986   208435,(,0,0,2
9:39.186   208507,t,0,0,0
9:39.333   208560,),0,0,2
9:39.475   208611,(,0,0,0
9:39.506   208622,p,0,0,0
9:39.561   208642,),0,0,0
9:39.567   208644,(,0,0,1
9:39.622   208664,N,0,0,0
9:39.669   208681,),0,0,1
9:39.789   208724,(,0,0,2
9:39.831   208739,t,0,0,4
9:39.956   208784,t,0,0,4
9:40.019   208807,),0,0,2
9:40.444   208960,(,0,0,1
9:40.472   208970,N,0,0,0
9:40.597   209015,),0,0,1
9:40.714   209057,(,0,0,2
9:40.814   209093,t,0,0,0
9:40.900   209124,),0,0,2
9:41.167   209220,(,0,0,0
9:41.197   209231,p,0,0,0
9:41.217   209238,),0,0,0
9:41.250   209250,(,0,0,1
9:41.275   209259,N,0,0,0
9:41.292   209265,),0,0,1
9:41.397   209303,(,0,0,2
9:41.425   209313,t,0,0,4
9:41.614   209381,t,0,0,4
9:41.708   209415,),0,0,2
9:41.944   209500,(,0,0,0
9:41.969   209509,p,0,0,0
9:42.067   209544,),0,0,0
9:42.072   209546,(,0,0,1
9:42.103   209557,N,0,0,0
9:42.156   209576,),0,0,1
9:42.256   209612,(,0,0,2
9:42.319   209635,t,0,0,4
9:42.431   209675,t,0,0,4
9:42.519   209707,),0,0,2
9:42.725   209781,(,0,0,0
9:42.747   209789,p,0,0,0
9:42.867   209832,),0,0,0
9:42.872   209834,(,0,0,1
9:42.903   209845,N,0,0,0
9:42.956   209864,),0,0,1
9:43.047   209897,(,0,0,2
9:43.122   209924,t,0,0,4
9:43.239   209966,t,0,0,4
9:43.314   209993,),0,0,2
9:43.447   210041,(,0,0,0
9:43.528   210070,p,0,0,0
9:43.556   210080,),0,0,0
9:43.683   210126,(,0,0,1
9:43.697   210131,N,0,0,0
9:43.831   210179,),0,0,1
9:43.936   210217,(,0,0,2
9:44.047   210257,t,0,0,0
9:44.153   210295,),0,0,2
9:44.242   210327,(,0,0,0
9:44.283   210342,p,0,0,0
9:44.306   210350,),0,0,0
9:44.517   210426,(,0,0,1
9:44.528   210430,N,0,0,0
9:44.650   210474,),0,0,1
9:44.772   210518,(,0,0,2
9:44.878   210556,t,0,0,0
9:44.978   210592,),0,0,2
9:45.361   210730,(,0,0,1
9:45.394   210742,N,0,0,0
9:45.519   210787,),0,0,1
9:45.639   210830,(,0,0,2
9:45.836   210901,t,0,0,0
9:45.992   210957,),0,0,2
9:46.219   211039,(,0,0,1
9:46.250   211050,N,0,0,0
9:46.314   211073,),0,0,1
9:46.361   211090,(,0,0,2
9:46.389   211100,t,0,0,4
9:46.603   211177,t,0,0,4
9:46.689   211208,),0,0,2
9:46.956   211304,(,0,0,0
9:46.975   211311,p,0,0,0
9:47.075   211347,),0,0,0
9:47.081   211349,(,0,0,1
9:47.133   211368,N,0,0,0
9:47.178   211384,),0,0,1
9:47.344   211444,(,0,0,2
9:47.428   211474,t,0,0,0
9:47.475   211491,),0,0,2
9:47.744   211588,(,0,0,0
9:47.792   211605,p,0,0,0
9:47.892   211641,),0,0,0
9:47.897   211643,(,0,0,1
9:47.922   211652,N,0,0,0
9:47.978   211672,),0,0,1
9:48.019   211687,(,0,0,2
9:48.053   211699,t,0,0,4
9:48.244   211768,t,0,0,4
9:48.322   211796,),0,0,2
9:48.342   211803,(,0,0,0
9:48.367   211812,p,0,0,0
9:48.461   211846,),0,0,0
9:48.653   211915,(,0,0,1
9:48.678   211924,N,0,0,0
9:48.694   211930,),0,0,1
9:48.844   211984,(,0,0,2
9:48.922   212012,t,0,0,4
9:49.042   212055,t,0,0,4
9:49.114   212081,),0,0,2
9:49.275   212139,(,0,0,0
9:49.300   212148,p,0,0,0
9:49.322   212156,),0,0,0
9:49.472   212210,(,0,0,1
9:49.481   212213,N,0,0,0
9:49.675   212283,),0,0,1
9:49.750   212310,(,0,0,2
9:49.833   212340,t,0,0,0
9:49.906   212366,),0,0,2
9:50.197   212471,(,0,0,0
9:50.233   212484,p,0,0,0
9:50.297   212507,),0,0,0
9:50.303   212509,(,0,0,1
9:50.331   212519,N,0,0,0
9:50.392   212541,),0,0,1
9:50.497   212579,(,0,0,2
9:50.575   212607,t,0,0,1
9:50.683   212646,),0,0,2
9:50.978   212752,(,0,0,0
9:51.036   212773,p,0,0,0
9:51.083   212790,),0,0,0
9:51.117   212802,(,0,0,1
9:51.142   212811,N,0,0,0
9:51.161   212818,),0,0,1
9:51.186   212827,(,0,0,2
9:51.333   212880,t,0,0,1
9:51.522   212948,),0,0,2
9:51.772   213038,(,0,0,0
9:51.789   213044,p,0,0,0
9:51.814   213053,),0,0,0
9:51.992   213117,(,0,0,1
9:52.025   213129,N,0,0,0
9:52.081   213149,),0,0,1
9:52.183   213186,(,0,0,2
9:52.222   213200,t,0,0,4
9:52.361   213250,t,0,0,4
9:52.436   213277,),0,0,2
9:52.608   213339,(,0,0,0
9:52.661   213358,p,0,0,0
9:52.681   213365,),0,0,0
9:52.844   213424,(,0,0,1
9:52.878   213436,N,0,0,0
9:53.008   213483,),0,0,1
9:53.047   213497,(,0,0,2
9:53.106   213518,t,0,0,4
9:53.236   213565,t,0,0,4
9:53.311   213592,),0,0,2
9:53.397   213623,(,0,0,0
9:53.414   213629,p,0,0,0
9:53.569   213685,),0,0,0
9:53.661   213718,(,0,0,1
9:53.686   213727,N,0,0,0
9:53.703   213733,),0,0,1
9:53.731   213743,(,0,0,2
9:53.914   213809,t,0,0,1
9:54.047   213857,),0,0,2
9:54.492   214017,(,0,0,1
9:54.514   214025,N,0,0,0
9:54.572   214046,),0,0,1
9:54.578   214048,(,0,0,2
9:54.628   214066,t,0,0,4
9:54.828   214138,t,0,0,4
9:54.906   214166,),0,0,2
9:55.008   214203,(,0,0,0
9:55.039   214214,p,0,0,0
9:55.056   214220,),0,0,0
9:55.281   214301,(,0,0,1
9:55.306   214310,N,0,0,0
9:55.367   214332,),0,0,1
9:55.547   214397,(,0,0,2
9:55.633   214428,t,0,0,0
9:55.703   214453,),0,0,2
9:56.056   214580,(,0,0,1
9:56.083   214590,N,0,0,0
9:56.100   214596,),0,0,1
9:56.136   214609,(,0,0,2
9:56.250   214650,t,0,0,1
9:56.442   214719,),0,0,2
9:56.914   214889,(,0,0,1
9:56.939   214898,N,0,0,0
9:56.958   214905,),0,0,1
9:56.989   214916,(,0,0,2
9:57.164   214979,t,0,0,1
9:57.328   215038,),0,0,2
9:57.581   215129,(,0,0,0
9:57.608   215139,p,0,0,0
9:57.631   215147,),0,0,0
9:57.772   215198,(,0,0,1
9:57.797   215207,N,0,0,0
9:57.817   215214,),0,0,1
9:57.839   215222,(,0,0,2
9:57.911   215248,t,0,0,1
9:57.981   215273,),0,0,2
9:58.389   215420,(,0,0,0
9:58.475   215451,p,0,0,0
9:58.500   215460,),0,0,0
9:58.636   215509,(,0,0,1
9:58.672   215522,N,0,0,0
9:58.728   215542,),0,0,1
9:58.936   215617,(,0,0,2
9:59.011   215644,t,0,0,0
9:59.086   215671,),0,0,2
9:59.453   215803,(,0,0,1
9:59.478   215812,N,0,0,0
9:59.497   215819,),0,0,1
9:59.550   215838,(,0,0,2
9:59.581   215849,t,0,0,4
9:59.842   215943,t,0,0,4
9:59.967   215988,),0,0,2
   10:00.272   216098,(,0,0,1
   10:00.294   216106,N,0,0,0
   10:00.314   216113,),0,0,1
   10:00.397   216143,(,0,0,2
   10:00.622   216224,t,0,0,0
   10:00.833   216300,),0,0,2
   10:00.939   216338,(,0,0,0
   10:00.986   216355,p,0,0,0
   10:01.081   216389,),0,0,0
   10:01.086   216391,(,0,0,1
   10:01.111   216400,N,0,0,0
   10:01.172   216422,),0,0,1
   10:01.342   216483,(,0,0,2
   10:01.428   216514,t,0,0,0
   10:01.517   216546,),0,0,2
   10:01.747   216629,(,0,0,0
   10:01.811   216652,p,0,0,0
   10:01.878   216676,),0,0,0
   10:01.883   216678,(,0,0,1
   10:01.936   216697,N,0,0,0
   10:01.983   216714,),0,0,1
   10:02.086   216751,(,0,0,2
   10:02.119   216763,t,0,0,4
   10:02.250   216810,t,0,0,4
   10:02.308   216831,),0,0,2
   10:02.372   216854,(,0,0,0
   10:02.400   216864,p,0,0,0
   10:02.489   216896,),0,0,0
   10:02.675   216963,(,0,0,1
   10:02.703   216973,N,0,0,0
   10:02.722   216980,),0,0,1
   10:02.758   216993,(,0,0,2
   10:02.867   217032,t,0,0,1
   10:03.064   217103,),0,0,2
   10:03.386   217219,(,0,0,0
   10:03.419   217231,p,0,0,0
   10:03.447   217241,),0,0,0
   10:03.572   217286,(,0,0,1
   10:03.597   217295,N,0,0,0
   10:03.647   217313,),0,0,1
   10:03.861   217390,(,0,0,2
   10:03.956   217424,t,0,0,0
   10:04.044   217456,),0,0,2
   10:05.228   217882,(,0,0,1
   10:05.253   217891,N,0,0,0
   10:05.269   217897,),0,0,1
   10:05.442   217959,(,0,0,2
   10:05.469   217969,t,0,0,4
   10:05.617   218022,t,0,0,4
   10:05.703   218053,),0,0,2
   10:05.917   218130,(,0,0,0
   10:05.969   218149,p,0,0,0
   10:06.081   218189,),0,0,0
   10:06.083   218190,(,0,0,1
   10:06.094   218194,N,0,0,0
   10:06.217   218238,),0,0,1
   10:06.342   218283,(,0,0,2
   10:06.433   218316,t,0,0,0
   10:06.508   218343,),0,0,2
   10:06.722   218420,(,0,0,0
   10:06.753   218431,p,0,0,0
   10:06.892   218481,),0,0,0
   10:06.894   218482,(,0,0,1
   10:06.922   218492,N,0,0,0
   10:06.983   218514,),0,0,1
   10:07.164   218579,(,0,0,2
   10:07.250   218610,t,0,0,0
   10:07.339   218642,),0,0,2
   10:07.406   218666,(,0,0,0
   10:07.500   218700,p,0,0,0
   10:07.528   218710,),0,0,0
   10:07.658   218757,(,0,0,1
   10:07.683   218766,N,0,0,0
   10:07.700   218772,),0,0,1
   10:08.328   218998,(,0,0,0
   10:08.381   219017,p,0,0,0
   10:08.503   219061,),0,0,0
   10:08.506   219062,(,0,0,1
   10:08.550   219078,N,0,0,0
   10:08.622   219104,),0,0,1
   10:08.775   219159,(,0,0,2
   10:08.872   219194,t,0,0,0
   10:08.936   219217,),0,0,2
   10:09.197   219311,(,0,0,0
   10:09.244   219328,p,0,0,0
   10:09.286   219343,),0,0,0
   10:09.325   219357,(,0,0,1
   10:09.353   219367,N,0,0,0
   10:09.369   219373,),0,0,1
   10:10.222   219680,(,0,0,1
   10:10.258   219693,N,0,0,0
   10:10.356   219728,),0,0,1
   10:10.508   219783,(,0,0,2
   10:10.600   219816,t,0,0,0
   10:10.667   219840,),0,0,2
   10:10.736   219865,(,0,0,0
   10:10.833   219900,p,0,0,0
   10:10.856   219908,),0,0,0
   10:11.039   219974,(,0,0,1
   10:11.064   219983,N,0,0,0
   10:11.083   219990,),0,0,1
   10:11.108   219999,(,0,0,2
   10:11.303   220069,t,0,0,1
   10:11.422   220112,),0,0,2
   10:11.689   220208,(,0,0,0
   10:11.764   220235,p,0,0,0
   10:11.867   220272,),0,0,0
   10:11.872   220274,(,0,0,1
   10:11.894   220282,N,0,0,0
   10:11.942   220299,),0,0,1
   10:12.050   220338,(,0,0,2
   10:12.111   220360,t,0,0,1
   10:12.217   220398,),0,0,2
   10:12.653   220555,(,0,0,1
   10:12.681   220565,N,0,0,0
   10:12.697   220571,),0,0,1
   10:12.722   220580,(,0,0,2
   10:12.878   220636,t,0,0,1
   10:13.047   220697,),0,0,2
   10:13.308   220791,(,0,0,0
   10:13.367   220812,p,0,0,0
   10:13.483   220854,),0,0,0
   10:13.489   220856,(,0,0,1
   10:13.500   220860,N,0,0,0
   10:13.619   220903,),0,0,1
   10:13.769   220957,(,0,0,2
   10:13.836   220981,t,0,0,0
   10:13.911   221008,),0,0,2
   10:14.178   221104,(,0,0,0
   10:14.200   221112,p,0,0,0
   10:14.231   221123,),0,0,0
   10:14.261   221134,(,0,0,1
   10:14.289   221144,N,0,0,0
   10:14.306   221150,),0,0,1
   10:14.358   221169,(,0,0,2
   10:14.392   221181,t,0,0,4
   10:14.656   221276,t,0,0,4
   10:14.736   221305,),0,0,2
   10:14.858   221349,(,0,0,0
   10:14.983   221394,p,0,0,0
   10:15.036   221413,),0,0,0
   10:15.133   221448,(,0,0,1
   10:15.167   221460,N,0,0,0
   10:15.231   221483,),0,0,1
   10:15.417   221550,(,0,0,2
   10:15.503   221581,t,0,0,0
   10:15.600   221616,),0,0,2
   10:15.767   221676,(,0,0,0
   10:15.856   221708,p,0,0,0
   10:15.928   221734,),0,0,0
   10:15.961   221746,(,0,0,1
   10:15.986   221755,N,0,0,0
   10:16.006   221762,),0,0,1
   10:16.044   221776,(,0,0,2
   10:16.194   221830,t,0,0,1
   10:16.358   221889,),0,0,2
   10:16.667   222000,(,0,0,0
   10:16.725   222021,p,0,0,0
   10:16.764   222035,),0,0,0
   10:16.808   222051,(,0,0,1
   10:16.858   222069,N,0,0,0
   10:16.875   222075,),0,0,1
   10:16.919   222091,(,0,0,2
   10:17.022   222128,t,0,0,1
   10:17.208   222195,),0,0,2
   10:17.539   222314,(,0,0,0
   10:17.614   222341,p,0,0,0
   10:17.678   222364,),0,0,0
   10:17.686   222367,(,0,0,1
   10:17.717   222378,N,0,0,0
   10:17.769   222397,),0,0,1
   10:17.808   222411,(,0,0,2
   10:17.847   222425,t,0,0,4
   10:18.033   222492,t,0,0,4
   10:18.094   222514,),0,0,2
   10:18.111   222520,(,0,0,0
   10:18.214   222557,p,0,0,0
   10:18.244   222568,),0,0,0
   10:18.447   222641,(,0,0,1
   10:18.472   222650,N,0,0,0
   10:18.489   222656,),0,0,1
   10:18.617   222702,(,0,0,2
   10:18.714   222737,t,0,0,4
   10:18.831   222779,t,0,0,4
   10:18.906   222806,),0,0,2
   10:19.097   222875,(,0,0,0
   10:19.128   222886,p,0,0,0
   10:19.153   222895,),0,0,0
   10:19.269   222937,(,0,0,1
   10:19.294   222946,N,0,0,0
   10:19.314   222953,),0,0,1
   10:20.114   223241,(,0,0,1
   10:20.144   223252,N,0,0,0
   10:20.203   223273,),0,0,1
   10:20.381   223337,(,0,0,2
   10:20.481   223373,t,0,0,0
   10:20.594   223414,),0,0,2
   10:20.700   223452,(,0,0,0
   10:20.744   223468,p,0,0,0
