Elapsedtime,sample,Type,Sub,Chan,Num
0:00.508,183,(,0,0,0
0:00.558,201,p,0,0,0
0:00.633,228,),0,0,0
0:00.700,252,(,0,0,1
0:00.733,264,N,0,0,0
0:00.772,278,),0,0,1
0:00.908,327,(,0,0,2
0:01.003,361,t,0,0,0
0:01.083,390,),0,0,2
0:01.372,494,(,0,0,0
0:01.425,513,p,0,0,0
0:01.500,540,),0,0,0
0:01.564,563,(,0,0,1
0:01.594,574,N,0,0,0
0:01.631,587,),0,0,1
0:01.750,630,(,0,0,2
0:01.842,663,t,0,0,0
0:01.919,691,),0,0,2
0:02.211,796,(,0,0,0
0:02.258,813,p,0,0,0
0:02.333,840,),0,0,0
0:02.397,863,(,0,0,1
0:02.431,875,N,0,0,0
0:02.469,889,),0,0,1
0:02.589,932,(,0,0,2
0:02.686,967,t,0,0,0
0:02.764,995,),0,0,2
0:03.061,1102,(,0,0,0
0:03.108,1119,p,0,0,0
0:03.183,1146,),0,0,0
0:03.244,1168,(,0,0,1
0:03.275,1179,N,0,0,0
0:03.314,1193,),0,0,1
0:03.436,1237,(,0,0,2
0:03.531,1271,t,0,0,0
0:03.617,1302,),0,0,2
0:03.900,1404,(,0,0,0
0:03.947,1421,p,0,0,0
0:04.022,1448,),0,0,0
0:04.083,1470,(,0,0,1
0:04.114,1481,N,0,0,0
0:04.150,1494,),0,0,1
0:04.275,1539,(,0,0,2
0:04.375,1575,t,0,0,0
0:04.461,1606,),0,0,2
0:04.747,1709,(,0,0,0
0:04.797,1727,p,0,0,0
0:04.881,1757,),0,0,0
0:04.947,1781,(,0,0,1
0:04.983,1794,N,0,0,0
0:05.022,1808,),0,0,1
0:05.161,1858,(,0,0,2
0:05.269,1897,t,0,0,0
0:05.364,1931,),0,0,2
0:05.686,2047,(,0,0,0
0:05.733,2064,p,0,0,0
0:05.808,2091,),0,0,0
0:05.872,2114,(,0,0,1
0:05.906,2126,N,0,0,0
0:05.947,2141,),0,0,1
0:06.083,2190,(,0,0,2
0:06.183,2226,t,0,0,0
0:06.267,2256,),0,0,2
0:06.572,2366,(,0,0,0
0:06.619,2383,p,0,0,0
0:06.694,2410,),0,0,0
0:06.750,2430,(,0,0,1
0:06.786,2443,N,0,0,0
0:06.819,2455,),0,0,1
0:06.944,2500,(,0,0,2
0:07.044,2536,t,0,0,0
0:07.128,2566,),0,0,2
0:07.403,2665,(,0,0,0
0:07.453,2683,p,0,0,0
0:07.522,2708,),0,0,0
0:07.583,2730,(,0,0,1
0:07.619,2743,N,0,0,0
0:07.658,2757,),0,0,1
0:07.789,2804,(,0,0,2
0:07.889,2840,t,0,0,0
0:07.972,2870,),0,0,2
0:08.233,2964,(,0,0,0
0:08.283,2982,p,0,0,0
0:08.358,3009,),0,0,0
0:08.414,3029,(,0,0,1
0:08.453,3043,N,0,0,0
0:08.492,3057,),0,0,1
0:08.622,3104,(,0,0,2
0:08.722,3140,t,0,0,0
0:08.806,3170,),0,0,2
0:09.075,3267,(,0,0,0
0:09.125,3285,p,0,0,0
0:09.197,3311,),0,0,0
0:09.261,3334,(,0,0,1
0:09.294,3346,N,0,0,0
0:09.333,3360,),0,0,1
0:09.469,3409,(,0,0,2
0:09.569,3445,t,0,0,0
0:09.650,3474,),0,0,2
0:09.908,3567,(,0,0,0
0:09.956,3584,p,0,0,0
0:10.031,3611,),0,0,0
0:10.094,3634,(,0,0,1
0:10.128,3646,N,0,0,0
0:10.167,3660,),0,0,1
0:10.300,3708,(,0,0,2
0:10.400,3744,t,0,0,0
0:10.481,3773,),0,0,2
0:10.756,3872,(,0,0,0
0:10.806,3890,p,0,0,0
0:10.878,3916,),0,0,0
0:10.947,3941,(,0,0,1
0:10.981,3953,N,0,0,0
0:11.022,3968,),0,0,1
0:11.161,4018,(,0,0,2
0:11.264,4055,t,0,0,0
0:11.344,4084,),0,0,2
0:11.653,4195,(,0,0,0
0:11.708,4215,p,0,0,0
0:11.786,4243,),0,0,0
0:11.850,4266,(,0,0,1
0:11.894,4282,N,0,0,0
0:11.933,4296,),0,0,1
0:12.078,4348,(,0,0,2
0:12.183,4386,t,0,0,0
0:12.264,4415,),0,0,2
0:12.564,4523,(,0,0,0
0:12.617,4542,p,0,0,0
0:12.692,4569,),0,0,0
0:12.769,4597,(,0,0,1
0:12.803,4609,N,0,0,0
0:12.842,4623,),0,0,1
0:12.975,4671,(,0,0,2
0:13.072,4706,t,0,0,0
0:13.153,4735,),0,0,2
0:13.472,4850,(,0,0,0
0:13.517,4866,p,0,0,0
0:13.594,4894,),0,0,0
0:13.683,4926,(,0,0,1
0:13.717,4938,N,0,0,0
0:13.750,4950,),0,0,1
0:13.872,4994,(,0,0,2
0:13.967,5028,t,0,0,0
0:14.047,5057,),0,0,2
0:14.350,5166,(,0,0,0
0:14.397,5183,p,0,0,0
0:14.467,5208,),0,0,0
0:14.561,5242,(,0,0,1
0:14.594,5254,N,0,0,0
0:14.628,5266,),0,0,1
0:14.750,5310,(,0,0,2
0:14.850,5346,t,0,0,0
0:14.931,5375,),0,0,2
0:15.253,5491,(,0,0,0
0:15.297,5507,p,0,0,0
0:15.372,5534,),0,0,0
0:15.464,5567,(,0,0,1
0:15.497,5579,N,0,0,0
0:15.539,5594,),0,0,1
0:15.669,5641,(,0,0,2
0:15.775,5679,t,0,0,0
0:15.858,5709,),0,0,2
0:16.144,5812,(,0,0,0
0:16.186,5827,p,0,0,0
0:16.261,5854,),0,0,0
0:16.331,5879,(,0,0,1
0:16.364,5891,N,0,0,0
0:16.403,5905,),0,0,1
0:16.542,5955,(,0,0,2
0:16.642,5991,t,0,0,0
0:16.731,6023,),0,0,2
0:17.042,6135,(,0,0,0
0:17.092,6153,p,0,0,0
0:17.164,6179,),0,0,0
0:17.233,6204,(,0,0,1
0:17.267,6216,N,0,0,0
0:17.306,6230,),0,0,1
0:17.442,6279,(,0,0,2
0:17.547,6317,t,0,0,0
0:17.633,6348,),0,0,2
0:17.958,6465,(,0,0,0
0:18.008,6483,p,0,0,0
0:18.089,6512,),0,0,0
0:18.164,6539,(,0,0,1
0:18.200,6552,N,0,0,0
0:18.242,6567,),0,0,1
0:18.381,6617,(,0,0,2
0:18.483,6654,t,0,0,0
0:18.569,6685,),0,0,2
0:18.867,6792,(,0,0,0
0:18.914,6809,p,0,0,0
0:18.986,6835,),0,0,0
0:19.056,6860,(,0,0,1
0:19.089,6872,N,0,0,0
0:19.128,6886,),0,0,1
0:19.258,6933,(,0,0,2
0:19.361,6970,t,0,0,0
0:19.439,6998,),0,0,2
0:19.725,7101,(,0,0,0
0:19.769,7117,p,0,0,0
0:19.842,7143,),0,0,0
0:19.906,7166,(,0,0,1
0:19.936,7177,N,0,0,0
0:19.975,7191,),0,0,1
0:20.103,7237,(,0,0,2
0:20.200,7272,t,0,0,0
0:20.278,7300,),0,0,2
0:20.564,7403,(,0,0,0
0:20.608,7419,p,0,0,0
0:20.686,7447,),0,0,0
0:20.747,7469,(,0,0,1
0:20.781,7481,N,0,0,0
0:20.814,7493,),0,0,1
0:20.942,7539,(,0,0,2
0:21.028,7570,t,0,0,0
0:21.106,7598,),0,0,2
0:21.386,7699,(,0,0,0
0:21.433,7716,p,0,0,0
0:21.511,7744,),0,0,0
0:21.578,7768,(,0,0,1
0:21.611,7780,N,0,0,0
0:21.650,7794,),0,0,1
0:21.775,7839,(,0,0,2
0:21.872,7874,t,0,0,0
0:21.956,7904,),0,0,2
0:22.267,8016,(,0,0,0
0:22.314,8033,p,0,0,0
0:22.394,8062,),0,0,0
0:22.450,8082,(,0,0,1
0:22.489,8096,N,0,0,0
0:22.531,8111,),0,0,1
0:22.658,8157,(,0,0,2
0:22.756,8192,t,0,0,0
0:22.842,8223,),0,0,2
0:23.153,8335,(,0,0,0
0:23.206,8354,p,0,0,0
0:23.278,8380,),0,0,0
0:23.347,8405,(,0,0,1
0:23.381,8417,N,0,0,0
0:23.419,8431,),0,0,1
0:23.544,8476,(,0,0,2
0:23.653,8515,t,0,0,0
0:23.733,8544,),0,0,2
0:24.036,8653,(,0,0,0
0:24.086,8671,p,0,0,0
0:24.167,8700,),0,0,0
0:24.236,8725,(,0,0,1
0:24.272,8738,N,0,0,0
0:24.311,8752,),0,0,1
0:24.453,8803,(,0,0,2
0:24.556,8840,t,0,0,0
0:24.639,8870,),0,0,2
0:24.947,8981,(,0,0,0
0:24.997,8999,p,0,0,0
0:25.069,9025,),0,0,0
0:25.128,9046,(,0,0,1
0:25.167,9060,N,0,0,0
0:25.203,9073,),0,0,1
0:25.328,9118,(,0,0,2
0:25.425,9153,t,0,0,0
0:25.503,9181,),0,0,2
0:25.797,9287,(,0,0,0
0:25.844,9304,p,0,0,0
0:25.911,9328,),0,0,0
0:25.964,9347,(,0,0,1
0:26.000,9360,N,0,0,0
0:26.036,9373,),0,0,1
0:26.156,9416,(,0,0,2
0:26.253,9451,t,0,0,0
0:26.336,9481,),0,0,2
0:26.625,9585,(,0,0,0
0:26.675,9603,p,0,0,0
0:26.744,9628,),0,0,0
0:26.806,9650,(,0,0,1
0:26.839,9662,N,0,0,0
0:26.878,9676,),0,0,1
0:27.006,9722,(,0,0,2
0:27.106,9758,t,0,0,0
0:27.186,9787,),0,0,2
0:27.453,9883,(,0,0,0
0:27.503,9901,p,0,0,0
0:27.578,9928,),0,0,0
0:27.639,9950,(,0,0,1
0:27.672,9962,N,0,0,0
0:27.714,9977,),0,0,1
0:27.842,10023,(,0,0,2
0:27.942,10059,t,0,0,0
0:28.025,10089,),0,0,2
0:28.317,10194,(,0,0,0
0:28.369,10213,p,0,0,0
0:28.447,10241,),0,0,0
0:28.517,10266,(,0,0,1
0:28.550,10278,N,0,0,0
0:28.592,10293,),0,0,1
0:28.733,10344,(,0,0,2
0:28.839,10382,t,0,0,0
0:28.928,10414,),0,0,2
0:29.208,10515,(,0,0,0
0:29.258,10533,p,0,0,0
0:29.333,10560,),0,0,0
0:29.394,10582,(,0,0,1
0:29.436,10597,N,0,0,0
0:29.475,10611,),0,0,1
0:29.617,10662,(,0,0,2
0:29.717,10698,t,0,0,0
0:29.797,10727,),0,0,2
0:30.078,10828,(,0,0,0
0:30.128,10846,p,0,0,0
0:30.200,10872,),0,0,0
0:30.269,10897,(,0,0,1
0:30.303,10909,N,0,0,0
0:30.344,10924,),0,0,1
0:30.469,10969,(,0,0,2
0:30.575,11007,t,0,0,0
0:30.656,11036,),0,0,2
0:30.947,11141,(,0,0,0
0:30.992,11157,p,0,0,0
0:31.075,11187,),0,0,0
0:31.139,11210,(,0,0,1
0:31.172,11222,N,0,0,0
0:31.214,11237,),0,0,1
0:31.350,11286,(,0,0,2
0:31.447,11321,t,0,0,0
0:31.528,11350,),0,0,2
0:31.789,11444,(,0,0,0
0:31.833,11460,p,0,0,0
0:31.906,11486,),0,0,0
0:31.961,11506,(,0,0,1
0:31.997,11519,N,0,0,0
0:32.036,11533,),0,0,1
0:32.164,11579,(,0,0,2
0:32.261,11614,t,0,0,0
0:32.339,11642,),0,0,2
0:32.572,11726,(,0,0,0
0:32.617,11742,p,0,0,0
0:32.694,11770,),0,0,0
0:32.747,11789,(,0,0,1
0:32.786,11803,N,0,0,0
0:32.819,11815,),0,0,1
0:32.939,11858,(,0,0,2
0:33.036,11893,t,0,0,0
0:33.114,11921,),0,0,2
0:33.378,12016,(,0,0,0
0:33.428,12034,p,0,0,0
0:33.503,12061,),0,0,0
0:33.561,12082,(,0,0,1
0:33.600,12096,N,0,0,0
0:33.636,12109,),0,0,1
0:33.758,12153,(,0,0,2
0:33.856,12188,t,0,0,0
0:33.933,12216,),0,0,2
0:34.206,12314,(,0,0,0
0:34.256,12332,p,0,0,0
0:34.331,12359,),0,0,0
0:34.394,12382,(,0,0,1
0:34.428,12394,N,0,0,0
0:34.467,12408,),0,0,1
0:34.594,12454,(,0,0,2
0:34.700,12492,t,0,0,0
0:34.783,12522,),0,0,2
0:35.050,12618,(,0,0,0
0:35.100,12636,p,0,0,0
0:35.172,12662,),0,0,0
0:35.231,12683,(,0,0,1
0:35.272,12698,N,0,0,0
0:35.311,12712,),0,0,1
0:35.442,12759,(,0,0,2
0:35.539,12794,t,0,0,0
0:35.628,12826,),0,0,2
0:35.894,12922,(,0,0,0
0:35.939,12938,p,0,0,0
0:36.017,12966,),0,0,0
0:36.078,12988,(,0,0,1
0:36.111,13000,N,0,0,0
0:36.150,13014,),0,0,1
0:36.278,13060,(,0,0,2
0:36.381,13097,t,0,0,0
0:36.458,13125,),0,0,2
0:36.717,13218,(,0,0,0
0:36.769,13237,p,0,0,0
0:36.847,13265,),0,0,0
0:36.908,13287,(,0,0,1
0:36.942,13299,N,0,0,0
0:36.981,13313,),0,0,1
0:37.114,13361,(,0,0,2
0:37.214,13397,t,0,0,0
0:37.292,13425,),0,0,2
0:37.556,13520,(,0,0,0
0:37.606,13538,p,0,0,0
0:37.675,13563,),0,0,0
0:37.739,13586,(,0,0,1
0:37.772,13598,N,0,0,0
0:37.806,13610,),0,0,1
0:37.931,13655,(,0,0,2
0:38.022,13688,t,0,0,0
0:38.100,13716,),0,0,2
0:38.358,13809,(,0,0,0
0:38.406,13826,p,0,0,0
0:38.478,13852,),0,0,0
0:38.531,13871,(,0,0,1
0:38.569,13885,N,0,0,0
0:38.603,13897,),0,0,1
0:38.719,13939,(,0,0,2
0:38.811,13972,t,0,0,0
0:38.889,14000,),0,0,2
0:39.147,14093,(,0,0,0
0:39.194,14110,p,0,0,0
0:39.267,14136,),0,0,0
0:39.325,14157,(,0,0,1
0:39.356,14168,N,0,0,0
0:39.394,14182,),0,0,1
0:39.514,14225,(,0,0,2
0:39.611,14260,t,0,0,0
0:39.692,14289,),0,0,2
0:39.958,14385,(,0,0,0
0:40.006,14402,p,0,0,0
0:40.078,14428,),0,0,0
0:40.128,14446,(,0,0,1
0:40.167,14460,N,0,0,0
0:40.206,14474,),0,0,1
0:40.333,14520,(,0,0,2
0:40.436,14557,t,0,0,0
0:40.522,14588,),0,0,2
0:40.800,14688,(,0,0,0
0:40.847,14705,p,0,0,0
0:40.922,14732,),0,0,0
0:40.989,14756,(,0,0,1
0:41.022,14768,N,0,0,0
0:41.061,14782,),0,0,1
0:41.203,14833,(,0,0,2
0:41.308,14871,t,0,0,0
0:41.394,14902,),0,0,2
0:41.675,15003,(,0,0,0
0:41.722,15020,p,0,0,0
0:41.794,15046,),0,0,0
0:41.858,15069,(,0,0,1
0:41.892,15081,N,0,0,0
0:41.928,15094,),0,0,1
0:42.061,15142,(,0,0,2
0:42.161,15178,t,0,0,0
0:42.250,15210,),0,0,2
0:42.514,15305,(,0,0,0
0:42.564,15323,p,0,0,0
0:42.636,15349,),0,0,0
0:42.694,15370,(,0,0,1
0:42.728,15382,N,0,0,0
0:42.767,15396,),0,0,1
0:42.894,15442,(,0,0,2
0:42.994,15478,t,0,0,0
0:43.072,15506,),0,0,2
0:43.342,15603,(,0,0,0
0:43.392,15621,p,0,0,0
0:43.469,15649,),0,0,0
0:43.528,15670,(,0,0,1
0:43.561,15682,N,0,0,0
0:43.600,15696,),0,0,1
0:43.728,15742,(,0,0,2
0:43.831,15779,t,0,0,0
0:43.914,15809,),0,0,2
0:44.172,15902,(,0,0,0
0:44.217,15918,p,0,0,0
0:44.289,15944,),0,0,0
0:44.342,15963,(,0,0,1
0:44.378,15976,N,0,0,0
0:44.414,15989,),0,0,1
0:44.539,16034,(,0,0,2
0:44.633,16068,t,0,0,0
0:44.717,16098,),0,0,2
0:44.986,16195,(,0,0,0
0:45.031,16211,p,0,0,0
0:45.100,16236,),0,0,0
0:45.156,16256,(,0,0,1
0:45.189,16268,N,0,0,0
0:45.225,16281,),0,0,1
0:45.353,16327,(,0,0,2
0:45.453,16363,t,0,0,0
0:45.536,16393,),0,0,2
0:45.817,16494,(,0,0,0
0:45.864,16511,p,0,0,0
0:45.939,16538,),0,0,0
0:46.006,16562,(,0,0,1
0:46.039,16574,N,0,0,0
0:46.081,16589,),0,0,1
0:46.214,16637,(,0,0,2
0:46.319,16675,t,0,0,0
0:46.400,16704,),0,0,2
0:46.667,16800,(,0,0,0
0:46.719,16819,p,0,0,0
0:46.794,16846,),0,0,0
0:46.867,16872,(,0,0,1
0:46.903,16885,N,0,0,0
0:46.944,16900,),0,0,1
0:47.081,16949,(,0,0,2
0:47.183,16986,t,0,0,0
0:47.267,17016,),0,0,2
0:47.586,17131,(,0,0,0
0:47.639,17150,p,0,0,0
0:47.719,17179,),0,0,0
0:47.794,17206,(,0,0,1
0:47.828,17218,N,0,0,0
0:47.869,17233,),0,0,1
0:48.011,17284,(,0,0,2
0:48.108,17319,t,0,0,0
0:48.189,17348,),0,0,2
0:48.483,17454,(,0,0,0
0:48.531,17471,p,0,0,0
0:48.608,17499,),0,0,0
0:48.675,17523,(,0,0,1
0:48.708,17535,N,0,0,0
0:48.747,17549,),0,0,1
0:48.878,17596,(,0,0,2
0:48.978,17632,t,0,0,0
0:49.053,17659,),0,0,2
0:49.328,17758,(,0,0,0
0:49.372,17774,p,0,0,0
0:49.447,17801,),0,0,0
0:49.514,17825,(,0,0,1
0:49.544,17836,N,0,0,0
0:49.586,17851,),0,0,1
0:49.711,17896,(,0,0,2
0:49.811,17932,t,0,0,0
0:49.889,17960,),0,0,2
0:50.175,18063,(,0,0,0
0:50.225,18081,p,0,0,0
0:50.300,18108,),0,0,0
0:50.364,18131,(,0,0,1
0:50.403,18145,N,0,0,0
0:50.442,18159,),0,0,1
0:50.564,18203,(,0,0,2
0:50.658,18237,t,0,0,0
0:50.739,18266,),0,0,2
0:51.014,18365,(,0,0,0
0:51.064,18383,p,0,0,0
0:51.139,18410,),0,0,0
0:51.197,18431,(,0,0,1
0:51.236,18445,N,0,0,0
0:51.272,18458,),0,0,1
0:51.397,18503,(,0,0,2
0:51.489,18536,t,0,0,0
0:51.561,18562,),0,0,2
0:51.831,18659,(,0,0,0
0:51.881,18677,p,0,0,0
0:51.956,18704,),0,0,0
0:52.019,18727,(,0,0,1
0:52.050,18738,N,0,0,0
0:52.089,18752,),0,0,1
0:52.211,18796,(,0,0,2
0:52.317,18834,t,0,0,0
0:52.397,18863,),0,0,2
0:52.692,18969,(,0,0,0
0:52.739,18986,p,0,0,0
0:52.817,19014,),0,0,0
0:52.875,19035,(,0,0,1
0:52.908,19047,N,0,0,0
0:52.947,19061,),0,0,1
0:53.075,19107,(,0,0,2
0:53.181,19145,t,0,0,0
0:53.261,19174,),0,0,2
0:53.569,19285,(,0,0,0
0:53.619,19303,p,0,0,0
0:53.692,19329,),0,0,0
0:53.761,19354,(,0,0,1
0:53.792,19365,N,0,0,0
0:53.833,19380,),0,0,1
0:53.969,19429,(,0,0,2
0:54.075,19467,t,0,0,0
0:54.158,19497,),0,0,2
0:54.467,19608,(,0,0,0
0:54.517,19626,p,0,0,0
0:54.592,19653,),0,0,0
0:54.647,19673,(,0,0,1
0:54.686,19687,N,0,0,0
0:54.725,19701,),0,0,1
0:54.853,19747,(,0,0,2
0:54.958,19785,t,0,0,0
0:55.036,19813,),0,0,2
0:55.311,19912,(,0,0,0
0:55.358,19929,p,0,0,0
0:55.431,19955,),0,0,0
0:55.494,19978,(,0,0,1
0:55.525,19989,N,0,0,0
0:55.564,20003,),0,0,1
0:55.683,20046,(,0,0,2
0:55.778,20080,t,0,0,0
0:55.858,20109,),0,0,2
0:56.131,20207,(,0,0,0
0:56.178,20224,p,0,0,0
0:56.253,20251,),0,0,0
0:56.311,20272,(,0,0,1
0:56.350,20286,N,0,0,0
0:56.389,20300,),0,0,1
0:56.519,20347,(,0,0,2
0:56.619,20383,t,0,0,0
0:56.703,20413,),0,0,2
0:56.992,20517,(,0,0,0
0:57.042,20535,p,0,0,0
0:57.111,20560,),0,0,0
0:57.164,20579,(,0,0,1
0:57.203,20593,N,0,0,0
0:57.239,20606,),0,0,1
0:57.364,20651,(,0,0,2
0:57.472,20690,t,0,0,0
0:57.553,20719,),0,0,2
0:57.828,20818,(,0,0,0
0:57.872,20834,p,0,0,0
0:57.944,20860,),0,0,0
0:58.003,20881,(,0,0,1
0:58.036,20893,N,0,0,0
0:58.069,20905,),0,0,1
0:58.206,20954,(,0,0,2
0:58.311,20992,t,0,0,0
0:58.386,21019,),0,0,2
0:58.658,21117,(,0,0,0
0:58.708,21135,p,0,0,0
0:58.789,21164,),0,0,0
0:58.844,21184,(,0,0,1
0:58.886,21199,N,0,0,0
0:58.925,21213,),0,0,1
0:59.069,21265,(,0,0,2
0:59.172,21302,t,0,0,0
0:59.253,21331,),0,0,2
0:59.536,21433,(,0,0,0
0:59.586,21451,p,0,0,0
0:59.664,21479,),0,0,0
0:59.725,21501,(,0,0,1
0:59.767,21516,N,0,0,0
0:59.808,21531,),0,0,1
0:59.944,21580,(,0,0,2
1:00.053,21619,t,0,0,0
1:00.133,21648,),0,0,2
1:00.428,21754,(,0,0,0
1:00.472,21770,p,0,0,0
1:00.553,21799,),0,0,0
1:00.622,21824,(,0,0,1
1:00.656,21836,N,0,0,0
1:00.694,21850,),0,0,1
1:00.828,21898,(,0,0,2
1:00.922,21932,t,0,0,0
1:00.997,21959,),0,0,2
1:01.267,22056,(,0,0,0
1:01.314,22073,p,0,0,0
1:01.392,22101,),0,0,0
1:01.453,22123,(,0,0,1
1:01.486,22135,N,0,0,0
1:01.525,22149,),0,0,1
1:01.650,22194,(,0,0,2
1:01.744,22228,t,0,0,0
1:01.819,22255,),0,0,2
1:02.075,22347,(,0,0,0
1:02.122,22364,p,0,0,0
1:02.194,22390,),0,0,0
1:02.247,22409,(,0,0,1
1:02.283,22422,N,0,0,0
1:02.322,22436,),0,0,1
1:02.447,22481,(,0,0,2
1:02.547,22517,t,0,0,0
1:02.625,22545,),0,0,2
1:02.906,22646,(,0,0,0
1:02.956,22664,p,0,0,0
1:03.033,22692,),0,0,0
1:03.092,22713,(,0,0,1
1:03.131,22727,N,0,0,0
1:03.167,22740,),0,0,1
1:03.289,22784,(,0,0,2
1:03.389,22820,t,0,0,0
1:03.464,22847,),0,0,2
1:03.736,22945,(,0,0,0
1:03.783,22962,p,0,0,0
1:03.858,22989,),0,0,0
1:03.925,23013,(,0,0,1
1:03.961,23026,N,0,0,0
1:04.000,23040,),0,0,1
1:04.122,23084,(,0,0,2
1:04.225,23121,t,0,0,0
1:04.297,23147,),0,0,2
1:04.569,23245,(,0,0,0
1:04.619,23263,p,0,0,0
1:04.694,23290,),0,0,0
1:04.761,23314,(,0,0,1
1:04.794,23326,N,0,0,0
1:04.833,23340,),0,0,1
1:04.961,23386,(,0,0,2
1:05.064,23423,t,0,0,0
1:05.144,23452,),0,0,2
1:05.439,23558,(,0,0,0
1:05.492,23577,p,0,0,0
1:05.567,23604,),0,0,0
1:05.631,23627,(,0,0,1
1:05.661,23638,N,0,0,0
1:05.700,23652,),0,0,1
1:05.822,23696,(,0,0,2
1:05.925,23733,t,0,0,0
1:06.000,23760,),0,0,2
1:06.311,23872,(,0,0,0
1:06.364,23891,p,0,0,0
1:06.442,23919,),0,0,0
1:06.506,23942,(,0,0,1
1:06.539,23954,N,0,0,0
1:06.578,23968,),0,0,1
1:06.706,24014,(,0,0,2
1:06.819,24055,t,0,0,0
1:06.903,24085,),0,0,2
1:07.197,24191,(,0,0,0
1:07.242,24207,p,0,0,0
1:07.319,24235,),0,0,0
1:07.378,24256,(,0,0,1
1:07.408,24267,N,0,0,0
1:07.444,24280,),0,0,1
1:07.572,24326,(,0,0,2
1:07.672,24362,t,0,0,0
1:07.750,24390,),0,0,2
1:08.011,24484,(,0,0,0
1:08.061,24502,p,0,0,0
1:08.133,24528,),0,0,0
1:08.183,24546,(,0,0,1
1:08.222,24560,N,0,0,0
1:08.258,24573,),0,0,1
1:08.375,24615,(,0,0,2
1:08.472,24650,t,0,0,0
1:08.550,24678,),0,0,2
1:08.831,24779,(,0,0,0
1:08.878,24796,p,0,0,0
1:08.950,24822,),0,0,0
1:09.019,24847,(,0,0,1
1:09.053,24859,N,0,0,0
1:09.092,24873,),0,0,1
1:09.219,24919,(,0,0,2
1:09.322,24956,t,0,0,0
1:09.403,24985,),0,0,2
1:09.694,25090,(,0,0,0
1:09.736,25105,p,0,0,0
1:09.806,25130,),0,0,0
1:09.864,25151,(,0,0,1
1:09.903,25165,N,0,0,0
1:09.939,25178,),0,0,1
1:10.067,25224,(,0,0,2
1:10.169,25261,t,0,0,0
1:10.250,25290,),0,0,2
1:10.522,25388,(,0,0,0
1:10.567,25404,p,0,0,0
1:10.639,25430,),0,0,0
1:10.694,25450,(,0,0,1
1:10.733,25464,N,0,0,0
1:10.769,25477,),0,0,1
1:10.897,25523,(,0,0,2
1:11.006,25562,t,0,0,0
1:11.089,25592,),0,0,2
1:11.364,25691,(,0,0,0
1:11.411,25708,p,0,0,0
1:11.489,25736,),0,0,0
1:11.556,25760,(,0,0,1
1:11.589,25772,N,0,0,0
1:11.631,25787,),0,0,1
1:11.772,25838,(,0,0,2
1:11.872,25874,t,0,0,0
1:11.950,25902,),0,0,2
1:12.222,26000,(,0,0,0
1:12.272,26018,p,0,0,0
1:12.347,26045,),0,0,0
1:12.414,26069,(,0,0,1
1:12.447,26081,N,0,0,0
1:12.486,26095,),0,0,1
1:12.622,26144,(,0,0,2
1:12.731,26183,t,0,0,0
1:12.806,26210,),0,0,2
1:13.078,26308,(,0,0,0
1:13.125,26325,p,0,0,0
1:13.200,26352,),0,0,0
1:13.258,26373,(,0,0,1
1:13.300,26388,N,0,0,0
1:13.339,26402,),0,0,1
1:13.467,26448,(,0,0,2
1:13.572,26486,t,0,0,0
1:13.650,26514,),0,0,2
1:13.911,26608,(,0,0,0
1:13.956,26624,p,0,0,0
1:14.025,26649,),0,0,0
1:14.081,26669,(,0,0,1
1:14.119,26683,N,0,0,0
1:14.158,26697,),0,0,1
1:14.289,26744,(,0,0,2
1:14.383,26778,t,0,0,0
1:14.461,26806,),0,0,2
1:14.719,26899,(,0,0,0
1:14.764,26915,p,0,0,0
1:14.836,26941,),0,0,0
1:14.892,26961,(,0,0,1
1:14.925,26973,N,0,0,0
1:14.961,26986,),0,0,1
1:15.089,27032,(,0,0,2
1:15.186,27067,t,0,0,0
1:15.264,27095,),0,0,2
1:15.525,27189,(,0,0,0
1:15.578,27208,p,0,0,0
1:15.653,27235,),0,0,0
1:15.719,27259,(,0,0,1
1:15.756,27272,N,0,0,0
1:15.794,27286,),0,0,1
1:15.931,27335,(,0,0,2
1:16.031,27371,t,0,0,0
1:16.106,27398,),0,0,2
1:16.375,27495,(,0,0,0
1:16.422,27512,p,0,0,0
1:16.492,27537,),0,0,0
1:16.561,27562,(,0,0,1
1:16.594,27574,N,0,0,0
1:16.633,27588,),0,0,1
1:16.772,27638,(,0,0,2
1:16.872,27674,t,0,0,0
1:16.953,27703,),0,0,2
1:17.211,27796,(,0,0,0
1:17.258,27813,p,0,0,0
1:17.333,27840,),0,0,0
1:17.392,27861,(,0,0,1
1:17.428,27874,N,0,0,0
1:17.467,27888,),0,0,1
1:17.600,27936,(,0,0,2
1:17.700,27972,t,0,0,0
1:17.781,28001,),0,0,2
1:18.061,28102,(,0,0,0
1:18.108,28119,p,0,0,0
1:18.192,28149,),0,0,0
1:18.258,28173,(,0,0,1
1:18.292,28185,N,0,0,0
1:18.333,28200,),0,0,1
1:18.461,28246,(,0,0,2
1:18.558,28281,t,0,0,0
1:18.636,28309,),0,0,2
1:18.917,28410,(,0,0,0
1:18.961,28426,p,0,0,0
1:19.036,28453,),0,0,0
1:19.108,28479,(,0,0,1
1:19.139,28490,N,0,0,0
1:19.181,28505,),0,0,1
1:19.303,28549,(,0,0,2
1:19.400,28584,t,0,0,0
1:19.478,28612,),0,0,2
1:19.742,28707,(,0,0,0
1:19.786,28723,p,0,0,0
1:19.861,28750,),0,0,0
1:19.922,28772,(,0,0,1
1:19.953,28783,N,0,0,0
1:19.989,28796,),0,0,1
1:20.106,28838,(,0,0,2
1:20.203,28873,t,0,0,0
1:20.281,28901,),0,0,2
1:20.514,28985,(,0,0,0
1:20.561,29002,p,0,0,0
1:20.639,29030,),0,0,0
1:20.692,29049,(,0,0,1
1:20.731,29063,N,0,0,0
1:20.767,29076,),0,0,1
1:20.886,29119,(,0,0,2
1:20.978,29152,t,0,0,0
1:21.056,29180,),0,0,2
1:21.294,29266,(,0,0,0
1:21.344,29284,p,0,0,0
1:21.417,29310,),0,0,0
1:21.478,29332,(,0,0,1
1:21.508,29343,N,0,0,0
1:21.547,29357,),0,0,1
1:21.678,29404,(,0,0,2
1:21.775,29439,t,0,0,0
1:21.853,29467,),0,0,2
1:22.128,29566,(,0,0,0
1:22.181,29585,p,0,0,0
1:22.261,29614,),0,0,0
1:22.325,29637,(,0,0,1
1:22.358,29649,N,0,0,0
1:22.394,29662,),0,0,1
1:22.528,29710,(,0,0,2
1:22.622,29744,t,0,0,0
1:22.700,29772,),0,0,2
1:22.972,29870,(,0,0,0
1:23.025,29889,p,0,0,0
1:23.103,29917,),0,0,0
1:23.172,29942,(,0,0,1
1:23.206,29954,N,0,0,0
1:23.244,29968,),0,0,1
1:23.375,30015,(,0,0,2
1:23.472,30050,t,0,0,0
1:23.550,30078,),0,0,2
1:23.822,30176,(,0,0,0
1:23.875,30195,p,0,0,0
1:23.953,30223,),0,0,0
1:24.019,30247,(,0,0,1
1:24.050,30258,N,0,0,0
1:24.089,30272,),0,0,1
1:24.222,30320,(,0,0,2
1:24.319,30355,t,0,0,0
1:24.403,30385,),0,0,2
1:24.700,30492,(,0,0,0
1:24.753,30511,p,0,0,0
1:24.828,30538,),0,0,0
1:24.892,30561,(,0,0,1
1:24.925,30573,N,0,0,0
1:24.958,30585,),0,0,1
1:25.083,30630,(,0,0,2
1:25.178,30664,t,0,0,0
1:25.256,30692,),0,0,2
1:25.558,30801,(,0,0,0
1:25.600,30816,p,0,0,0
1:25.675,30843,),0,0,0
1:25.744,30868,(,0,0,1
1:25.775,30879,N,0,0,0
1:25.814,30893,),0,0,1
1:25.939,30938,(,0,0,2
1:26.036,30973,t,0,0,0
1:26.117,31002,),0,0,2
1:26.411,31108,(,0,0,0
1:26.456,31124,p,0,0,0
1:26.528,31150,),0,0,0
1:26.581,31169,(,0,0,1
1:26.611,31180,N,0,0,0
1:26.647,31193,),0,0,1
1:26.769,31237,(,0,0,2
1:26.864,31271,t,0,0,0
1:26.950,31302,),0,0,2
1:27.228,31402,(,0,0,0
1:27.272,31418,p,0,0,0
1:27.342,31443,),0,0,0
1:27.400,31464,(,0,0,1
1:27.436,31477,N,0,0,0
1:27.472,31490,),0,0,1
1:27.594,31534,(,0,0,2
1:27.694,31570,t,0,0,0
1:27.778,31600,),0,0,2
1:28.078,31708,(,0,0,0
1:28.125,31725,p,0,0,0
1:28.203,31753,),0,0,0
1:28.275,31779,(,0,0,1
1:28.308,31791,N,0,0,0
1:28.350,31806,),0,0,1
1:28.483,31854,(,0,0,2
1:28.592,31893,t,0,0,0
1:28.675,31923,),0,0,2
1:28.983,32034,(,0,0,0
1:29.033,32052,p,0,0,0
1:29.106,32078,),0,0,0
1:29.175,32103,(,0,0,1
1:29.208,32115,N,0,0,0
1:29.250,32130,),0,0,1
1:29.386,32179,(,0,0,2
1:29.489,32216,t,0,0,0
1:29.578,32248,),0,0,2
1:29.881,32357,(,0,0,0
1:29.925,32373,p,0,0,0
1:30.000,32400,),0,0,0
1:30.067,32424,(,0,0,1
1:30.097,32435,N,0,0,0
1:30.136,32449,),0,0,1
1:30.275,32499,(,0,0,2
1:30.378,32536,t,0,0,0
1:30.464,32567,),0,0,2
1:30.761,32674,(,0,0,0
1:30.806,32690,p,0,0,0
1:30.886,32719,),0,0,0
1:30.958,32745,(,0,0,1
1:30.992,32757,N,0,0,0
1:31.031,32771,),0,0,1
1:31.158,32817,(,0,0,2
1:31.261,32854,t,0,0,0
1:31.336,32881,),0,0,2
1:31.622,32984,(,0,0,0
1:31.667,33000,p,0,0,0
1:31.742,33027,),0,0,0
1:31.811,33052,(,0,0,1
1:31.844,33064,N,0,0,0
1:31.886,33079,),0,0,1
1:32.014,33125,(,0,0,2
1:32.108,33159,t,0,0,0
1:32.186,33187,),0,0,2
1:32.481,33293,(,0,0,0
1:32.528,33310,p,0,0,0
1:32.603,33337,),0,0,0
1:32.664,33359,(,0,0,1
1:32.703,33373,N,0,0,0
1:32.742,33387,),0,0,1
1:32.872,33434,(,0,0,2
1:32.961,33466,t,0,0,0
1:33.042,33495,),0,0,2
1:33.328,33598,(,0,0,0
1:33.369,33613,p,0,0,0
1:33.450,33642,),0,0,0
1:33.517,33666,(,0,0,1
1:33.547,33677,N,0,0,0
1:33.586,33691,),0,0,1
1:33.703,33733,(,0,0,2
1:33.800,33768,t,0,0,0
1:33.875,33795,),0,0,2
1:34.161,33898,(,0,0,0
1:34.211,33916,p,0,0,0
1:34.289,33944,),0,0,0
1:34.353,33967,(,0,0,1
1:34.386,33979,N,0,0,0
1:34.428,33994,),0,0,1
1:34.561,34042,(,0,0,2
1:34.658,34077,t,0,0,0
1:34.744,34108,),0,0,2
1:35.061,34222,(,0,0,0
1:35.114,34241,p,0,0,0
1:35.197,34271,),0,0,0
1:35.264,34295,(,0,0,1
1:35.297,34307,N,0,0,0
1:35.339,34322,),0,0,1
1:35.475,34371,(,0,0,2
1:35.572,34406,t,0,0,0
1:35.658,34437,),0,0,2
1:35.964,34547,(,0,0,0
1:36.014,34565,p,0,0,0
1:36.092,34593,),0,0,0
1:36.158,34617,(,0,0,1
1:36.189,34628,N,0,0,0
1:36.231,34643,),0,0,1
1:36.358,34689,(,0,0,2
1:36.453,34723,t,0,0,0
1:36.533,34752,),0,0,2
1:36.831,34859,(,0,0,0
1:36.878,34876,p,0,0,0
1:36.953,34903,),0,0,0
1:37.017,34926,(,0,0,1
1:37.050,34938,N,0,0,0
1:37.086,34951,),0,0,1
1:37.208,34995,(,0,0,2
1:37.314,35033,t,0,0,0
1:37.392,35061,),0,0,2
1:37.672,35162,(,0,0,0
1:37.719,35179,p,0,0,0
1:37.792,35205,),0,0,0
1:37.844,35224,(,0,0,1
1:37.883,35238,N,0,0,0
1:37.917,35250,),0,0,1
1:38.042,35295,(,0,0,2
1:38.136,35329,t,0,0,0
1:38.219,35359,),0,0,2
1:38.508,35463,(,0,0,0
1:38.556,35480,p,0,0,0
1:38.622,35504,),0,0,0
1:38.689,35528,(,0,0,1
1:38.722,35540,N,0,0,0
1:38.758,35553,),0,0,1
1:38.892,35601,(,0,0,2
1:38.989,35636,t,0,0,0
1:39.072,35666,),0,0,2
1:39.358,35769,(,0,0,0
1:39.400,35784,p,0,0,0
1:39.475,35811,),0,0,0
1:39.539,35834,(,0,0,1
1:39.569,35845,N,0,0,0
1:39.608,35859,),0,0,1
1:39.736,35905,(,0,0,2
1:39.836,35941,t,0,0,0
1:39.917,35970,),0,0,2
1:40.206,36074,(,0,0,0
1:40.250,36090,p,0,0,0
1:40.331,36119,),0,0,0
1:40.394,36142,(,0,0,1
1:40.428,36154,N,0,0,0
1:40.467,36168,),0,0,1
1:40.597,36215,(,0,0,2
1:40.697,36251,t,0,0,0
1:40.781,36281,),0,0,2
1:41.083,36390,(,0,0,0
1:41.136,36409,p,0,0,0
1:41.219,36439,),0,0,0
1:41.286,36463,(,0,0,1
1:41.319,36475,N,0,0,0
1:41.364,36491,),0,0,1
1:41.503,36541,(,0,0,2
1:41.617,36582,t,0,0,0
1:41.700,36612,),0,0,2
1:42.003,36721,(,0,0,0
1:42.050,36738,p,0,0,0
1:42.128,36766,),0,0,0
1:42.197,36791,(,0,0,1
1:42.231,36803,N,0,0,0
1:42.272,36818,),0,0,1
1:42.411,36868,(,0,0,2
1:42.514,36905,t,0,0,0
1:42.592,36933,),0,0,2
1:42.875,37035,(,0,0,0
1:42.922,37052,p,0,0,0
1:42.994,37078,),0,0,0
1:43.061,37102,(,0,0,1
1:43.094,37114,N,0,0,0
1:43.136,37129,),0,0,1
1:43.264,37175,(,0,0,2
1:43.358,37209,t,0,0,0
1:43.433,37236,),0,0,2
1:43.714,37337,(,0,0,0
1:43.761,37354,p,0,0,0
1:43.836,37381,),0,0,0
1:43.903,37405,(,0,0,1
1:43.936,37417,N,0,0,0
1:43.975,37431,),0,0,1
1:44.097,37475,(,0,0,2
1:44.192,37509,t,0,0,0
1:44.267,37536,),0,0,2
1:44.547,37637,(,0,0,0
1:44.594,37654,p,0,0,0
1:44.672,37682,),0,0,0
1:44.739,37706,(,0,0,1
1:44.769,37717,N,0,0,0
1:44.808,37731,),0,0,1
1:44.931,37775,(,0,0,2
1:45.031,37811,t,0,0,0
1:45.111,37840,),0,0,2
1:45.403,37945,(,0,0,0
1:45.453,37963,p,0,0,0
1:45.528,37990,),0,0,0
1:45.594,38014,(,0,0,1
1:45.625,38025,N,0,0,0
1:45.664,38039,),0,0,1
1:45.778,38080,(,0,0,2
1:45.878,38116,t,0,0,0
1:45.956,38144,),0,0,2
1:46.250,38250,(,0,0,0
1:46.297,38267,p,0,0,0
1:46.372,38294,),0,0,0
1:46.444,38320,(,0,0,1
1:46.475,38331,N,0,0,0
1:46.514,38345,),0,0,1
1:46.639,38390,(,0,0,2
1:46.742,38427,t,0,0,0
1:46.825,38457,),0,0,2
1:47.114,38561,(,0,0,0
1:47.164,38579,p,0,0,0
1:47.242,38607,),0,0,0
1:47.311,38632,(,0,0,1
1:47.350,38646,N,0,0,0
1:47.392,38661,),0,0,1
1:47.533,38712,(,0,0,2
1:47.639,38750,t,0,0,0
1:47.725,38781,),0,0,2
1:48.028,38890,(,0,0,0
1:48.078,38908,p,0,0,0
1:48.158,38937,),0,0,0
1:48.228,38962,(,0,0,1
1:48.258,38973,N,0,0,0
1:48.297,38987,),0,0,1
1:48.417,39030,(,0,0,2
1:48.528,39070,t,0,0,0
1:48.603,39097,),0,0,2
1:48.897,39203,(,0,0,0
1:48.944,39220,p,0,0,0
1:49.019,39247,),0,0,0
1:49.089,39272,(,0,0,1
1:49.119,39283,N,0,0,0
1:49.156,39296,),0,0,1
1:49.278,39340,(,0,0,2
1:49.369,39373,t,0,0,0
1:49.447,39401,),0,0,2
1:49.725,39501,(,0,0,0
1:49.769,39517,p,0,0,0
1:49.842,39543,),0,0,0
1:49.897,39563,(,0,0,1
1:49.936,39577,N,0,0,0
1:49.972,39590,),0,0,1
1:50.094,39634,(,0,0,2
1:50.200,39672,t,0,0,0
1:50.272,39698,),0,0,2
1:50.550,39798,(,0,0,0
1:50.592,39813,p,0,0,0
1:50.661,39838,),0,0,0
1:50.722,39860,(,0,0,1
1:50.756,39872,N,0,0,0
1:50.792,39885,),0,0,1
1:50.925,39933,(,0,0,2
1:51.028,39970,t,0,0,0
1:51.108,39999,),0,0,2
1:51.375,40095,(,0,0,0
1:51.419,40111,p,0,0,0
1:51.497,40139,),0,0,0
1:51.561,40162,(,0,0,1
1:51.603,40177,N,0,0,0
1:51.642,40191,),0,0,1
1:51.767,40236,(,0,0,2
1:51.875,40275,t,0,0,0
1:51.958,40305,),0,0,2
1:52.222,40400,(,0,0,0
1:52.269,40417,p,0,0,0
1:52.342,40443,),0,0,0
1:52.411,40468,(,0,0,1
1:52.444,40480,N,0,0,0
1:52.483,40494,),0,0,1
1:52.611,40540,(,0,0,2
1:52.719,40579,t,0,0,0
1:52.797,40607,),0,0,2
1:53.078,40708,(,0,0,0
1:53.125,40725,p,0,0,0
1:53.203,40753,),0,0,0
1:53.264,40775,(,0,0,1
1:53.297,40787,N,0,0,0
1:53.336,40801,),0,0,1
1:53.469,40849,(,0,0,2
1:53.578,40888,t,0,0,0
1:53.656,40916,),0,0,2
1:53.942,41019,(,0,0,0
1:53.994,41038,p,0,0,0
1:54.075,41067,),0,0,0
1:54.144,41092,(,0,0,1
1:54.178,41104,N,0,0,0
1:54.219,41119,),0,0,1
1:54.358,41169,(,0,0,2
1:54.467,41208,t,0,0,0
1:54.547,41237,),0,0,2
1:54.817,41334,(,0,0,0
1:54.864,41351,p,0,0,0
1:54.939,41378,),0,0,0
1:54.994,41398,(,0,0,1
1:55.033,41412,N,0,0,0
1:55.072,41426,),0,0,1
1:55.203,41473,(,0,0,2
1:55.303,41509,t,0,0,0
1:55.383,41538,),0,0,2
1:55.642,41631,(,0,0,0
1:55.686,41647,p,0,0,0
1:55.756,41672,),0,0,0
1:55.811,41692,(,0,0,1
1:55.847,41705,N,0,0,0
1:55.886,41719,),0,0,1
1:56.014,41765,(,0,0,2
1:56.111,41800,t,0,0,0
1:56.186,41827,),0,0,2
1:56.436,41917,(,0,0,0
1:56.483,41934,p,0,0,0
1:56.558,41961,),0,0,0
1:56.622,41984,(,0,0,1
1:56.653,41995,N,0,0,0
1:56.692,42009,),0,0,1
1:56.814,42053,(,0,0,2
1:56.911,42088,t,0,0,0
1:56.983,42114,),0,0,2
1:57.239,42206,(,0,0,0
1:57.283,42222,p,0,0,0
1:57.358,42249,),0,0,0
1:57.425,42273,(,0,0,1
1:57.458,42285,N,0,0,0
1:57.497,42299,),0,0,1
1:57.622,42344,(,0,0,2
1:57.722,42380,t,0,0,0
1:57.800,42408,),0,0,2
1:58.075,42507,(,0,0,0
1:58.122,42524,p,0,0,0
1:58.203,42553,),0,0,0
1:58.275,42579,(,0,0,1
1:58.306,42590,N,0,0,0
1:58.347,42605,),0,0,1
1:58.481,42653,(,0,0,2
1:58.578,42688,t,0,0,0
1:58.658,42717,),0,0,2
1:58.939,42818,(,0,0,0
1:58.986,42835,p,0,0,0
1:59.069,42865,),0,0,0
1:59.128,42886,(,0,0,1
1:59.167,42900,N,0,0,0
1:59.208,42915,),0,0,1
1:59.336,42961,(,0,0,2
1:59.439,42998,t,0,0,0
1:59.514,43025,),0,0,2
1:59.781,43121,(,0,0,0
1:59.831,43139,p,0,0,0
1:59.903,43165,),0,0,0
1:59.972,43190,(,0,0,1
2:00.006,43202,N,0,0,0
2:00.044,43216,),0,0,1
2:00.178,43264,(,0,0,2
2:00.286,43303,t,0,0,0
2:00.367,43332,),0,0,2
2:00.653,43435,(,0,0,0
2:00.708,43455,p,0,0,0
2:00.789,43484,),0,0,0
2:00.858,43509,(,0,0,1
2:00.889,43520,N,0,0,0
2:00.931,43535,),0,0,1
2:01.058,43581,(,0,0,2
2:01.161,43618,t,0,0,0
2:01.236,43645,),0,0,2
2:01.517,43746,(,0,0,0
2:01.561,43762,p,0,0,0
2:01.642,43791,),0,0,0
2:01.708,43815,(,0,0,1
2:01.739,43826,N,0,0,0
2:01.775,43839,),0,0,1
2:01.900,43884,(,0,0,2
2:01.986,43915,t,0,0,0
2:02.058,43941,),0,0,2
2:02.325,44037,(,0,0,0
2:02.372,44054,p,0,0,0
2:02.444,44080,),0,0,0
2:02.503,44101,(,0,0,1
2:02.536,44113,N,0,0,0
2:02.572,44126,),0,0,1
2:02.692,44169,(,0,0,2
2:02.786,44203,t,0,0,0
2:02.861,44230,),0,0,2
2:03.133,44328,(,0,0,0
2:03.183,44346,p,0,0,0
2:03.250,44370,),0,0,0
2:03.311,44392,(,0,0,1
2:03.342,44403,N,0,0,0
2:03.378,44416,),0,0,1
2:03.503,44461,(,0,0,2
2:03.603,44497,t,0,0,0
2:03.686,44527,),0,0,2
2:03.958,44625,(,0,0,0
2:04.006,44642,p,0,0,0
2:04.075,44667,),0,0,0
2:04.144,44692,(,0,0,1
2:04.178,44704,N,0,0,0
2:04.217,44718,),0,0,1
2:04.347,44765,(,0,0,2
2:04.453,44803,t,0,0,0
2:04.533,44832,),0,0,2
2:04.819,44935,(,0,0,0
2:04.867,44952,p,0,0,0
2:04.944,44980,),0,0,0
2:05.003,45001,(,0,0,1
2:05.036,45013,N,0,0,0
2:05.078,45028,),0,0,1
2:05.214,45077,(,0,0,2
2:05.317,45114,t,0,0,0
2:05.397,45143,),0,0,2
2:05.669,45241,(,0,0,0
2:05.722,45260,p,0,0,0
2:05.797,45287,),0,0,0
2:05.861,45310,(,0,0,1
2:05.894,45322,N,0,0,0
2:05.933,45336,),0,0,1
2:06.056,45380,(,0,0,2
2:06.164,45419,t,0,0,0
2:06.242,45447,),0,0,2
2:06.514,45545,(,0,0,0
2:06.567,45564,p,0,0,0
2:06.644,45592,),0,0,0
2:06.711,45616,(,0,0,1
2:06.744,45628,N,0,0,0
2:06.783,45642,),0,0,1
2:06.914,45689,(,0,0,2
2:07.019,45727,t,0,0,0
2:07.100,45756,),0,0,2
2:07.375,45855,(,0,0,0
2:07.419,45871,p,0,0,0
2:07.492,45897,),0,0,0
2:07.542,45915,(,0,0,1
2:07.581,45929,N,0,0,0
2:07.617,45942,),0,0,1
2:07.736,45985,(,0,0,2
2:07.842,46023,t,0,0,0
2:07.922,46052,),0,0,2
2:08.178,46144,(,0,0,0
2:08.219,46159,p,0,0,0
2:08.289,46184,),0,0,0
2:08.339,46202,(,0,0,1
2:08.375,46215,N,0,0,0
2:08.411,46228,),0,0,1
2:08.528,46270,(,0,0,2
2:08.631,46307,t,0,0,0
2:08.703,46333,),0,0,2
2:08.953,46423,(,0,0,0
2:08.994,46438,p,0,0,0
2:09.069,46465,),0,0,0
2:09.125,46485,(,0,0,1
2:09.158,46497,N,0,0,0
2:09.197,46511,),0,0,1
2:09.328,46558,(,0,0,2
2:09.428,46594,t,0,0,0
2:09.503,46621,),0,0,2
2:09.744,46708,(,0,0,0
2:09.792,46725,p,0,0,0
2:09.858,46749,),0,0,0
2:09.922,46772,(,0,0,1
2:09.953,46783,N,0,0,0
2:09.994,46798,),0,0,1
2:10.125,46845,(,0,0,2
2:10.239,46886,t,0,0,0
2:10.317,46914,),0,0,2
2:10.575,47007,(,0,0,0
2:10.628,47026,p,0,0,0
2:10.703,47053,),0,0,0
2:10.761,47074,(,0,0,1
2:10.806,47090,N,0,0,0
2:10.847,47105,),0,0,1
2:10.983,47154,(,0,0,2
2:11.092,47193,t,0,0,0
2:11.167,47220,),0,0,2
2:11.422,47312,(,0,0,0
2:11.467,47328,p,0,0,0
2:11.542,47355,),0,0,0
2:11.606,47378,(,0,0,1
2:11.639,47390,N,0,0,0
2:11.678,47404,),0,0,1
2:11.806,47450,(,0,0,2
2:11.914,47489,t,0,0,0
2:11.989,47516,),0,0,2
2:12.239,47606,(,0,0,0
2:12.283,47622,p,0,0,0
2:12.358,47649,),0,0,0
2:12.411,47668,(,0,0,1
2:12.450,47682,N,0,0,0
2:12.489,47696,),0,0,1
2:12.614,47741,(,0,0,2
2:12.725,47781,t,0,0,0
2:12.800,47808,),0,0,2
2:13.050,47898,(,0,0,0
2:13.100,47916,p,0,0,0
2:13.178,47944,),0,0,0
2:13.231,47963,(,0,0,1
2:13.269,47977,N,0,0,0
2:13.308,47991,),0,0,1
2:13.442,48039,(,0,0,2
2:13.547,48077,t,0,0,0
2:13.622,48104,),0,0,2
2:13.856,48188,(,0,0,0
2:13.903,48205,p,0,0,0
2:13.972,48230,),0,0,0
2:14.019,48247,(,0,0,1
2:14.058,48261,N,0,0,0
2:14.094,48274,),0,0,1
2:14.222,48320,(,0,0,2
2:14.325,48357,t,0,0,0
2:14.400,48384,),0,0,2
2:14.633,48468,(,0,0,0
2:14.675,48483,p,0,0,0
2:14.747,48509,),0,0,0
2:14.797,48527,(,0,0,1
2:14.833,48540,N,0,0,0
2:14.872,48554,),0,0,1
2:14.997,48599,(,0,0,2
2:15.100,48636,t,0,0,0
2:15.172,48662,),0,0,2
2:15.411,48748,(,0,0,0
2:15.456,48764,p,0,0,0
2:15.533,48792,),0,0,0
2:15.592,48813,(,0,0,1
2:15.625,48825,N,0,0,0
2:15.664,48839,),0,0,1
2:15.794,48886,(,0,0,2
2:15.894,48922,t,0,0,0
2:15.964,48947,),0,0,2
2:16.206,49034,(,0,0,0
2:16.253,49051,p,0,0,0
2:16.325,49077,),0,0,0
2:16.392,49101,(,0,0,1
2:16.425,49113,N,0,0,0
2:16.464,49127,),0,0,1
2:16.594,49174,(,0,0,2
2:16.706,49214,t,0,0,0
2:16.783,49242,),0,0,2
2:17.050,49338,(,0,0,0
2:17.100,49356,p,0,0,0
2:17.181,49385,),0,0,0
2:17.247,49409,(,0,0,1
2:17.281,49421,N,0,0,0
2:17.322,49436,),0,0,1
2:17.453,49483,(,0,0,2
2:17.567,49524,t,0,0,0
2:17.644,49552,),0,0,2
2:17.908,49647,(,0,0,0
2:17.958,49665,p,0,0,0
2:18.033,49692,),0,0,0
2:18.089,49712,(,0,0,1
2:18.131,49727,N,0,0,0
2:18.169,49741,),0,0,1
2:18.303,49789,(,0,0,2
2:18.408,49827,t,0,0,0
2:18.478,49852,),0,0,2
2:18.742,49947,(,0,0,0
2:18.786,49963,p,0,0,0
2:18.864,49991,),0,0,0
2:18.922,50012,(,0,0,1
2:18.953,50023,N,0,0,0
2:18.992,50037,),0,0,1
2:19.122,50084,(,0,0,2
2:19.222,50120,t,0,0,0
2:19.300,50148,),0,0,2
2:19.567,50244,(,0,0,0
2:19.617,50262,p,0,0,0
2:19.692,50289,),0,0,0
2:19.756,50312,(,0,0,1
2:19.789,50324,N,0,0,0
2:19.828,50338,),0,0,1
2:19.956,50384,(,0,0,2
2:20.058,50421,t,0,0,0
2:20.136,50449,),0,0,2
2:20.394,50542,(,0,0,0
2:20.439,50558,p,0,0,0
2:20.511,50584,),0,0,0
2:20.564,50603,(,0,0,1
2:20.603,50617,N,0,0,0
2:20.642,50631,),0,0,1
2:20.764,50675,(,0,0,2
2:20.867,50712,t,0,0,0
2:20.942,50739,),0,0,2
2:21.194,50830,(,0,0,0
2:21.239,50846,p,0,0,0
2:21.311,50872,),0,0,0
2:21.372,50894,(,0,0,1
2:21.406,50906,N,0,0,0
2:21.444,50920,),0,0,1
2:21.567,50964,(,0,0,2
2:21.664,50999,t,0,0,0
2:21.739,51026,),0,0,2
2:22.017,51126,(,0,0,0
2:22.067,51144,p,0,0,0
2:22.142,51171,),0,0,0
2:22.214,51197,(,0,0,1
2:22.247,51209,N,0,0,0
2:22.286,51223,),0,0,1
2:22.408,51267,(,0,0,2
2:22.506,51302,t,0,0,0
2:22.581,51329,),0,0,2
2:22.875,51435,(,0,0,0
2:22.928,51454,p,0,0,0
2:23.008,51483,),0,0,0
2:23.072,51506,(,0,0,1
2:23.106,51518,N,0,0,0
2:23.144,51532,),0,0,1
2:23.275,51579,(,0,0,2
2:23.381,51617,t,0,0,0
2:23.464,51647,),0,0,2
2:23.767,51756,(,0,0,0
2:23.822,51776,p,0,0,0
2:23.900,51804,),0,0,0
2:23.964,51827,(,0,0,1
2:23.997,51839,N,0,0,0
2:24.039,51854,),0,0,1
2:24.164,51899,(,0,0,2
2:24.267,51936,t,0,0,0
2:24.344,51964,),0,0,2
2:24.636,52069,(,0,0,0
2:24.683,52086,p,0,0,0
2:24.756,52112,),0,0,0
2:24.822,52136,(,0,0,1
2:24.853,52147,N,0,0,0
2:24.892,52161,),0,0,1
2:25.014,52205,(,0,0,2
2:25.111,52240,t,0,0,0
2:25.183,52266,),0,0,2
2:25.469,52369,(,0,0,0
2:25.517,52386,p,0,0,0
2:25.592,52413,),0,0,0
2:25.650,52434,(,0,0,1
2:25.683,52446,N,0,0,0
2:25.722,52460,),0,0,1
2:25.856,52508,(,0,0,2
2:25.953,52543,t,0,0,0
2:26.028,52570,),0,0,2
2:26.311,52672,(,0,0,0
2:26.361,52690,p,0,0,0
2:26.436,52717,),0,0,0
2:26.492,52737,(,0,0,1
2:26.525,52749,N,0,0,0
2:26.561,52762,),0,0,1
2:26.681,52805,(,0,0,2
2:26.775,52839,t,0,0,0
2:26.853,52867,),0,0,2
2:27.136,52969,(,0,0,0
2:27.183,52986,p,0,0,0
2:27.256,53012,),0,0,0
2:27.314,53033,(,0,0,1
2:27.344,53044,N,0,0,0
2:27.381,53057,),0,0,1
2:27.497,53099,(,0,0,2
2:27.592,53133,t,0,0,0
2:27.667,53160,),0,0,2
2:27.947,53261,(,0,0,0
2:27.992,53277,p,0,0,0
2:28.061,53302,),0,0,0
2:28.114,53321,(,0,0,1
2:28.153,53335,N,0,0,0
2:28.189,53348,),0,0,1
2:28.319,53395,(,0,0,2
2:28.425,53433,t,0,0,0
2:28.506,53462,),0,0,2
2:28.783,53562,(,0,0,0
2:28.825,53577,p,0,0,0
2:28.900,53604,),0,0,0
2:28.961,53626,(,0,0,1
2:29.000,53640,N,0,0,0
2:29.039,53654,),0,0,1
2:29.167,53700,(,0,0,2
2:29.283,53742,t,0,0,0
2:29.367,53772,),0,0,2
2:29.642,53871,(,0,0,0
2:29.694,53890,p,0,0,0
2:29.767,53916,),0,0,0
2:29.831,53939,(,0,0,1
2:29.864,53951,N,0,0,0
2:29.906,53966,),0,0,1
2:30.033,54012,(,0,0,2
2:30.150,54054,t,0,0,0
2:30.231,54083,),0,0,2
2:30.497,54179,(,0,0,0
2:30.544,54196,p,0,0,0
2:30.619,54223,),0,0,0
2:30.678,54244,(,0,0,1
2:30.708,54255,N,0,0,0
2:30.747,54269,),0,0,1
2:30.878,54316,(,0,0,2
2:30.983,54354,t,0,0,0
2:31.061,54382,),0,0,2
2:31.317,54474,(,0,0,0
2:31.364,54491,p,0,0,0
2:31.436,54517,),0,0,0
2:31.494,54538,(,0,0,1
2:31.528,54550,N,0,0,0
2:31.564,54563,),0,0,1
2:31.683,54606,(,0,0,2
2:31.783,54642,t,0,0,0
2:31.861,54670,),0,0,2
2:32.119,54763,(,0,0,0
2:32.164,54779,p,0,0,0
2:32.239,54806,),0,0,0
2:32.300,54828,(,0,0,1
2:32.333,54840,N,0,0,0
2:32.372,54854,),0,0,1
2:32.500,54900,(,0,0,2
2:32.603,54937,t,0,0,0
2:32.675,54963,),0,0,2
2:32.931,55055,(,0,0,0
2:32.972,55070,p,0,0,0
2:33.039,55094,),0,0,0
2:33.094,55114,(,0,0,1
2:33.125,55125,N,0,0,0
2:33.161,55138,),0,0,1
2:33.283,55182,(,0,0,2
2:33.392,55221,t,0,0,0
2:33.467,55248,),0,0,2
2:33.717,55338,(,0,0,0
2:33.761,55354,p,0,0,0
2:33.831,55379,),0,0,0
2:33.878,55396,(,0,0,1
2:33.914,55409,N,0,0,0
2:33.953,55423,),0,0,1
2:34.081,55469,(,0,0,2
2:34.186,55507,t,0,0,0
2:34.264,55535,),0,0,2
2:34.522,55628,(,0,0,0
2:34.567,55644,p,0,0,0
2:34.642,55671,),0,0,0
2:34.694,55690,(,0,0,1
2:34.736,55705,N,0,0,0
2:34.778,55720,),0,0,1
2:34.914,55769,(,0,0,2
2:35.019,55807,t,0,0,0
2:35.097,55835,),0,0,2
2:35.344,55924,(,0,0,0
2:35.394,55942,p,0,0,0
2:35.472,55970,),0,0,0
2:35.531,55991,(,0,0,1
2:35.567,56004,N,0,0,0
2:35.608,56019,),0,0,1
2:35.744,56068,(,0,0,2
2:35.853,56107,t,0,0,0
2:35.931,56135,),0,0,2
2:36.175,56223,(,0,0,0
2:36.219,56239,p,0,0,0
2:36.300,56268,),0,0,0
2:36.364,56291,(,0,0,1
2:36.400,56304,N,0,0,0
2:36.439,56318,),0,0,1
2:36.572,56366,(,0,0,2
2:36.678,56404,t,0,0,0
2:36.753,56431,),0,0,2
2:36.989,56516,(,0,0,0
2:37.031,56531,p,0,0,0
2:37.106,56558,),0,0,0
2:37.158,56577,(,0,0,1
2:37.192,56589,N,0,0,0
2:37.231,56603,),0,0,1
2:37.350,56646,(,0,0,2
2:37.456,56684,t,0,0,0
2:37.533,56712,),0,0,2
2:37.756,56792,(,0,0,0
2:37.797,56807,p,0,0,0
2:37.869,56833,),0,0,0
2:37.914,56849,(,0,0,1
2:37.953,56863,N,0,0,0
2:37.989,56876,),0,0,1
2:38.106,56918,(,0,0,2
2:38.208,56955,t,0,0,0
2:38.283,56982,),0,0,2
2:38.525,57069,(,0,0,0
2:38.569,57085,p,0,0,0
2:38.647,57113,),0,0,0
2:38.700,57132,(,0,0,1
2:38.739,57146,N,0,0,0
2:38.778,57160,),0,0,1
2:38.911,57208,(,0,0,2
2:39.008,57243,t,0,0,0
2:39.089,57272,),0,0,2
2:39.342,57363,(,0,0,0
2:39.383,57378,p,0,0,0
2:39.458,57405,),0,0,0
2:39.514,57425,(,0,0,1
2:39.550,57438,N,0,0,0
2:39.589,57452,),0,0,1
2:39.711,57496,(,0,0,2
2:39.811,57532,t,0,0,0
2:39.892,57561,),0,0,2
2:40.167,57660,(,0,0,0
2:40.211,57676,p,0,0,0
2:40.283,57702,),0,0,0
2:40.344,57724,(,0,0,1
2:40.378,57736,N,0,0,0
2:40.417,57750,),0,0,1
2:40.550,57798,(,0,0,2
2:40.650,57834,t,0,0,0
2:40.733,57864,),0,0,2
2:41.028,57970,(,0,0,0
2:41.075,57987,p,0,0,0
2:41.153,58015,),0,0,0
2:41.222,58040,(,0,0,1
2:41.256,58052,N,0,0,0
2:41.297,58067,),0,0,1
2:41.436,58117,(,0,0,2
2:41.536,58153,t,0,0,0
2:41.619,58183,),0,0,2
2:41.917,58290,(,0,0,0
2:41.958,58305,p,0,0,0
2:42.044,58336,),0,0,0
2:42.117,58362,(,0,0,1
2:42.153,58375,N,0,0,0
2:42.192,58389,),0,0,1
2:42.328,58438,(,0,0,2
2:42.425,58473,t,0,0,0
2:42.508,58503,),0,0,2
2:42.828,58618,(,0,0,0
2:42.875,58635,p,0,0,0
2:42.953,58663,),0,0,0
2:43.025,58689,(,0,0,1
2:43.058,58701,N,0,0,0
2:43.100,58716,),0,0,1
2:43.228,58762,(,0,0,2
2:43.319,58795,t,0,0,0
2:43.400,58824,),0,0,2
2:43.731,58943,(,0,0,0
2:43.775,58959,p,0,0,0
2:43.847,58985,),0,0,0
2:43.922,59012,(,0,0,1
2:43.953,59023,N,0,0,0
2:43.992,59037,),0,0,1
2:44.111,59080,(,0,0,2
2:44.200,59112,t,0,0,0
2:44.281,59141,),0,0,2
2:44.608,59259,(,0,0,0
2:44.653,59275,p,0,0,0
2:44.731,59303,),0,0,0
2:44.806,59330,(,0,0,1
2:44.839,59342,N,0,0,0
2:44.881,59357,),0,0,1
2:45.008,59403,(,0,0,2
2:45.108,59439,t,0,0,0
2:45.189,59468,),0,0,2
2:45.497,59579,(,0,0,0
2:45.544,59596,p,0,0,0
2:45.619,59623,),0,0,0
2:45.686,59647,(,0,0,1
2:45.719,59659,N,0,0,0
2:45.761,59674,),0,0,1
2:45.881,59717,(,0,0,2
2:45.978,59752,t,0,0,0
2:46.064,59783,),0,0,2
2:46.386,59899,(,0,0,0
2:46.428,59914,p,0,0,0
2:46.503,59941,),0,0,0
2:46.569,59965,(,0,0,1
2:46.600,59976,N,0,0,0
2:46.639,59990,),0,0,1
2:46.761,60034,(,0,0,2
2:46.856,60068,t,0,0,0
2:46.944,60100,),0,0,2
2:47.258,60213,(,0,0,0
2:47.306,60230,p,0,0,0
2:47.386,60259,),0,0,0
2:47.450,60282,(,0,0,1
2:47.483,60294,N,0,0,0
2:47.525,60309,),0,0,1
2:47.661,60358,(,0,0,2
2:47.767,60396,t,0,0,0
2:47.856,60428,),0,0,2
2:48.169,60541,(,0,0,0
2:48.217,60558,p,0,0,0
2:48.292,60585,),0,0,0
2:48.361,60610,(,0,0,1
2:48.394,60622,N,0,0,0
2:48.436,60637,),0,0,1
2:48.581,60689,(,0,0,2
2:48.678,60724,t,0,0,0
2:48.764,60755,),0,0,2
2:49.064,60863,(,0,0,0
2:49.108,60879,p,0,0,0
2:49.183,60906,),0,0,0
2:49.247,60929,(,0,0,1
2:49.281,60941,N,0,0,0
2:49.319,60955,),0,0,1
2:49.447,61001,(,0,0,2
2:49.544,61036,t,0,0,0
2:49.622,61064,),0,0,2
2:49.908,61167,(,0,0,0
2:49.953,61183,p,0,0,0
2:50.028,61210,),0,0,0
2:50.089,61232,(,0,0,1
2:50.122,61244,N,0,0,0
2:50.164,61259,),0,0,1
2:50.289,61304,(,0,0,2
2:50.381,61337,t,0,0,0
2:50.453,61363,),0,0,2
2:50.728,61462,(,0,0,0
2:50.772,61478,p,0,0,0
2:50.844,61504,),0,0,0
2:50.906,61526,(,0,0,1
2:50.936,61537,N,0,0,0
2:50.975,61551,),0,0,1
2:51.106,61598,(,0,0,2
2:51.197,61631,t,0,0,0
2:51.278,61660,),0,0,2
2:51.572,61766,(,0,0,0
2:51.622,61784,p,0,0,0
2:51.703,61813,),0,0,0
2:51.761,61834,(,0,0,1
2:51.794,61846,N,0,0,0
2:51.833,61860,),0,0,1
2:51.961,61906,(,0,0,2
2:52.061,61942,t,0,0,0
2:52.139,61970,),0,0,2
2:52.436,62077,(,0,0,0
2:52.483,62094,p,0,0,0
2:52.567,62124,),0,0,0
2:52.631,62147,(,0,0,1
2:52.664,62159,N,0,0,0
2:52.706,62174,),0,0,1
2:52.836,62221,(,0,0,2
2:52.933,62256,t,0,0,0
2:53.011,62284,),0,0,2
2:53.303,62389,(,0,0,0
2:53.350,62406,p,0,0,0
2:53.431,62435,),0,0,0
2:53.500,62460,(,0,0,1
2:53.533,62472,N,0,0,0
2:53.575,62487,),0,0,1
2:53.708,62535,(,0,0,2
2:53.803,62569,t,0,0,0
2:53.883,62598,),0,0,2
2:54.200,62712,(,0,0,0
2:54.247,62729,p,0,0,0
2:54.325,62757,),0,0,0
2:54.389,62780,(,0,0,1
2:54.419,62791,N,0,0,0
2:54.458,62805,),0,0,1
2:54.583,62850,(,0,0,2
2:54.681,62885,t,0,0,0
2:54.767,62916,),0,0,2
2:55.075,63027,(,0,0,0
2:55.119,63043,p,0,0,0
2:55.194,63070,),0,0,0
2:55.261,63094,(,0,0,1
2:55.292,63105,N,0,0,0
2:55.331,63119,),0,0,1
2:55.456,63164,(,0,0,2
2:55.558,63201,t,0,0,0
2:55.639,63230,),0,0,2
2:55.939,63338,(,0,0,0
2:55.981,63353,p,0,0,0
2:56.053,63379,),0,0,0
2:56.114,63401,(,0,0,1
2:56.144,63412,N,0,0,0
2:56.183,63426,),0,0,1
2:56.300,63468,(,0,0,2
2:56.397,63503,t,0,0,0
2:56.475,63531,),0,0,2
2:56.761,63634,(,0,0,0
2:56.806,63650,p,0,0,0
2:56.878,63676,),0,0,0
2:56.936,63697,(,0,0,1
2:56.969,63709,N,0,0,0
2:57.006,63722,),0,0,1
2:57.128,63766,(,0,0,2
2:57.222,63800,t,0,0,0
2:57.306,63830,),0,0,2
2:57.611,63940,(,0,0,0
2:57.658,63957,p,0,0,0
2:57.736,63985,),0,0,0
2:57.808,64011,(,0,0,1
2:57.842,64023,N,0,0,0
2:57.881,64037,),0,0,1
2:58.014,64085,(,0,0,2
2:58.122,64124,t,0,0,0
2:58.208,64155,),0,0,2
2:58.528,64270,(,0,0,0
2:58.575,64287,p,0,0,0
2:58.653,64315,),0,0,0
2:58.731,64343,(,0,0,1
2:58.767,64356,N,0,0,0
2:58.806,64370,),0,0,1
2:58.944,64420,(,0,0,2
2:59.044,64456,t,0,0,0
2:59.128,64486,),0,0,2
2:59.444,64600,(,0,0,0
2:59.486,64615,p,0,0,0
2:59.567,64644,),0,0,0
2:59.639,64670,(,0,0,1
2:59.672,64682,N,0,0,0
2:59.714,64697,),0,0,1
2:59.850,64746,(,0,0,2
2:59.950,64782,t,0,0,0
3:00.036,64813,),0,0,2
3:00.358,64929,(,0,0,0
3:00.406,64946,p,0,0,0
3:00.483,64974,),0,0,0
3:00.556,65000,(,0,0,1
3:00.592,65013,N,0,0,0
3:00.631,65027,),0,0,1
3:00.767,65076,(,0,0,2
3:00.861,65110,t,0,0,0
3:00.939,65138,),0,0,2
3:01.239,65246,(,0,0,0
3:01.286,65263,p,0,0,0
3:01.364,65291,),0,0,0
3:01.428,65314,(,0,0,1
3:01.461,65326,N,0,0,0
3:01.503,65341,),0,0,1
3:01.628,65386,(,0,0,2
3:01.725,65421,t,0,0,0
3:01.806,65450,),0,0,2
3:02.103,65557,(,0,0,0
3:02.153,65575,p,0,0,0
3:02.233,65604,),0,0,0
3:02.294,65626,(,0,0,1
3:02.328,65638,N,0,0,0
3:02.364,65651,),0,0,1
3:02.481,65693,(,0,0,2
3:02.575,65727,t,0,0,0
3:02.650,65754,),0,0,2
3:02.950,65862,(,0,0,0
3:02.994,65878,p,0,0,0
3:03.072,65906,),0,0,0
3:03.125,65925,(,0,0,1
3:03.161,65938,N,0,0,0
3:03.200,65952,),0,0,1
3:03.314,65993,(,0,0,2
3:03.408,66027,t,0,0,0
3:03.486,66055,),0,0,2
3:03.778,66160,(,0,0,0
3:03.822,66176,p,0,0,0
3:03.900,66204,),0,0,0
3:03.964,66227,(,0,0,1
3:03.994,66238,N,0,0,0
3:04.036,66253,),0,0,1
3:04.172,66302,(,0,0,2
3:04.278,66340,t,0,0,0
3:04.358,66369,),0,0,2
3:04.683,66486,(,0,0,0
3:04.736,66505,p,0,0,0
3:04.814,66533,),0,0,0
3:04.886,66559,(,0,0,1
3:04.922,66572,N,0,0,0
3:04.961,66586,),0,0,1
3:05.092,66633,(,0,0,2
3:05.194,66670,t,0,0,0
3:05.281,66701,),0,0,2
3:05.597,66815,(,0,0,0
3:05.642,66831,p,0,0,0
3:05.722,66860,),0,0,0
3:05.781,66881,(,0,0,1
3:05.819,66895,N,0,0,0
3:05.858,66909,),0,0,1
3:05.972,66950,(,0,0,2
3:06.075,66987,t,0,0,0
3:06.158,67017,),0,0,2
3:06.469,67129,(,0,0,0
3:06.514,67145,p,0,0,0
3:06.586,67171,),0,0,0
3:06.658,67197,(,0,0,1
3:06.692,67209,N,0,0,0
3:06.733,67224,),0,0,1
3:06.872,67274,(,0,0,2
3:06.972,67310,t,0,0,0
3:07.056,67340,),0,0,2
3:07.344,67444,(,0,0,0
3:07.386,67459,p,0,0,0
3:07.461,67486,),0,0,0
3:07.531,67511,(,0,0,1
3:07.564,67523,N,0,0,0
3:07.603,67537,),0,0,1
3:07.731,67583,(,0,0,2
3:07.836,67621,t,0,0,0
3:07.917,67650,),0,0,2
3:08.194,67750,(,0,0,0
3:08.239,67766,p,0,0,0
3:08.317,67794,),0,0,0
3:08.378,67816,(,0,0,1
3:08.417,67830,N,0,0,0
3:08.456,67844,),0,0,1
3:08.583,67890,(,0,0,2
3:08.683,67926,t,0,0,0
3:08.767,67956,),0,0,2
3:09.047,68057,(,0,0,0
3:09.094,68074,p,0,0,0
3:09.167,68100,),0,0,0
3:09.233,68124,(,0,0,1
3:09.264,68135,N,0,0,0
3:09.303,68149,),0,0,1
3:09.433,68196,(,0,0,2
3:09.528,68230,t,0,0,0
3:09.606,68258,),0,0,2
3:09.897,68363,(,0,0,0
3:09.936,68377,p,0,0,0
3:10.014,68405,),0,0,0
3:10.081,68429,(,0,0,1
3:10.114,68441,N,0,0,0
3:10.153,68455,),0,0,1
3:10.286,68503,(,0,0,2
3:10.386,68539,t,0,0,0
3:10.469,68569,),0,0,2
3:10.792,68685,(,0,0,0
3:10.839,68702,p,0,0,0
3:10.922,68732,),0,0,0
3:10.997,68759,(,0,0,1
3:11.031,68771,N,0,0,0
3:11.072,68786,),0,0,1
3:11.214,68837,(,0,0,2
3:11.314,68873,t,0,0,0
3:11.403,68905,),0,0,2
3:11.714,69017,(,0,0,0
3:11.761,69034,p,0,0,0
3:11.842,69063,),0,0,0
3:11.917,69090,(,0,0,1
3:11.950,69102,N,0,0,0
3:11.992,69117,),0,0,1
3:12.125,69165,(,0,0,2
3:12.225,69201,t,0,0,0
3:12.303,69229,),0,0,2
3:12.617,69342,(,0,0,0
3:12.661,69358,p,0,0,0
3:12.742,69387,),0,0,0
3:12.819,69415,(,0,0,1
3:12.853,69427,N,0,0,0
3:12.889,69440,),0,0,1
3:13.017,69486,(,0,0,2
3:13.108,69519,t,0,0,0
3:13.189,69548,),0,0,2
3:13.500,69660,(,0,0,0
3:13.544,69676,p,0,0,0
3:13.619,69703,),0,0,0
3:13.689,69728,(,0,0,1
3:13.719,69739,N,0,0,0
3:13.753,69751,),0,0,1
3:13.872,69794,(,0,0,2
3:13.969,69829,t,0,0,0
3:14.053,69859,),0,0,2
3:14.361,69970,(,0,0,0
3:14.408,69987,p,0,0,0
3:14.481,70013,),0,0,0
3:14.547,70037,(,0,0,1
3:14.586,70051,N,0,0,0
3:14.619,70063,),0,0,1
3:14.747,70109,(,0,0,2
3:14.850,70146,t,0,0,0
3:14.936,70177,),0,0,2
3:15.233,70284,(,0,0,0
3:15.275,70299,p,0,0,0
3:15.344,70324,),0,0,0
3:15.414,70349,(,0,0,1
3:15.453,70363,N,0,0,0
3:15.489,70376,),0,0,1
3:15.617,70422,(,0,0,2
3:15.714,70457,t,0,0,0
3:15.797,70487,),0,0,2
3:16.092,70593,(,0,0,0
3:16.139,70610,p,0,0,0
3:16.211,70636,),0,0,0
3:16.294,70666,(,0,0,1
3:16.325,70677,N,0,0,0
3:16.367,70692,),0,0,1
3:16.492,70737,(,0,0,2
3:16.594,70774,t,0,0,0
3:16.681,70805,),0,0,2
3:16.994,70918,(,0,0,0
3:17.047,70937,p,0,0,0
3:17.125,70965,),0,0,0
3:17.211,70996,(,0,0,1
3:17.247,71009,N,0,0,0
3:17.289,71024,),0,0,1
3:17.431,71075,(,0,0,2
3:17.536,71113,t,0,0,0
3:17.622,71144,),0,0,2
3:17.936,71257,(,0,0,0
3:17.983,71274,p,0,0,0
3:18.061,71302,),0,0,0
3:18.144,71332,(,0,0,1
3:18.181,71345,N,0,0,0
3:18.217,71358,),0,0,1
3:18.358,71409,(,0,0,2
3:18.461,71446,t,0,0,0
3:18.547,71477,),0,0,2
3:18.842,71583,(,0,0,0
3:18.889,71600,p,0,0,0
3:18.969,71629,),0,0,0
3:19.042,71655,(,0,0,1
3:19.083,71670,N,0,0,0
3:19.119,71683,),0,0,1
3:19.250,71730,(,0,0,2
3:19.342,71763,t,0,0,0
3:19.425,71793,),0,0,2
3:19.717,71898,(,0,0,0
3:19.761,71914,p,0,0,0
3:19.839,71942,),0,0,0
3:19.911,71968,(,0,0,1
3:19.944,71980,N,0,0,0
3:19.978,71992,),0,0,1
3:20.097,72035,(,0,0,2
3:20.186,72067,t,0,0,0
3:20.267,72096,),0,0,2
3:20.572,72206,(,0,0,0
3:20.617,72222,p,0,0,0
3:20.694,72250,),0,0,0
3:20.761,72274,(,0,0,1
3:20.794,72286,N,0,0,0
3:20.828,72298,),0,0,1
3:20.953,72343,(,0,0,2
3:21.053,72379,t,0,0,0
3:21.139,72410,),0,0,2
3:21.439,72518,(,0,0,0
3:21.486,72535,p,0,0,0
3:21.564,72563,),0,0,0
3:21.628,72586,(,0,0,1
3:21.658,72597,N,0,0,0
3:21.697,72611,),0,0,1
3:21.817,72654,(,0,0,2
3:21.914,72689,t,0,0,0
3:21.997,72719,),0,0,2
3:22.294,72826,(,0,0,0
3:22.344,72844,p,0,0,0
3:22.417,72870,),0,0,0
3:22.481,72893,(,0,0,1
3:22.514,72905,N,0,0,0
3:22.550,72918,),0,0,1
3:22.681,72965,(,0,0,2
3:22.775,72999,t,0,0,0
3:22.861,73030,),0,0,2
3:23.172,73142,(,0,0,0
3:23.217,73158,p,0,0,0
3:23.297,73187,),0,0,0
3:23.375,73215,(,0,0,1
3:23.408,73227,N,0,0,0
3:23.450,73242,),0,0,1
3:23.592,73293,(,0,0,2
3:23.694,73330,t,0,0,0
3:23.783,73362,),0,0,2
3:24.097,73475,(,0,0,0
3:24.147,73493,p,0,0,0
3:24.228,73522,),0,0,0
3:24.292,73545,(,0,0,1
3:24.328,73558,N,0,0,0
3:24.367,73572,),0,0,1
3:24.494,73618,(,0,0,2
3:24.592,73653,t,0,0,0
3:24.678,73684,),0,0,2
3:24.972,73790,(,0,0,0
3:25.017,73806,p,0,0,0
3:25.086,73831,),0,0,0
3:25.153,73855,(,0,0,1
3:25.183,73866,N,0,0,0
3:25.217,73878,),0,0,1
3:25.342,73923,(,0,0,2
3:25.439,73958,t,0,0,0
3:25.528,73990,),0,0,2
3:25.797,74087,(,0,0,0
3:25.842,74103,p,0,0,0
3:25.917,74130,),0,0,0
3:25.975,74151,(,0,0,1
3:26.014,74165,N,0,0,0
3:26.050,74178,),0,0,1
3:26.178,74224,(,0,0,2
3:26.275,74259,t,0,0,0
3:26.358,74289,),0,0,2
3:26.617,74382,(,0,0,0
3:26.656,74396,p,0,0,0
3:26.731,74423,),0,0,0
3:26.794,74446,(,0,0,1
3:26.831,74459,N,0,0,0
3:26.872,74474,),0,0,1
3:27.000,74520,(,0,0,2
3:27.097,74555,t,0,0,0
3:27.178,74584,),0,0,2
3:27.453,74683,(,0,0,0
3:27.500,74700,p,0,0,0
3:27.578,74728,),0,0,0
3:27.647,74753,(,0,0,1
3:27.681,74765,N,0,0,0
3:27.722,74780,),0,0,1
3:27.858,74829,(,0,0,2
3:27.953,74863,t,0,0,0
3:28.033,74892,),0,0,2
3:28.300,74988,(,0,0,0
3:28.350,75006,p,0,0,0
3:28.425,75033,),0,0,0
3:28.494,75058,(,0,0,1
3:28.531,75071,N,0,0,0
3:28.569,75085,),0,0,1
3:28.706,75134,(,0,0,2
3:28.800,75168,t,0,0,0
3:28.881,75197,),0,0,2
3:29.156,75296,(,0,0,0
3:29.203,75313,p,0,0,0
3:29.283,75342,),0,0,0
3:29.347,75365,(,0,0,1
3:29.383,75378,N,0,0,0
3:29.422,75392,),0,0,1
3:29.561,75442,(,0,0,2
3:29.661,75478,t,0,0,0
3:29.744,75508,),0,0,2
3:30.039,75614,(,0,0,0
3:30.086,75631,p,0,0,0
3:30.172,75662,),0,0,0
3:30.247,75689,(,0,0,1
3:30.283,75702,N,0,0,0
3:30.325,75717,),0,0,1
3:30.461,75766,(,0,0,2
3:30.564,75803,t,0,0,0
3:30.647,75833,),0,0,2
3:30.908,75927,(,0,0,0
3:30.953,75943,p,0,0,0
3:31.033,75972,),0,0,0
3:31.108,75999,(,0,0,1
3:31.142,76011,N,0,0,0
3:31.178,76024,),0,0,1
3:31.308,76071,(,0,0,2
3:31.397,76103,t,0,0,0
3:31.478,76132,),0,0,2
3:31.719,76219,(,0,0,0
3:31.767,76236,p,0,0,0
3:31.842,76263,),0,0,0
3:31.908,76287,(,0,0,1
3:31.939,76298,N,0,0,0
3:31.975,76311,),0,0,1
3:32.094,76354,(,0,0,2
3:32.186,76387,t,0,0,0
3:32.264,76415,),0,0,2
3:32.542,76515,(,0,0,0
3:32.586,76531,p,0,0,0
3:32.658,76557,),0,0,0
3:32.728,76582,(,0,0,1
3:32.758,76593,N,0,0,0
3:32.792,76605,),0,0,1
3:32.917,76650,(,0,0,2
3:33.008,76683,t,0,0,0
3:33.086,76711,),0,0,2
3:33.364,76811,(,0,0,0
3:33.411,76828,p,0,0,0
3:33.486,76855,),0,0,0
3:33.550,76878,(,0,0,1
3:33.583,76890,N,0,0,0
3:33.622,76904,),0,0,1
3:33.747,76949,(,0,0,2
3:33.844,76984,t,0,0,0
3:33.925,77013,),0,0,2
3:34.203,77113,(,0,0,0
3:34.250,77130,p,0,0,0
3:34.325,77157,),0,0,0
3:34.389,77180,(,0,0,1
3:34.422,77192,N,0,0,0
3:34.461,77206,),0,0,1
3:34.589,77252,(,0,0,2
3:34.686,77287,t,0,0,0
3:34.772,77318,),0,0,2
3:35.053,77419,(,0,0,0
3:35.103,77437,p,0,0,0
3:35.181,77465,),0,0,0
3:35.244,77488,(,0,0,1
3:35.278,77500,N,0,0,0
3:35.319,77515,),0,0,1
3:35.444,77560,(,0,0,2
3:35.544,77596,t,0,0,0
3:35.628,77626,),0,0,2
3:35.906,77726,(,0,0,0
3:35.956,77744,p,0,0,0
3:36.042,77775,),0,0,0
3:36.111,77800,(,0,0,1
3:36.144,77812,N,0,0,0
3:36.186,77827,),0,0,1
3:36.319,77875,(,0,0,2
3:36.422,77912,t,0,0,0
3:36.503,77941,),0,0,2
3:36.786,78043,(,0,0,0
3:36.836,78061,p,0,0,0
3:36.914,78089,),0,0,0
3:36.978,78112,(,0,0,1
3:37.011,78124,N,0,0,0
3:37.053,78139,),0,0,1
3:37.175,78183,(,0,0,2
3:37.269,78217,t,0,0,0
3:37.350,78246,),0,0,2
3:37.608,78339,(,0,0,0
3:37.658,78357,p,0,0,0
3:37.728,78382,),0,0,0
3:37.789,78404,(,0,0,1
3:37.817,78414,N,0,0,0
3:37.856,78428,),0,0,1
3:37.969,78469,(,0,0,2
3:38.064,78503,t,0,0,0
3:38.144,78532,),0,0,2
3:38.397,78623,(,0,0,0
3:38.442,78639,p,0,0,0
3:38.508,78663,),0,0,0
3:38.572,78686,(,0,0,1
3:38.603,78697,N,0,0,0
3:38.642,78711,),0,0,1
3:38.764,78755,(,0,0,2
3:38.864,78791,t,0,0,0
3:38.942,78819,),0,0,2
3:39.192,78909,(,0,0,0
3:39.236,78925,p,0,0,0
3:39.303,78949,),0,0,0
3:39.369,78973,(,0,0,1
3:39.400,78984,N,0,0,0
3:39.439,78998,),0,0,1
3:39.569,79045,(,0,0,2
3:39.675,79083,t,0,0,0
3:39.756,79112,),0,0,2
3:40.019,79207,(,0,0,0
3:40.067,79224,p,0,0,0
3:40.142,79251,),0,0,0
3:40.211,79276,(,0,0,1
3:40.244,79288,N,0,0,0
3:40.283,79302,),0,0,1
3:40.419,79351,(,0,0,2
3:40.525,79389,t,0,0,0
3:40.611,79420,),0,0,2
3:40.869,79513,(,0,0,0
3:40.917,79530,p,0,0,0
3:40.992,79557,),0,0,0
3:41.058,79581,(,0,0,1
3:41.092,79593,N,0,0,0
3:41.131,79607,),0,0,1
3:41.269,79657,(,0,0,2
3:41.364,79691,t,0,0,0
3:41.444,79720,),0,0,2
3:41.714,79817,(,0,0,0
3:41.758,79833,p,0,0,0
3:41.833,79860,),0,0,0
3:41.897,79883,(,0,0,1
3:41.931,79895,N,0,0,0
3:41.969,79909,),0,0,1
3:42.108,79959,(,0,0,2
3:42.208,79995,t,0,0,0
3:42.289,80024,),0,0,2
3:42.561,80122,(,0,0,0
3:42.608,80139,p,0,0,0
3:42.686,80167,),0,0,0
3:42.758,80193,(,0,0,1
3:42.792,80205,N,0,0,0
3:42.833,80220,),0,0,1
3:42.969,80269,(,0,0,2
3:43.072,80306,t,0,0,0
3:43.153,80335,),0,0,2
3:43.406,80426,(,0,0,0
3:43.453,80443,p,0,0,0
3:43.528,80470,),0,0,0
3:43.592,80493,(,0,0,1
3:43.625,80505,N,0,0,0
3:43.664,80519,),0,0,1
3:43.789,80564,(,0,0,2
3:43.886,80599,t,0,0,0
3:43.964,80627,),0,0,2
3:44.214,80717,(,0,0,0
3:44.253,80731,p,0,0,0
3:44.325,80757,),0,0,0
3:44.386,80779,(,0,0,1
3:44.422,80792,N,0,0,0
3:44.461,80806,),0,0,1
3:44.600,80856,(,0,0,2
3:44.686,80887,t,0,0,0
3:44.764,80915,),0,0,2
3:45.008,81003,(,0,0,0
3:45.064,81023,p,0,0,0
3:45.139,81050,),0,0,0
3:45.203,81073,(,0,0,1
3:45.236,81085,N,0,0,0
3:45.275,81099,),0,0,1
3:45.394,81142,(,0,0,2
3:45.500,81180,t,0,0,0
3:45.569,81205,),0,0,2
3:45.814,81293,(,0,0,0
3:45.858,81309,p,0,0,0
3:45.933,81336,),0,0,0
3:46.003,81361,(,0,0,1
3:46.036,81373,N,0,0,0
3:46.078,81388,),0,0,1
3:46.208,81435,(,0,0,2
3:46.311,81472,t,0,0,0
3:46.386,81499,),0,0,2
3:46.667,81600,(,0,0,0
3:46.717,81618,p,0,0,0
3:46.797,81647,),0,0,0
3:46.872,81674,(,0,0,1
3:46.908,81687,N,0,0,0
3:46.950,81702,),0,0,1
3:47.092,81753,(,0,0,2
3:47.183,81786,t,0,0,0
3:47.264,81815,),0,0,2
3:47.528,81910,(,0,0,0
3:47.578,81928,p,0,0,0
3:47.661,81958,),0,0,0
3:47.722,81980,(,0,0,1
3:47.761,81994,N,0,0,0
3:47.800,82008,),0,0,1
3:47.928,82054,(,0,0,2
3:48.028,82090,t,0,0,0
3:48.108,82119,),0,0,2
3:48.367,82212,(,0,0,0
3:48.411,82228,p,0,0,0
3:48.483,82254,),0,0,0
3:48.553,82279,(,0,0,1
3:48.586,82291,N,0,0,0
3:48.625,82305,),0,0,1
3:48.758,82353,(,0,0,2
3:48.858,82389,t,0,0,0
3:48.942,82419,),0,0,2
3:49.225,82521,(,0,0,0
3:49.269,82537,p,0,0,0
3:49.353,82567,),0,0,0
3:49.422,82592,(,0,0,1
3:49.456,82604,N,0,0,0
3:49.497,82619,),0,0,1
3:49.625,82665,(,0,0,2
3:49.725,82701,t,0,0,0
3:49.800,82728,),0,0,2
3:50.058,82821,(,0,0,0
3:50.103,82837,p,0,0,0
3:50.178,82864,),0,0,0
3:50.250,82890,(,0,0,1
3:50.283,82902,N,0,0,0
3:50.322,82916,),0,0,1
3:50.442,82959,(,0,0,2
3:50.533,82992,t,0,0,0
3:50.606,83018,),0,0,2
3:50.853,83107,(,0,0,0
3:50.897,83123,p,0,0,0
3:50.978,83152,),0,0,0
3:51.042,83175,(,0,0,1
3:51.075,83187,N,0,0,0
3:51.111,83200,),0,0,1
3:51.228,83242,(,0,0,2
3:51.319,83275,t,0,0,0
3:51.403,83305,),0,0,2
3:51.681,83405,(,0,0,0
3:51.728,83422,p,0,0,0
3:51.806,83450,),0,0,0
3:51.861,83470,(,0,0,1
3:51.897,83483,N,0,0,0
3:51.931,83495,),0,0,1
3:52.053,83539,(,0,0,2
3:52.153,83575,t,0,0,0
3:52.231,83603,),0,0,2
3:52.519,83707,(,0,0,0
3:52.564,83723,p,0,0,0
3:52.644,83752,),0,0,0
3:52.708,83775,(,0,0,1
3:52.742,83787,N,0,0,0
3:52.781,83801,),0,0,1
3:52.914,83849,(,0,0,2
3:53.019,83887,t,0,0,0
3:53.103,83917,),0,0,2
3:53.392,84021,(,0,0,0
3:53.444,84040,p,0,0,0
3:53.517,84066,),0,0,0
3:53.575,84087,(,0,0,1
3:53.617,84102,N,0,0,0
3:53.653,84115,),0,0,1
3:53.775,84159,(,0,0,2
3:53.883,84198,t,0,0,0
3:53.964,84227,),0,0,2
3:54.239,84326,(,0,0,0
3:54.286,84343,p,0,0,0
3:54.364,84371,),0,0,0
3:54.422,84392,(,0,0,1
3:54.453,84403,N,0,0,0
3:54.492,84417,),0,0,1
3:54.617,84462,(,0,0,2
3:54.717,84498,t,0,0,0
3:54.794,84526,),0,0,2
3:55.053,84619,(,0,0,0
3:55.100,84636,p,0,0,0
3:55.172,84662,),0,0,0
3:55.239,84686,(,0,0,1
3:55.272,84698,N,0,0,0
3:55.311,84712,),0,0,1
3:55.442,84759,(,0,0,2
3:55.539,84794,t,0,0,0
3:55.619,84823,),0,0,2
3:55.875,84915,(,0,0,0
3:55.922,84932,p,0,0,0
3:55.992,84957,),0,0,0
3:56.056,84980,(,0,0,1
3:56.086,84991,N,0,0,0
3:56.125,85005,),0,0,1
3:56.247,85049,(,0,0,2
3:56.339,85082,t,0,0,0
3:56.417,85110,),0,0,2
3:56.661,85198,(,0,0,0
3:56.708,85215,p,0,0,0
3:56.778,85240,),0,0,0
3:56.839,85262,(,0,0,1
3:56.869,85273,N,0,0,0
3:56.906,85286,),0,0,1
3:57.017,85326,(,0,0,2
3:57.111,85360,t,0,0,0
3:57.186,85387,),0,0,2
3:57.425,85473,(,0,0,0
3:57.469,85489,p,0,0,0
3:57.544,85516,),0,0,0
3:57.592,85533,(,0,0,1
3:57.628,85546,N,0,0,0
3:57.667,85560,),0,0,1
3:57.781,85601,(,0,0,2
3:57.889,85640,t,0,0,0
3:57.964,85667,),0,0,2
3:58.219,85759,(,0,0,0
3:58.267,85776,p,0,0,0
3:58.336,85801,),0,0,0
3:58.392,85821,(,0,0,1
3:58.428,85834,N,0,0,0
3:58.467,85848,),0,0,1
3:58.594,85894,(,0,0,2
3:58.700,85932,t,0,0,0
3:58.781,85961,),0,0,2
3:59.047,86057,(,0,0,0
3:59.092,86073,p,0,0,0
3:59.169,86101,),0,0,0
3:59.233,86124,(,0,0,1
3:59.267,86136,N,0,0,0
3:59.308,86151,),0,0,1
3:59.444,86200,(,0,0,2
3:59.550,86238,t,0,0,0
3:59.631,86267,),0,0,2
3:59.892,86361,(,0,0,0
3:59.939,86378,p,0,0,0
4:00.017,86406,),0,0,0
4:00.075,86427,(,0,0,1
4:00.108,86439,N,0,0,0
4:00.147,86453,),0,0,1
4:00.275,86499,(,0,0,2
4:00.378,86536,t,0,0,0
4:00.456,86564,),0,0,2
4:00.711,86656,(,0,0,0
4:00.758,86673,p,0,0,0
4:00.833,86700,),0,0,0
4:00.894,86722,(,0,0,1
4:00.928,86734,N,0,0,0
4:00.964,86747,),0,0,1
4:01.083,86790,(,0,0,2
4:01.183,86826,t,0,0,0
4:01.261,86854,),0,0,2
4:01.514,86945,(,0,0,0
4:01.558,86961,p,0,0,0
4:01.633,86988,),0,0,0
4:01.692,87009,(,0,0,1
4:01.731,87023,N,0,0,0
4:01.769,87037,),0,0,1
4:01.900,87084,(,0,0,2
4:01.997,87119,t,0,0,0
4:02.078,87148,),0,0,2
4:02.322,87236,(,0,0,0
4:02.369,87253,p,0,0,0
4:02.439,87278,),0,0,0
4:02.497,87299,(,0,0,1
4:02.528,87310,N,0,0,0
4:02.564,87323,),0,0,1
4:02.678,87364,(,0,0,2
4:02.781,87401,t,0,0,0
4:02.858,87429,),0,0,2
4:03.103,87517,(,0,0,0
4:03.147,87533,p,0,0,0
4:03.222,87560,),0,0,0
4:03.272,87578,(,0,0,1
4:03.306,87590,N,0,0,0
4:03.342,87603,),0,0,1
4:03.458,87645,(,0,0,2
4:03.558,87681,t,0,0,0
4:03.636,87709,),0,0,2
4:03.881,87797,(,0,0,0
4:03.922,87812,p,0,0,0
4:03.997,87839,),0,0,0
4:04.056,87860,(,0,0,1
4:04.086,87871,N,0,0,0
4:04.125,87885,),0,0,1
4:04.253,87931,(,0,0,2
4:04.361,87970,t,0,0,0
4:04.442,87999,),0,0,2
4:04.689,88088,(,0,0,0
4:04.733,88104,p,0,0,0
4:04.806,88130,),0,0,0
4:04.869,88153,(,0,0,1
4:04.903,88165,N,0,0,0
4:04.942,88179,),0,0,1
4:05.072,88226,(,0,0,2
4:05.183,88266,t,0,0,0
4:05.264,88295,),0,0,2
4:05.522,88388,(,0,0,0
4:05.569,88405,p,0,0,0
4:05.650,88434,),0,0,0
4:05.714,88457,(,0,0,1
4:05.747,88469,N,0,0,0
4:05.786,88483,),0,0,1
4:05.925,88533,(,0,0,2
4:06.031,88571,t,0,0,0
4:06.114,88601,),0,0,2
4:06.369,88693,(,0,0,0
4:06.417,88710,p,0,0,0
4:06.486,88735,),0,0,0
4:06.542,88755,(,0,0,1
4:06.578,88768,N,0,0,0
4:06.617,88782,),0,0,1
4:06.744,88828,(,0,0,2
4:06.850,88866,t,0,0,0
4:06.933,88896,),0,0,2
4:07.169,88981,(,0,0,0
4:07.214,88997,p,0,0,0
4:07.283,89022,),0,0,0
4:07.339,89042,(,0,0,1
4:07.375,89055,N,0,0,0
4:07.414,89069,),0,0,1
4:07.528,89110,(,0,0,2
4:07.628,89146,t,0,0,0
4:07.706,89174,),0,0,2
4:07.947,89261,(,0,0,0
4:07.994,89278,p,0,0,0
4:08.067,89304,),0,0,0
4:08.125,89325,(,0,0,1
4:08.164,89339,N,0,0,0
4:08.203,89353,),0,0,1
4:08.333,89400,(,0,0,2
4:08.433,89436,t,0,0,0
4:08.508,89463,),0,0,2
4:08.758,89553,(,0,0,0
4:08.803,89569,p,0,0,0
4:08.878,89596,),0,0,0
4:08.933,89616,(,0,0,1
4:08.967,89628,N,0,0,0
4:09.003,89641,),0,0,1
4:09.119,89683,(,0,0,2
4:09.219,89719,t,0,0,0
4:09.294,89746,),0,0,2
4:09.539,89834,(,0,0,0
4:09.581,89849,p,0,0,0
4:09.650,89874,),0,0,0
4:09.706,89894,(,0,0,1
4:09.742,89907,N,0,0,0
4:09.778,89920,),0,0,1
4:09.892,89961,(,0,0,2
4:09.992,89997,t,0,0,0
4:10.069,90025,),0,0,2
4:10.328,90118,(,0,0,0
4:10.369,90133,p,0,0,0
4:10.444,90160,),0,0,0
4:10.506,90182,(,0,0,1
4:10.539,90194,N,0,0,0
4:10.578,90208,),0,0,1
4:10.708,90255,(,0,0,2
4:10.817,90294,t,0,0,0
4:10.900,90324,),0,0,2
4:11.156,90416,(,0,0,0
4:11.203,90433,p,0,0,0
4:11.275,90459,),0,0,0
4:11.342,90483,(,0,0,1
4:11.375,90495,N,0,0,0
4:11.417,90510,),0,0,1
4:11.550,90558,(,0,0,2
4:11.656,90596,t,0,0,0
4:11.736,90625,),0,0,2
4:11.997,90719,(,0,0,0
4:12.047,90737,p,0,0,0
4:12.119,90763,),0,0,0
4:12.189,90788,(,0,0,1
4:12.225,90801,N,0,0,0
4:12.267,90816,),0,0,1
4:12.403,90865,(,0,0,2
4:12.511,90904,t,0,0,0
4:12.589,90932,),0,0,2
4:12.847,91025,(,0,0,0
4:12.894,91042,p,0,0,0
4:12.964,91067,),0,0,0
4:13.022,91088,(,0,0,1
4:13.061,91102,N,0,0,0
4:13.100,91116,),0,0,1
4:13.222,91160,(,0,0,2
4:13.325,91197,t,0,0,0
4:13.403,91225,),0,0,2
4:13.650,91314,(,0,0,0
4:13.692,91329,p,0,0,0
4:13.761,91354,),0,0,0
4:13.819,91375,(,0,0,1
4:13.853,91387,N,0,0,0
4:13.889,91400,),0,0,1
4:14.008,91443,(,0,0,2
4:14.103,91477,t,0,0,0
4:14.178,91504,),0,0,2
4:14.436,91597,(,0,0,0
4:14.478,91612,p,0,0,0
4:14.556,91640,),0,0,0
4:14.614,91661,(,0,0,1
4:14.647,91673,N,0,0,0
4:14.686,91687,),0,0,1
4:14.814,91733,(,0,0,2
4:14.922,91772,t,0,0,0
4:15.000,91800,),0,0,2
4:15.250,91890,(,0,0,0
4:15.294,91906,p,0,0,0
4:15.367,91932,),0,0,0
4:15.419,91951,(,0,0,1
4:15.458,91965,N,0,0,0
4:15.497,91979,),0,0,1
4:15.614,92021,(,0,0,2
4:15.725,92061,t,0,0,0
4:15.800,92088,),0,0,2
4:16.047,92177,(,0,0,0
4:16.097,92195,p,0,0,0
4:16.169,92221,),0,0,0
4:16.217,92238,(,0,0,1
4:16.253,92251,N,0,0,0
4:16.292,92265,),0,0,1
4:16.417,92310,(,0,0,2
4:16.519,92347,t,0,0,0
4:16.597,92375,),0,0,2
4:16.858,92469,(,0,0,0
4:16.903,92485,p,0,0,0
4:16.981,92513,),0,0,0
4:17.042,92535,(,0,0,1
4:17.081,92549,N,0,0,0
4:17.122,92564,),0,0,1
4:17.256,92612,(,0,0,2
4:17.364,92651,t,0,0,0
4:17.447,92681,),0,0,2
4:17.694,92770,(,0,0,0
4:17.744,92788,p,0,0,0
4:17.819,92815,),0,0,0
4:17.883,92838,(,0,0,1
4:17.919,92851,N,0,0,0
4:17.958,92865,),0,0,1
4:18.100,92916,(,0,0,2
4:18.203,92953,t,0,0,0
4:18.283,92982,),0,0,2
4:18.536,93073,(,0,0,0
4:18.583,93090,p,0,0,0
4:18.661,93118,),0,0,0
4:18.722,93140,(,0,0,1
4:18.756,93152,N,0,0,0
4:18.794,93166,),0,0,1
4:18.928,93214,(,0,0,2
4:19.033,93252,t,0,0,0
4:19.108,93279,),0,0,2
4:19.342,93363,(,0,0,0
4:19.392,93381,p,0,0,0
4:19.461,93406,),0,0,0
4:19.522,93428,(,0,0,1
4:19.553,93439,N,0,0,0
4:19.592,93453,),0,0,1
4:19.717,93498,(,0,0,2
4:19.817,93534,t,0,0,0
4:19.889,93560,),0,0,2
4:20.128,93646,(,0,0,0
4:20.169,93661,p,0,0,0
4:20.239,93686,),0,0,0
4:20.292,93705,(,0,0,1
4:20.331,93719,N,0,0,0
4:20.367,93732,),0,0,1
4:20.494,93778,(,0,0,2
4:20.592,93813,t,0,0,0
4:20.664,93839,),0,0,2
4:20.908,93927,(,0,0,0
4:20.953,93943,p,0,0,0
4:21.028,93970,),0,0,0
4:21.089,93992,(,0,0,1
4:21.119,94003,N,0,0,0
4:21.161,94018,),0,0,1
4:21.286,94063,(,0,0,2
4:21.389,94100,t,0,0,0
4:21.472,94130,),0,0,2
4:21.703,94213,(,0,0,0
4:21.744,94228,p,0,0,0
4:21.817,94254,),0,0,0
4:21.875,94275,(,0,0,1
4:21.908,94287,N,0,0,0
4:21.947,94301,),0,0,1
4:22.075,94347,(,0,0,2
4:22.181,94385,t,0,0,0
4:22.258,94413,),0,0,2
4:22.503,94501,(,0,0,0
4:22.547,94517,p,0,0,0
4:22.617,94542,),0,0,0
4:22.669,94561,(,0,0,1
4:22.708,94575,N,0,0,0
4:22.747,94589,),0,0,1
4:22.883,94638,(,0,0,2
4:22.986,94675,t,0,0,0
4:23.067,94704,),0,0,2
4:23.314,94793,(,0,0,0
4:23.358,94809,p,0,0,0
4:23.442,94839,),0,0,0
4:23.506,94862,(,0,0,1
4:23.539,94874,N,0,0,0
4:23.581,94889,),0,0,1
4:23.717,94938,(,0,0,2
4:23.817,94974,t,0,0,0
4:23.894,95002,),0,0,2
4:24.128,95086,(,0,0,0
4:24.169,95101,p,0,0,0
4:24.253,95131,),0,0,0
4:24.308,95151,(,0,0,1
4:24.344,95164,N,0,0,0
4:24.386,95179,),0,0,1
4:24.522,95228,(,0,0,2
4:24.631,95267,t,0,0,0
4:24.706,95294,),0,0,2
4:24.936,95377,(,0,0,0
4:24.983,95394,p,0,0,0
4:25.058,95421,),0,0,0
4:25.117,95442,(,0,0,1
4:25.150,95454,N,0,0,0
4:25.192,95469,),0,0,1
4:25.319,95515,(,0,0,2
4:25.425,95553,t,0,0,0
4:25.500,95580,),0,0,2
4:25.703,95653,(,0,0,0
4:25.744,95668,p,0,0,0
4:25.811,95692,),0,0,0
4:25.856,95708,(,0,0,1
4:25.894,95722,N,0,0,0
4:25.931,95735,),0,0,1
4:26.053,95779,(,0,0,2
4:26.150,95814,t,0,0,0
4:26.231,95843,),0,0,2
4:26.411,95908,(,0,0,0
4:26.450,95922,p,0,0,0
4:26.522,95948,),0,0,0
4:26.572,95966,(,0,0,1
4:26.603,95977,N,0,0,0
4:26.639,95990,),0,0,1
4:26.756,96032,(,0,0,2
4:26.856,96068,t,0,0,0
4:26.928,96094,),0,0,2
4:27.122,96164,(,0,0,0
4:27.164,96179,p,0,0,0
4:27.236,96205,),0,0,0
4:27.289,96224,(,0,0,1
4:27.322,96236,N,0,0,0
4:27.364,96251,),0,0,1
4:27.494,96298,(,0,0,2
4:27.592,96333,t,0,0,0
4:27.667,96360,),0,0,2
4:28.050,96498,(,0,0,1
4:28.081,96509,N,0,0,0
4:28.119,96523,),0,0,1
4:28.247,96569,(,0,0,2
4:28.339,96602,t,0,0,0
4:28.419,96631,),0,0,2
4:28.644,96712,(,0,0,0
4:28.694,96730,p,0,0,0
4:28.769,96757,),0,0,0
4:28.819,96775,(,0,0,1
4:28.858,96789,N,0,0,0
4:28.897,96803,),0,0,1
4:29.025,96849,(,0,0,2
4:29.117,96882,t,0,0,0
4:29.197,96911,),0,0,2
4:29.439,96998,(,0,0,0
4:29.492,97017,p,0,0,0
4:29.572,97046,),0,0,0
4:29.628,97066,(,0,0,1
4:29.658,97077,N,0,0,0
4:29.697,97091,),0,0,1
4:29.828,97138,(,0,0,2
4:29.925,97173,t,0,0,0
4:30.006,97202,),0,0,2
4:30.281,97301,(,0,0,0
4:30.328,97318,p,0,0,0
4:30.400,97344,),0,0,0
4:30.456,97364,(,0,0,1
4:30.486,97375,N,0,0,0
4:30.528,97390,),0,0,1
4:30.647,97433,(,0,0,2
4:30.747,97469,t,0,0,0
4:30.828,97498,),0,0,2
4:31.106,97598,(,0,0,0
4:31.150,97614,p,0,0,0
4:31.222,97640,),0,0,0
4:31.278,97660,(,0,0,1
4:31.311,97672,N,0,0,0
4:31.350,97686,),0,0,1
4:31.483,97734,(,0,0,2
4:31.578,97768,t,0,0,0
4:31.664,97799,),0,0,2
4:31.936,97897,(,0,0,0
4:31.983,97914,p,0,0,0
4:32.053,97939,),0,0,0
4:32.106,97958,(,0,0,1
4:32.136,97969,N,0,0,0
4:32.172,97982,),0,0,1
4:32.297,98027,(,0,0,2
4:32.386,98059,t,0,0,0
4:32.467,98088,),0,0,2
4:32.733,98184,(,0,0,0
4:32.778,98200,p,0,0,0
4:32.844,98224,),0,0,0
4:32.897,98243,(,0,0,1
4:32.931,98255,N,0,0,0
4:32.969,98269,),0,0,1
4:33.092,98313,(,0,0,2
4:33.178,98344,t,0,0,0
4:33.258,98373,),0,0,2
4:33.547,98477,(,0,0,0
4:33.597,98495,p,0,0,0
4:33.669,98521,),0,0,0
4:33.731,98543,(,0,0,1
4:33.767,98556,N,0,0,0
4:33.806,98570,),0,0,1
4:33.939,98618,(,0,0,2
4:34.039,98654,t,0,0,0
4:34.117,98682,),0,0,2
4:34.447,98801,(,0,0,0
4:34.503,98821,p,0,0,0
4:34.575,98847,),0,0,0
4:34.636,98869,(,0,0,1
4:34.672,98882,N,0,0,0
4:34.714,98897,),0,0,1
4:34.847,98945,(,0,0,2
4:34.944,98980,t,0,0,0
4:35.028,99010,),0,0,2
4:36.344,99484,(,0,0,0
4:36.369,99493,p,0,0,0
4:36.397,99503,),0,0,0
4:36.542,99555,(,0,0,1
4:36.658,99597,N,0,0,0
4:36.742,99627,),0,0,1
4:37.200,99792,(,0,0,2
4:37.231,99803,t,0,0,0
4:37.267,99816,),0,0,2
4:38.047   100097,(,0,0,0
4:38.075   100107,p,0,0,0
4:38.103   100117,),0,0,0
4:38.233   100164,(,0,0,1
4:38.347   100205,N,0,0,0
4:38.419   100231,),0,0,1
4:38.678   100324,(,0,0,2
4:38.728   100342,t,0,0,0
4:38.803   100369,),0,0,2
4:38.864   100391,(,0,0,0
4:38.889   100400,p,0,0,0
4:38.917   100410,),0,0,0
4:39.039   100454,(,0,0,1
4:39.150   100494,N,0,0,0
4:39.228   100522,),0,0,1
4:39.472   100610,(,0,0,2
4:39.531   100631,t,0,0,0
4:39.592   100653,),0,0,2
4:39.664   100679,(,0,0,0
4:39.689   100688,p,0,0,0
4:39.717   100698,),0,0,0
4:39.844   100744,(,0,0,1
4:39.956   100784,N,0,0,0
4:40.036   100813,),0,0,1
4:40.528   100990,(,0,0,2
4:40.558   101001,t,0,0,0
4:40.597   101015,),0,0,2
4:40.717   101058,(,0,0,1
4:40.850   101106,N,0,0,0
4:40.925   101133,),0,0,1
4:41.356   101288,),0,0,2
4:41.386   101299,t,0,0,0
4:41.417   101310,(,0,0,2
4:41.431   101315,(,0,0,0
4:41.458   101325,p,0,0,0
4:41.486   101335,),0,0,0
4:41.619   101383,(,0,0,1
4:41.739   101426,N,0,0,0
4:41.819   101455,),0,0,1
4:42.239   101606,),0,0,2
4:42.272   101618,t,0,0,0
4:42.303   101629,(,0,0,2
4:42.308   101631,(,0,0,0
4:42.336   101641,p,0,0,0
4:42.364   101651,),0,0,0
4:42.478   101692,(,0,0,1
4:42.600   101736,N,0,0,0
4:42.681   101765,),0,0,1
4:42.992   101877,(,0,0,2
4:43.050   101898,t,0,0,0
4:43.128   101926,),0,0,2
4:43.192   101949,(,0,0,0
4:43.219   101959,p,0,0,0
4:43.247   101969,),0,0,0
4:43.353   102007,(,0,0,1
4:43.478   102052,N,0,0,0
4:43.556   102080,),0,0,1
4:43.992   102237,),0,0,2
4:44.019   102247,t,0,0,0
4:44.047   102257,(,0,0,2
4:44.061   102262,(,0,0,0
4:44.086   102271,p,0,0,0
4:44.114   102281,),0,0,0
4:44.228   102322,(,0,0,1
4:44.356   102368,N,0,0,0
4:44.436   102397,),0,0,1
4:44.894   102562,t,0,0,2
4:44.936   102577,),0,0,2
4:45.075   102627,(,0,0,1
4:45.200   102672,N,0,0,0
4:45.283   102702,),0,0,1
4:45.742   102867,t,0,0,2
4:45.783   102882,),0,0,2
4:45.933   102936,(,0,0,1
4:46.056   102980,N,0,0,0
4:46.150   103014,),0,0,1
4:46.633   103188,(,0,0,2
4:46.667   103200,t,0,0,0
4:46.703   103213,),0,0,2
4:46.839   103262,(,0,0,1
4:46.961   103306,N,0,0,0
4:47.033   103332,),0,0,1
4:47.475   103491,),0,0,2
4:47.503   103501,t,0,0,0
4:47.528   103510,(,0,0,2
4:47.544   103516,(,0,0,0
4:47.572   103526,p,0,0,0
4:47.600   103536,),0,0,0
4:47.697   103571,(,0,0,1
4:47.858   103629,N,0,0,0
4:47.942   103659,),0,0,1
4:48.375   103815,),0,0,2
4:48.403   103825,t,0,0,0
4:48.428   103834,(,0,0,2
4:48.433   103836,(,0,0,0
4:48.458   103845,p,0,0,0
4:48.486   103855,),0,0,0
4:48.619   103903,(,0,0,1
4:48.742   103947,N,0,0,0
4:48.822   103976,),0,0,1
4:49.253   104131,),0,0,2
4:49.283   104142,t,0,0,0
4:49.311   104152,(,0,0,2
4:49.317   104154,(,0,0,0
4:49.344   104164,p,0,0,0
4:49.372   104174,),0,0,0
4:49.489   104216,(,0,0,1
4:49.611   104260,N,0,0,0
4:49.700   104292,),0,0,1
4:50.156   104456,t,0,0,2
4:50.200   104472,),0,0,2
4:50.350   104526,(,0,0,1
4:50.467   104568,N,0,0,0
4:50.564   104603,),0,0,1
4:50.989   104756,),0,0,2
4:51.019   104767,t,0,0,0
4:51.047   104777,(,0,0,2
4:51.053   104779,(,0,0,0
4:51.078   104788,p,0,0,0
4:51.106   104798,),0,0,0
4:51.222   104840,(,0,0,1
4:51.333   104880,N,0,0,0
4:51.414   104909,),0,0,1
4:51.839   105062,),0,0,2
4:51.869   105073,t,0,0,0
4:51.897   105083,(,0,0,2
4:51.903   105085,(,0,0,0
4:51.928   105094,p,0,0,0
4:51.956   105104,),0,0,0
4:52.061   105142,(,0,0,1
4:52.186   105187,N,0,0,0
4:52.275   105219,),0,0,1
4:52.783   105402,(,0,0,2
4:52.814   105413,t,0,0,0
4:52.853   105427,),0,0,2
4:52.967   105468,(,0,0,1
4:53.106   105518,N,0,0,0
4:53.183   105546,),0,0,1
4:53.742   105747,(,0,0,0
4:53.767   105756,p,0,0,0
4:53.794   105766,),0,0,0
4:53.911   105808,(,0,0,1
4:54.039   105854,N,0,0,0
4:54.119   105883,),0,0,1
4:54.625   106065,t,0,0,2
4:54.667   106080,),0,0,2
4:54.814   106133,(,0,0,1
4:54.939   106178,N,0,0,0
4:55.022   106208,),0,0,1
4:55.450   106362,),0,0,2
4:55.481   106373,t,0,0,0
4:55.511   106384,(,0,0,2
4:55.519   106387,(,0,0,0
4:55.547   106397,p,0,0,0
4:55.572   106406,),0,0,0
4:55.692   106449,(,0,0,1
4:55.819   106495,N,0,0,0
4:55.897   106523,),0,0,1
4:56.356   106688,t,0,0,2
4:56.397   106703,),0,0,2
4:56.542   106755,(,0,0,1
4:56.669   106801,N,0,0,0
4:56.744   106828,),0,0,1
4:57.175   106983,),0,0,2
4:57.206   106994,t,0,0,0
4:57.236   107005,(,0,0,2
4:57.244   107008,(,0,0,0
4:57.272   107018,p,0,0,0
4:57.300   107028,),0,0,0
4:57.422   107072,(,0,0,1
4:57.547   107117,N,0,0,0
4:57.622   107144,),0,0,1
4:58.053   107299,),0,0,2
4:58.083   107310,t,0,0,0
4:58.114   107321,(,0,0,2
4:58.122   107324,(,0,0,0
4:58.150   107334,p,0,0,0
4:58.178   107344,),0,0,0
4:58.297   107387,(,0,0,1
4:58.425   107433,N,0,0,0
4:58.497   107459,),0,0,1
4:58.936   107617,),0,0,2
4:58.964   107627,t,0,0,0
4:58.992   107637,(,0,0,2
4:59.006   107642,(,0,0,0
4:59.031   107651,p,0,0,0
4:59.058   107661,),0,0,0
4:59.175   107703,(,0,0,1
4:59.317   107754,N,0,0,0
4:59.397   107783,),0,0,1
4:59.950   107982,(,0,0,0
4:59.978   107992,p,0,0,0
5:00.006   108002,),0,0,0
5:00.103   108037,(,0,0,1
5:00.261   108094,N,0,0,0
5:00.331   108119,),0,0,1
5:00.839   108302,t,0,0,2
5:00.881   108317,),0,0,2
5:01.039   108374,(,0,0,1
5:01.139   108410,N,0,0,0
5:01.211   108436,),0,0,1
5:01.669   108601,t,0,0,2
5:01.711   108616,),0,0,2
5:01.842   108663,(,0,0,1
5:01.972   108710,N,0,0,0
5:02.050   108738,),0,0,1
5:02.511   108904,t,0,0,2
5:02.553   108919,),0,0,2
5:02.694   108970,(,0,0,1
5:02.817   109014,N,0,0,0
5:02.903   109045,),0,0,1
5:03.364   109211,t,0,0,2
5:03.406   109226,),0,0,2
5:03.558   109281,(,0,0,1
5:03.683   109326,N,0,0,0
5:03.769   109357,),0,0,1
5:04.044   109456,(,0,0,2
5:04.097   109475,t,0,0,0
5:04.158   109497,),0,0,2
5:04.242   109527,(,0,0,0
5:04.267   109536,p,0,0,0
5:04.294   109546,),0,0,0
5:04.422   109592,(,0,0,1
5:04.550   109638,N,0,0,0
5:04.614   109661,),0,0,1
5:05.039   109814,),0,0,2
5:05.069   109825,t,0,0,0
5:05.100   109836,(,0,0,2
5:05.103   109837,(,0,0,0
5:05.131   109847,p,0,0,0
5:05.156   109856,),0,0,0
5:05.281   109901,(,0,0,1
5:05.411   109948,N,0,0,0
5:05.489   109976,),0,0,1
5:05.792   110085,(,0,0,2
5:05.850   110106,t,0,0,5
5:05.983   110154,t,0,0,5
5:06.028   110170,),0,0,2
5:06.186   110227,(,0,0,1
5:06.317   110274,N,0,0,0
5:06.397   110303,),0,0,1
5:06.817   110454,),0,0,2
5:06.847   110465,t,0,0,0
5:06.878   110476,(,0,0,2
5:06.883   110478,(,0,0,0
5:06.908   110487,p,0,0,0
5:06.936   110497,),0,0,0
5:07.075   110547,(,0,0,1
5:07.186   110587,N,0,0,0
5:07.264   110615,),0,0,1
5:07.536   110713,(,0,0,2
5:07.586   110731,t,0,0,0
5:07.647   110753,),0,0,2
5:07.725   110781,(,0,0,0
5:07.750   110790,p,0,0,0
5:07.778   110800,),0,0,0
5:07.889   110840,(,0,0,1
5:08.014   110885,N,0,0,0
5:08.097   110915,),0,0,1
5:08.533   111072,t,0,0,2
5:08.575   111087,),0,0,2
5:08.722   111140,(,0,0,1
5:08.831   111179,N,0,0,0
5:08.925   111213,),0,0,1
5:09.183   111306,(,0,0,2
5:09.239   111326,t,0,0,0
5:09.303   111349,),0,0,2
5:09.383   111378,(,0,0,0
5:09.408   111387,p,0,0,0
5:09.436   111397,),0,0,0
5:09.547   111437,(,0,0,1
5:09.672   111482,N,0,0,0
5:09.756   111512,),0,0,1
5:10.189   111668,),0,0,2
5:10.219   111679,t,0,0,0
5:10.250   111690,(,0,0,2
5:10.261   111694,(,0,0,0
5:10.289   111704,p,0,0,0
5:10.314   111713,),0,0,0
5:10.422   111752,(,0,0,1
5:10.553   111799,N,0,0,0
5:10.628   111826,),0,0,1
5:10.936   111937,(,0,0,2
5:10.992   111957,t,0,0,5
5:11.122   112004,t,0,0,5
5:11.164   112019,),0,0,2
5:11.317   112074,(,0,0,1
5:11.439   112118,N,0,0,0
5:11.531   112151,),0,0,1
5:11.947   112301,),0,0,2
5:11.983   112314,t,0,0,0
5:12.017   112326,(,0,0,2
5:12.022   112328,(,0,0,0
5:12.050   112338,p,0,0,0
5:12.078   112348,),0,0,0
5:12.211   112396,(,0,0,1
5:12.336   112441,N,0,0,0
5:12.417   112470,),0,0,1
5:12.842   112623,),0,0,2
5:12.875   112635,t,0,0,0
5:12.906   112646,(,0,0,2
5:12.911   112648,(,0,0,0
5:12.939   112658,p,0,0,0
5:12.964   112667,),0,0,0
5:13.078   112708,(,0,0,1
5:13.203   112753,N,0,0,0
5:13.278   112780,),0,0,1
5:13.733   112944,t,0,0,2
5:13.775   112959,),0,0,2
5:13.906   113006,(,0,0,1
5:14.031   113051,N,0,0,0
5:14.111   113080,),0,0,1
5:14.383   113178,(,0,0,2
5:14.436   113197,t,0,0,0
5:14.497   113219,),0,0,2
5:14.575   113247,(,0,0,0
5:14.600   113256,p,0,0,0
5:14.628   113266,),0,0,0
5:14.750   113310,(,0,0,1
5:14.869   113353,N,0,0,0
5:14.953   113383,),0,0,1
5:15.325   113517,),0,0,2
5:15.361   113530,t,0,0,0
5:15.397   113543,(,0,0,2
5:15.408   113547,(,0,0,0
5:15.436   113557,p,0,0,0
5:15.464   113567,),0,0,0
5:15.578   113608,(,0,0,1
5:15.711   113656,N,0,0,0
5:15.786   113683,),0,0,1
5:16.211   113836,),0,0,2
5:16.247   113849,t,0,0,0
5:16.281   113861,(,0,0,2
5:16.294   113866,(,0,0,0
5:16.319   113875,p,0,0,0
5:16.347   113885,),0,0,0
5:16.458   113925,(,0,0,1
5:16.606   113978,N,0,0,0
5:16.689   114008,),0,0,1
5:17.081   114149,(,0,0,2
5:17.181   114185,t,0,0,1
5:17.225   114201,),0,0,2
5:17.375   114255,(,0,0,1
5:17.508   114303,N,0,0,0
5:17.603   114337,),0,0,1
5:18.017   114486,),0,0,2
5:18.056   114500,t,0,0,0
5:18.092   114513,(,0,0,2
5:18.097   114515,(,0,0,0
5:18.122   114524,p,0,0,0
5:18.150   114534,),0,0,0
5:18.281   114581,(,0,0,1
5:18.406   114626,N,0,0,0
5:18.483   114654,),0,0,1
5:19.022   114848,(,0,0,0
5:19.047   114857,p,0,0,0
5:19.075   114867,),0,0,0
5:19.206   114914,(,0,0,1
5:19.317   114954,N,0,0,0
5:19.397   114983,),0,0,1
5:19.836   115141,),0,0,2
5:19.864   115151,t,0,0,0
5:19.889   115160,(,0,0,2
5:19.900   115164,(,0,0,0
5:19.925   115173,p,0,0,0
5:19.953   115183,),0,0,0
5:20.067   115224,(,0,0,1
5:20.183   115266,N,0,0,0
5:20.253   115291,),0,0,1
5:20.667   115440,),0,0,2
5:20.700   115452,t,0,0,0
5:20.733   115464,(,0,0,2
5:20.739   115466,(,0,0,0
5:20.764   115475,p,0,0,0
5:20.792   115485,),0,0,0
5:20.908   115527,(,0,0,1
5:21.028   115570,N,0,0,0
5:21.108   115599,),0,0,1
5:21.569   115765,t,0,0,2
5:21.611   115780,),0,0,2
5:21.753   115831,(,0,0,1
5:21.878   115876,N,0,0,0
5:21.978   115912,),0,0,1
5:22.436   116077,t,0,0,2
5:22.478   116092,),0,0,2
5:22.644   116152,(,0,0,1
5:22.764   116195,N,0,0,0
5:22.831   116219,),0,0,1
5:23.350   116406,(,0,0,0
5:23.378   116416,p,0,0,0
5:23.406   116426,),0,0,0
5:23.517   116466,(,0,0,1
5:23.661   116518,N,0,0,0
5:23.739   116546,),0,0,1
5:24.156   116696,),0,0,2
5:24.192   116709,t,0,0,0
5:24.228   116722,(,0,0,2
5:24.233   116724,(,0,0,0
5:24.258   116733,p,0,0,0
5:24.286   116743,),0,0,0
5:24.383   116778,(,0,0,1
5:24.528   116830,N,0,0,0
5:24.614   116861,),0,0,1
5:25.042   117015,),0,0,2
5:25.075   117027,t,0,0,0
5:25.106   117038,(,0,0,2
5:25.114   117041,(,0,0,0
5:25.139   117050,p,0,0,0
5:25.167   117060,),0,0,0
5:25.289   117104,(,0,0,1
5:25.422   117152,N,0,0,0
5:25.503   117181,),0,0,1
5:25.772   117278,(,0,0,2
5:25.828   117298,t,0,0,0
5:25.892   117321,),0,0,2
5:25.964   117347,(,0,0,0
5:25.992   117357,p,0,0,0
5:26.017   117366,),0,0,0
5:26.133   117408,(,0,0,1
5:26.267   117456,N,0,0,0
5:26.342   117483,),0,0,1
5:26.606   117578,(,0,0,2
5:26.656   117596,t,0,0,0
5:26.717   117618,),0,0,2
5:26.797   117647,(,0,0,0
5:26.822   117656,p,0,0,0
5:26.850   117666,),0,0,0
5:26.969   117709,(,0,0,1
5:27.089   117752,N,0,0,0
5:27.158   117777,),0,0,1
5:27.619   117943,t,0,0,2
5:27.661   117958,),0,0,2
5:27.803   118009,(,0,0,1
5:27.928   118054,N,0,0,0
5:27.997   118079,),0,0,1
5:28.422   118232,),0,0,2
5:28.458   118245,t,0,0,0
5:28.492   118257,(,0,0,2
5:28.503   118261,(,0,0,0
5:28.531   118271,p,0,0,0
5:28.558   118281,),0,0,0
5:28.669   118321,(,0,0,1
5:28.808   118371,N,0,0,0
5:28.883   118398,),0,0,1
5:29.194   118510,(,0,0,2
5:29.253   118531,t,0,0,0
5:29.333   118560,),0,0,2
5:29.406   118586,(,0,0,0
5:29.431   118595,p,0,0,0
5:29.458   118605,),0,0,0
5:29.567   118644,(,0,0,1
5:29.703   118693,N,0,0,0
5:29.783   118722,),0,0,1
5:30.217   118878,),0,0,2
5:30.247   118889,t,0,0,0
5:30.278   118900,(,0,0,2
5:30.289   118904,(,0,0,0
5:30.317   118914,p,0,0,0
5:30.342   118923,),0,0,0
5:30.436   118957,(,0,0,1
5:30.581   119009,N,0,0,0
5:30.661   119038,),0,0,1
5:31.081   119189,),0,0,2
5:31.117   119202,t,0,0,0
5:31.153   119215,(,0,0,2
5:31.161   119218,(,0,0,0
5:31.189   119228,p,0,0,0
5:31.217   119238,),0,0,0
5:31.339   119282,(,0,0,1
5:31.461   119326,N,0,0,0
5:31.550   119358,),0,0,1
5:32.008   119523,t,0,0,2
5:32.050   119538,),0,0,2
5:32.192   119589,(,0,0,1
5:32.311   119632,N,0,0,0
5:32.381   119657,),0,0,1
5:32.836   119821,t,0,0,2
5:32.875   119835,),0,0,2
5:33.019   119887,(,0,0,1
5:33.131   119927,N,0,0,0
5:33.214   119957,),0,0,1
5:33.483   120054,(,0,0,2
5:33.533   120072,t,0,0,0
5:33.597   120095,),0,0,2
5:33.675   120123,(,0,0,0
5:33.703   120133,p,0,0,0
5:33.728   120142,),0,0,0
5:33.850   120186,(,0,0,1
5:33.975   120231,N,0,0,0
5:34.050   120258,),0,0,1
5:34.517   120426,(,0,0,2
5:34.547   120437,t,0,0,0
5:34.583   120450,),0,0,2
5:34.694   120490,(,0,0,1
5:34.836   120541,N,0,0,0
5:34.928   120574,),0,0,1
5:35.403   120745,(,0,0,2
5:35.433   120756,t,0,0,0
5:35.472   120770,),0,0,2
5:35.581   120809,(,0,0,1
5:35.731   120863,N,0,0,0
5:35.828   120898,),0,0,1
5:36.092   120993,(,0,0,2
5:36.144   121012,t,0,0,0
5:36.211   121036,),0,0,2
5:36.294   121066,(,0,0,0
5:36.319   121075,p,0,0,0
5:36.347   121085,),0,0,0
5:36.472   121130,(,0,0,1
5:36.597   121175,N,0,0,0
5:36.675   121203,),0,0,1
5:37.061   121342,),0,0,2
5:37.092   121353,t,0,0,0
5:37.119   121363,(,0,0,2
5:37.133   121368,(,0,0,0
5:37.158   121377,p,0,0,0
5:37.186   121387,),0,0,0
5:37.294   121426,(,0,0,1
5:37.433   121476,N,0,0,0
5:37.514   121505,),0,0,1
5:37.889   121640,),0,0,2
5:37.922   121652,t,0,0,0
5:37.956   121664,(,0,0,2
5:37.967   121668,(,0,0,0
5:37.992   121677,p,0,0,0
5:38.019   121687,),0,0,0
5:38.136   121729,(,0,0,1
5:38.275   121779,N,0,0,0
5:38.347   121805,),0,0,1
5:38.667   121920,(,0,0,2
5:38.761   121954,t,0,0,1
5:38.803   121969,),0,0,2
5:38.944   122020,(,0,0,1
5:39.078   122068,N,0,0,0
5:39.164   122099,),0,0,1
5:39.506   122222,),0,0,2
5:39.539   122234,t,0,0,0
5:39.569   122245,(,0,0,2
5:39.581   122249,(,0,0,0
5:39.608   122259,p,0,0,0
5:39.633   122268,),0,0,0
5:39.758   122313,(,0,0,1
5:39.883   122358,N,0,0,0
5:39.953   122383,),0,0,1
5:40.219   122479,(,0,0,2
5:40.275   122499,t,0,0,0
5:40.336   122521,),0,0,2
5:40.425   122553,(,0,0,0
5:40.450   122562,p,0,0,0
5:40.478   122572,),0,0,0
5:40.608   122619,(,0,0,1
5:40.728   122662,N,0,0,0
5:40.803   122689,),0,0,1
5:41.267   122856,t,0,0,2
5:41.308   122871,),0,0,2
5:41.472   122930,(,0,0,1
5:41.594   122974,N,0,0,0
5:41.667   123000,),0,0,1
5:42.136   123169,),0,0,2
5:42.144   123172,t,0,0,0
5:42.153   123175,(,0,0,2
5:42.158   123177,(,0,0,0
5:42.183   123186,p,0,0,0
5:42.211   123196,),0,0,0
5:42.325   123237,(,0,0,1
5:42.464   123287,N,0,0,0
5:42.539   123314,),0,0,1
5:42.797   123407,(,0,0,2
5:42.853   123427,t,0,0,0
5:42.922   123452,),0,0,2
5:43.000   123480,(,0,0,0
5:43.025   123489,p,0,0,0
5:43.053   123499,),0,0,0
5:43.169   123541,(,0,0,1
5:43.289   123584,N,0,0,0
5:43.358   123609,),0,0,1
5:43.603   123697,(,0,0,2
5:43.653   123715,t,0,0,0
5:43.714   123737,),0,0,2
5:43.792   123765,(,0,0,0
5:43.817   123774,p,0,0,0
5:43.844   123784,),0,0,0
5:43.964   123827,(,0,0,1
5:44.083   123870,N,0,0,0
5:44.161   123898,),0,0,1
5:44.417   123990,(,0,0,2
5:44.472   124010,t,0,0,0
5:44.536   124033,),0,0,2
5:44.617   124062,(,0,0,0
5:44.644   124072,p,0,0,0
5:44.672   124082,),0,0,0
5:44.797   124127,(,0,0,1
5:44.908   124167,N,0,0,0
5:44.981   124193,),0,0,1
5:45.403   124345,t,0,0,2
5:45.442   124359,),0,0,2
5:45.575   124407,(,0,0,1
5:45.703   124453,N,0,0,0
5:45.797   124487,),0,0,1
5:46.011   124564,(,0,0,2
5:46.067   124584,t,0,0,0
5:46.131   124607,),0,0,2
5:46.211   124636,(,0,0,0
5:46.236   124645,p,0,0,0
5:46.264   124655,),0,0,0
5:46.381   124697,(,0,0,1
5:46.503   124741,N,0,0,0
5:46.581   124769,),0,0,1
5:46.850   124866,(,0,0,2
5:46.906   124886,t,0,0,0
5:46.972   124910,),0,0,2
5:47.050   124938,(,0,0,0
5:47.075   124947,p,0,0,0
5:47.103   124957,),0,0,0
5:47.211   124996,(,0,0,1
5:47.350   125046,N,0,0,0
5:47.431   125075,),0,0,1
5:47.700   125172,(,0,0,2
5:47.758   125193,t,0,0,0
5:47.819   125215,),0,0,2
5:47.903   125245,(,0,0,0
5:47.928   125254,p,0,0,0
5:47.956   125264,),0,0,0
5:48.086   125311,(,0,0,1
5:48.208   125355,N,0,0,0
5:48.283   125382,),0,0,1
5:48.556   125480,(,0,0,2
5:48.608   125499,t,0,0,0
5:48.672   125522,),0,0,2
5:48.750   125550,(,0,0,0
5:48.778   125560,p,0,0,0
5:48.803   125569,),0,0,0
5:48.919   125611,(,0,0,1
5:49.042   125655,N,0,0,0
5:49.114   125681,),0,0,1
5:49.547   125837,t,0,0,2
5:49.586   125851,),0,0,2
5:49.717   125898,(,0,0,1
5:49.844   125944,N,0,0,0
5:49.931   125975,),0,0,1
5:50.169   126061,(,0,0,2
5:50.225   126081,t,0,0,0
5:50.289   126104,),0,0,2
5:50.367   126132,(,0,0,0
5:50.392   126141,p,0,0,0
5:50.419   126151,),0,0,0
5:50.522   126188,(,0,0,1
5:50.658   126237,N,0,0,0
5:50.764   126275,),0,0,1
5:51.189   126428,t,0,0,2
5:51.231   126443,),0,0,2
5:51.369   126493,(,0,0,1
5:51.494   126538,N,0,0,0
5:51.567   126564,),0,0,1
5:51.986   126715,),0,0,2
5:52.019   126727,t,0,0,0
5:52.050   126738,(,0,0,2
5:52.056   126740,(,0,0,0
5:52.081   126749,p,0,0,0
5:52.108   126759,),0,0,0
5:52.211   126796,(,0,0,1
5:52.344   126844,N,0,0,0
5:52.431   126875,),0,0,1
5:52.847   127025,),0,0,2
5:52.881   127037,t,0,0,0
5:52.914   127049,(,0,0,2
5:52.919   127051,(,0,0,0
5:52.944   127060,p,0,0,0
5:52.972   127070,),0,0,0
5:53.086   127111,(,0,0,1
5:53.231   127163,N,0,0,0
5:53.300   127188,),0,0,1
5:53.808   127371,(,0,0,2
5:53.839   127382,t,0,0,0
5:53.875   127395,),0,0,2
5:53.997   127439,(,0,0,1
5:54.131   127487,N,0,0,0
5:54.214   127517,),0,0,1
5:54.514   127625,(,0,0,2
5:54.567   127644,t,0,0,0
5:54.647   127673,),0,0,2
5:54.728   127702,(,0,0,0
5:54.753   127711,p,0,0,0
5:54.781   127721,),0,0,0
5:54.906   127766,(,0,0,1
5:55.042   127815,N,0,0,0
5:55.125   127845,),0,0,1
5:55.586   128011,t,0,0,2
5:55.628   128026,),0,0,2
5:55.781   128081,(,0,0,1
5:55.897   128123,N,0,0,0
5:55.981   128153,),0,0,1
5:56.242   128247,(,0,0,2
5:56.292   128265,t,0,0,0
5:56.353   128287,),0,0,2
5:56.436   128317,(,0,0,0
5:56.461   128326,p,0,0,0
5:56.486   128335,),0,0,0
5:56.586   128371,(,0,0,1
5:56.728   128422,N,0,0,0
5:56.800   128448,),0,0,1
5:57.225   128601,),0,0,2
5:57.258   128613,t,0,0,0
5:57.289   128624,(,0,0,2
5:57.297   128627,(,0,0,0
5:57.322   128636,p,0,0,0
5:57.350   128646,),0,0,0
5:57.458   128685,(,0,0,1
5:57.597   128735,N,0,0,0
5:57.681   128765,),0,0,1
5:58.144   128932,t,0,0,2
5:58.186   128947,),0,0,2
5:58.347   129005,(,0,0,1
5:58.464   129047,N,0,0,0
5:58.553   129079,),0,0,1
5:58.972   129230,),0,0,2
5:59.006   129242,t,0,0,0
5:59.039   129254,(,0,0,2
5:59.044   129256,(,0,0,0
5:59.069   129265,p,0,0,0
5:59.097   129275,),0,0,0
5:59.169   129301,(,0,0,1
5:59.342   129363,N,0,0,0
5:59.425   129393,),0,0,1
5:59.858   129549,),0,0,2
5:59.889   129560,t,0,0,0
5:59.919   129571,(,0,0,2
5:59.931   129575,(,0,0,0
5:59.956   129584,p,0,0,0
5:59.983   129594,),0,0,0
6:00.094   129634,(,0,0,1
6:00.228   129682,N,0,0,0
6:00.297   129707,),0,0,1
6:00.733   129864,),0,0,2
6:00.764   129875,t,0,0,0
6:00.792   129885,(,0,0,2
6:00.806   129890,(,0,0,0
6:00.831   129899,p,0,0,0
6:00.858   129909,),0,0,0
6:00.989   129956,(,0,0,1
6:01.114   130001,N,0,0,0
6:01.192   130029,),0,0,1
6:01.644   130192,t,0,0,2
6:01.686   130207,),0,0,2
6:01.817   130254,(,0,0,1
6:01.947   130301,N,0,0,0
6:02.031   130331,),0,0,1
6:02.453   130483,t,0,0,2
6:02.492   130497,),0,0,2
6:02.625   130545,(,0,0,1
6:02.750   130590,N,0,0,0
6:02.847   130625,),0,0,1
6:03.203   130753,),0,0,2
6:03.239   130766,t,0,0,0
6:03.272   130778,(,0,0,2
6:03.283   130782,(,0,0,0
6:03.308   130791,p,0,0,0
6:03.336   130801,),0,0,0
6:03.458   130845,(,0,0,1
6:03.592   130893,N,0,0,0
6:03.664   130919,),0,0,1
6:04.128   131086,t,0,0,2
6:04.169   131101,),0,0,2
6:04.314   131153,(,0,0,1
6:04.450   131202,N,0,0,0
6:04.547   131237,),0,0,1
6:04.797   131327,(,0,0,2
6:04.853   131347,t,0,0,0
6:04.919   131371,),0,0,2
6:04.997   131399,(,0,0,0
6:05.022   131408,p,0,0,0
6:05.050   131418,),0,0,0
6:05.150   131454,(,0,0,1
6:05.289   131504,N,0,0,0
6:05.381   131537,),0,0,1
6:05.836   131701,(,0,0,2
6:05.869   131713,t,0,0,0
6:05.906   131726,),0,0,2
6:06.019   131767,(,0,0,1
6:06.161   131818,N,0,0,0
6:06.247   131849,),0,0,1
6:06.706   132014,(,0,0,2
6:06.736   132025,t,0,0,0
6:06.772   132038,),0,0,2
6:06.886   132079,(,0,0,1
6:07.025   132129,N,0,0,0
6:07.114   132161,),0,0,1
6:07.433   132276,(,0,0,2
6:07.556   132320,t,0,0,1
6:07.600   132336,),0,0,2
6:07.753   132391,(,0,0,1
6:07.878   132436,N,0,0,0
6:07.950   132462,),0,0,1
6:08.200   132552,(,0,0,2
6:08.250   132570,t,0,0,0
6:08.308   132591,),0,0,2
6:08.386   132619,(,0,0,0
6:08.414   132629,p,0,0,0
6:08.442   132639,),0,0,0
6:08.558   132681,(,0,0,1
6:08.678   132724,N,0,0,0
6:08.753   132751,),0,0,1
6:09.003   132841,(,0,0,2
6:09.056   132860,t,0,0,0
6:09.114   132881,),0,0,2
6:09.189   132908,(,0,0,0
6:09.214   132917,p,0,0,0
6:09.242   132927,),0,0,0
6:09.350   132966,(,0,0,1
6:09.481   133013,N,0,0,0
6:09.553   133039,),0,0,1
6:09.814   133133,(,0,0,2
6:09.867   133152,t,0,0,0
6:09.931   133175,),0,0,2
6:10.017   133206,(,0,0,0
6:10.044   133216,p,0,0,0
6:10.069   133225,),0,0,0
6:10.203   133273,(,0,0,1
6:10.328   133318,N,0,0,0
6:10.403   133345,),0,0,1
6:10.844   133504,(,0,0,2
6:10.875   133515,t,0,0,0
6:10.911   133528,),0,0,2
6:11.028   133570,(,0,0,1
6:11.164   133619,N,0,0,0
6:11.247   133649,),0,0,1
6:11.589   133772,),0,0,2
6:11.617   133782,t,0,0,0
6:11.644   133792,(,0,0,2
6:11.658   133797,(,0,0,0
6:11.683   133806,p,0,0,0
6:11.711   133816,),0,0,0
6:11.836   133861,(,0,0,1
6:11.964   133907,N,0,0,0
6:12.042   133935,),0,0,1
6:12.369   134053,),0,0,2
6:12.403   134065,t,0,0,0
6:12.433   134076,(,0,0,2
6:12.442   134079,(,0,0,0
6:12.469   134089,p,0,0,0
6:12.497   134099,),0,0,0
6:12.606   134138,(,0,0,1
6:12.750   134190,N,0,0,0
6:12.828   134218,),0,0,1
6:13.142   134331,),0,0,2
6:13.172   134342,t,0,0,0
6:13.200   134352,(,0,0,2
6:13.214   134357,(,0,0,0
6:13.239   134366,p,0,0,0
6:13.267   134376,),0,0,0
6:13.378   134416,(,0,0,1
6:13.514   134465,N,0,0,0
6:13.592   134493,),0,0,1
6:13.806   134570,(,0,0,2
6:13.858   134589,t,0,0,5
6:13.981   134633,t,0,0,5
6:14.025   134649,),0,0,2
6:14.178   134704,(,0,0,1
6:14.294   134746,N,0,0,0
6:14.367   134772,),0,0,1
6:14.592   134853,(,0,0,2
6:14.642   134871,t,0,0,5
6:14.761   134914,t,0,0,5
6:14.806   134930,),0,0,2
6:14.942   134979,(,0,0,1
6:15.069   135025,N,0,0,0
6:15.144   135052,),0,0,1
6:15.406   135146,(,0,0,2
6:15.461   135166,t,0,0,0
6:15.544   135196,),0,0,2
6:15.606   135218,(,0,0,0
6:15.631   135227,p,0,0,0
6:15.658   135237,),0,0,0
6:15.764   135275,(,0,0,1
6:15.897   135323,N,0,0,0
6:15.972   135350,),0,0,1
6:16.131   135407,(,0,0,2
6:16.275   135459,t,0,0,4
6:16.358   135489,t,0,0,4
6:16.444   135520,),0,0,2
6:16.514   135545,(,0,0,0
6:16.542   135555,p,0,0,0
6:16.569   135565,),0,0,0
6:16.700   135612,(,0,0,1
6:16.825   135657,N,0,0,0
6:16.906   135686,),0,0,1
6:17.464   135887,(,0,0,0
6:17.492   135897,p,0,0,0
6:17.522   135908,),0,0,0
6:17.650   135954,(,0,0,1
6:17.769   135997,N,0,0,0
6:17.844   136024,),0,0,1
6:18.389   136220,(,0,0,0
6:18.417   136230,p,0,0,0
6:18.444   136240,),0,0,0
6:18.564   136283,(,0,0,1
6:18.681   136325,N,0,0,0
6:18.761   136354,),0,0,1
6:19.311   136552,(,0,0,0
6:19.336   136561,p,0,0,0
6:19.364   136571,),0,0,0
6:19.478   136612,(,0,0,1
6:19.600   136656,N,0,0,0
6:19.678   136684,),0,0,1
6:20.233   136884,(,0,0,0
6:20.258   136893,p,0,0,0
6:20.286   136903,),0,0,0
6:20.408   136947,(,0,0,1
6:20.531   136991,N,0,0,0
6:20.611   137020,),0,0,1
6:21.119   137203,t,0,0,2
6:21.164   137219,),0,0,2
6:21.308   137271,(,0,0,1
6:21.431   137315,N,0,0,0
6:21.514   137345,),0,0,1
6:21.842   137463,(,0,0,2
6:21.894   137482,t,0,0,0
6:21.964   137507,),0,0,2
6:22.033   137532,(,0,0,0
6:22.058   137541,p,0,0,0
6:22.086   137551,),0,0,0
6:22.217   137598,(,0,0,1
6:22.336   137641,N,0,0,0
6:22.417   137670,),0,0,1
6:22.789   137804,(,0,0,2
6:22.844   137824,t,0,0,0
6:22.933   137856,),0,0,2
6:23.006   137882,(,0,0,0
6:23.033   137892,p,0,0,0
6:23.061   137902,),0,0,0
6:23.194   137950,(,0,0,1
6:23.319   137995,N,0,0,0
6:23.403   138025,),0,0,1
6:23.864   138191,),0,0,2
6:23.900   138204,t,0,0,0
6:23.936   138217,(,0,0,2
6:23.950   138222,(,0,0,0
6:23.978   138232,p,0,0,0
6:24.006   138242,),0,0,0
6:24.133   138288,(,0,0,1
6:24.253   138331,N,0,0,0
6:24.331   138359,),0,0,1
6:24.656   138476,(,0,0,2
6:24.711   138496,t,0,0,0
6:24.772   138518,),0,0,2
6:24.856   138548,(,0,0,0
6:24.881   138557,p,0,0,0
6:24.908   138567,),0,0,0
6:25.019   138607,(,0,0,1
6:25.147   138653,N,0,0,0
6:25.225   138681,),0,0,1
6:25.547   138797,(,0,0,2
6:25.600   138816,t,0,0,0
6:25.658   138837,),0,0,2
6:25.731   138863,(,0,0,0
6:25.756   138872,p,0,0,0
6:25.783   138882,),0,0,0
6:25.903   138925,(,0,0,1
6:26.019   138967,N,0,0,0
6:26.094   138994,),0,0,1
6:26.417   139110,(,0,0,2
6:26.469   139129,t,0,0,0
6:26.544   139156,),0,0,2
6:26.611   139180,(,0,0,0
6:26.636   139189,p,0,0,0
6:26.664   139199,),0,0,0
6:26.789   139244,(,0,0,1
6:26.917   139290,N,0,0,0
6:26.997   139319,),0,0,1
6:27.422   139472,),0,0,2
6:27.453   139483,t,0,0,0
6:27.483   139494,(,0,0,2
6:27.489   139496,(,0,0,0
6:27.514   139505,p,0,0,0
6:27.542   139515,),0,0,0
6:27.675   139563,(,0,0,1
6:27.789   139604,N,0,0,0
6:27.867   139632,),0,0,1
6:28.289   139784,),0,0,2
6:28.319   139795,t,0,0,0
6:28.350   139806,(,0,0,2
6:28.356   139808,(,0,0,0
6:28.383   139818,p,0,0,0
6:28.411   139828,),0,0,0
6:28.539   139874,(,0,0,1
6:28.661   139918,N,0,0,0
6:28.742   139947,),0,0,1
6:29.289   140144,(,0,0,0
6:29.317   140154,p,0,0,0
6:29.344   140164,),0,0,0
6:29.469   140209,(,0,0,1
6:29.608   140259,N,0,0,0
6:29.694   140290,),0,0,1
6:30.197   140471,t,0,0,2
6:30.242   140487,),0,0,2
6:30.394   140542,(,0,0,1
6:30.528   140590,N,0,0,0
6:30.617   140622,),0,0,1
6:31.078   140788,t,0,0,2
6:31.119   140803,),0,0,2
6:31.269   140857,(,0,0,1
6:31.389   140900,N,0,0,0
6:31.467   140928,),0,0,1
6:31.894   141082,),0,0,2
6:31.925   141093,t,0,0,0
6:31.953   141103,(,0,0,2
6:31.956   141104,(,0,0,0
6:31.981   141113,p,0,0,0
6:32.008   141123,),0,0,0
6:32.103   141157,(,0,0,1
6:32.239   141206,N,0,0,0
6:32.314   141233,),0,0,1
6:32.756   141392,),0,0,2
6:32.781   141401,t,0,0,0
6:32.806   141410,(,0,0,2
6:32.817   141414,(,0,0,0
6:32.844   141424,p,0,0,0
6:32.869   141433,),0,0,0
6:32.989   141476,(,0,0,1
6:33.111   141520,N,0,0,0
6:33.189   141548,),0,0,1
6:33.619   141703,),0,0,2
6:33.650   141714,t,0,0,0
6:33.678   141724,(,0,0,2
6:33.686   141727,(,0,0,0
6:33.711   141736,p,0,0,0
6:33.739   141746,),0,0,0
6:33.858   141789,(,0,0,1
6:33.986   141835,N,0,0,0
6:34.067   141864,),0,0,1
6:34.531   142031,t,0,0,2
6:34.572   142046,),0,0,2
6:34.722   142100,(,0,0,1
6:34.853   142147,N,0,0,0
6:34.942   142179,),0,0,1
6:35.256   142292,(,0,0,0
6:35.306   142310,p,0,0,0
6:35.383   142338,),0,0,0
6:35.458   142365,(,0,0,1
6:35.486   142375,N,0,0,0
6:35.514   142385,),0,0,1
6:35.664   142439,(,0,0,2
6:35.778   142480,t,0,0,0
6:35.861   142510,),0,0,2
6:36.169   142621,(,0,0,0
6:36.214   142637,p,0,0,0
6:36.292   142665,),0,0,0
6:36.361   142690,(,0,0,1
6:36.389   142700,N,0,0,0
6:36.414   142709,),0,0,1
6:36.564   142763,(,0,0,2
6:36.667   142800,t,0,0,0
6:36.750   142830,),0,0,2
6:37.042   142935,(,0,0,0
6:37.083   142950,p,0,0,0
6:37.161   142978,),0,0,0
6:37.222   143000,(,0,0,1
6:37.250   143010,N,0,0,0
6:37.272   143018,),0,0,1
6:37.417   143070,(,0,0,2
6:37.525   143109,t,0,0,0
6:37.597   143135,),0,0,2
6:37.875   143235,(,0,0,0
6:37.919   143251,p,0,0,0
6:37.994   143278,),0,0,0
6:38.064   143303,(,0,0,1
6:38.089   143312,N,0,0,0
6:38.111   143320,),0,0,1
6:38.256   143372,(,0,0,2
6:38.353   143407,t,0,0,0
6:38.422   143432,),0,0,2
6:38.703   143533,(,0,0,0
6:38.756   143552,p,0,0,0
6:38.828   143578,),0,0,0
6:38.900   143604,(,0,0,1
6:38.925   143613,N,0,0,0
6:38.950   143622,),0,0,1
6:39.086   143671,(,0,0,2
6:39.189   143708,t,0,0,0
6:39.264   143735,),0,0,2
6:39.558   143841,(,0,0,0
6:39.606   143858,p,0,0,0
6:39.683   143886,),0,0,0
6:39.750   143910,(,0,0,1
6:39.778   143920,N,0,0,0
6:39.800   143928,),0,0,1
6:39.933   143976,(,0,0,2
6:40.036   144013,t,0,0,0
6:40.108   144039,),0,0,2
6:40.397   144143,(,0,0,0
6:40.442   144159,p,0,0,0
6:40.517   144186,),0,0,0
6:40.583   144210,(,0,0,1
6:40.611   144220,N,0,0,0
6:40.633   144228,),0,0,1
6:40.781   144281,(,0,0,2
6:40.883   144318,t,0,0,0
6:40.958   144345,),0,0,2
6:41.239   144446,(,0,0,0
6:41.286   144463,p,0,0,0
6:41.367   144492,),0,0,0
6:41.439   144518,(,0,0,1
6:41.467   144528,N,0,0,0
6:41.492   144537,),0,0,1
6:41.647   144593,(,0,0,2
6:41.753   144631,t,0,0,0
6:41.833   144660,),0,0,2
6:42.133   144768,(,0,0,0
6:42.183   144786,p,0,0,0
6:42.269   144817,),0,0,0
6:42.336   144841,(,0,0,1
6:42.361   144850,N,0,0,0
6:42.386   144859,),0,0,1
6:42.528   144910,(,0,0,2
6:42.628   144946,t,0,0,0
6:42.708   144975,),0,0,2
6:42.997   145079,(,0,0,0
6:43.047   145097,p,0,0,0
6:43.122   145124,),0,0,0
6:43.186   145147,(,0,0,1
6:43.211   145156,N,0,0,0
6:43.236   145165,),0,0,1
6:43.369   145213,(,0,0,2
6:43.467   145248,t,0,0,0
6:43.542   145275,),0,0,2
6:43.828   145378,(,0,0,0
6:43.875   145395,p,0,0,0
6:43.944   145420,),0,0,0
6:44.006   145442,(,0,0,1
6:44.031   145451,N,0,0,0
6:44.053   145459,),0,0,1
6:44.192   145509,(,0,0,2
6:44.292   145545,t,0,0,0
6:44.367   145572,),0,0,2
6:44.636   145669,(,0,0,0
6:44.686   145687,p,0,0,0
6:44.753   145711,),0,0,0
6:44.814   145733,(,0,0,1
6:44.836   145741,N,0,0,0
6:44.858   145749,),0,0,1
6:45.000   145800,(,0,0,2
6:45.097   145835,t,0,0,0
6:45.178   145864,),0,0,2
6:45.467   145968,(,0,0,0
6:45.517   145986,p,0,0,0
6:45.589   146012,),0,0,0
6:45.653   146035,(,0,0,1
6:45.681   146045,N,0,0,0
6:45.706   146054,),0,0,1
6:45.853   146107,(,0,0,2
6:45.958   146145,t,0,0,0
6:46.039   146174,),0,0,2
6:46.333   146280,(,0,0,0
6:46.381   146297,p,0,0,0
6:46.453   146323,),0,0,0
6:46.525   146349,(,0,0,1
6:46.550   146358,N,0,0,0
6:46.572   146366,),0,0,1
6:46.719   146419,(,0,0,2
6:46.831   146459,t,0,0,0
6:46.911   146488,),0,0,2
6:47.200   146592,(,0,0,0
6:47.247   146609,p,0,0,0
6:47.325   146637,),0,0,0
6:47.394   146662,(,0,0,1
6:47.419   146671,N,0,0,0
6:47.444   146680,),0,0,1
6:47.589   146732,(,0,0,2
6:47.692   146769,t,0,0,0
6:47.775   146799,),0,0,2
6:48.078   146908,(,0,0,0
6:48.128   146926,p,0,0,0
6:48.208   146955,),0,0,0
6:48.286   146983,(,0,0,1
6:48.314   146993,N,0,0,0
6:48.339   147002,),0,0,1
6:48.497   147059,(,0,0,2
6:48.606   147098,t,0,0,0
6:48.689   147128,),0,0,2
6:48.994   147238,(,0,0,0
6:49.042   147255,p,0,0,0
6:49.111   147280,),0,0,0
6:49.186   147307,(,0,0,1
6:49.211   147316,N,0,0,0
6:49.236   147325,),0,0,1
6:49.386   147379,(,0,0,2
6:49.486   147415,t,0,0,0
6:49.564   147443,),0,0,2
6:49.847   147545,(,0,0,0
6:49.886   147559,p,0,0,0
6:49.953   147583,),0,0,0
6:50.025   147609,(,0,0,1
6:50.050   147618,N,0,0,0
6:50.072   147626,),0,0,1
6:50.217   147678,(,0,0,2
6:50.311   147712,t,0,0,0
6:50.386   147739,),0,0,2
6:50.669   147841,(,0,0,0
6:50.717   147858,p,0,0,0
6:50.789   147884,),0,0,0
6:50.869   147913,(,0,0,1
6:50.897   147923,N,0,0,0
6:50.922   147932,),0,0,1
6:51.058   147981,(,0,0,2
6:51.153   148015,t,0,0,0
6:51.225   148041,),0,0,2
6:51.525   148149,(,0,0,0
6:51.572   148166,p,0,0,0
6:51.653   148195,),0,0,0
6:51.728   148222,(,0,0,1
6:51.753   148231,N,0,0,0
6:51.775   148239,),0,0,1
6:51.914   148289,(,0,0,2
6:52.017   148326,t,0,0,0
6:52.100   148356,),0,0,2
6:52.428   148474,(,0,0,0
6:52.475   148491,p,0,0,0
6:52.553   148519,),0,0,0
6:52.631   148547,(,0,0,1
6:52.656   148556,N,0,0,0
6:52.678   148564,),0,0,1
6:52.825   148617,(,0,0,2
6:52.925   148653,t,0,0,0
6:53.008   148683,),0,0,2
6:53.325   148797,(,0,0,0
6:53.372   148814,p,0,0,0
6:53.450   148842,),0,0,0
6:53.522   148868,(,0,0,1
6:53.550   148878,N,0,0,0
6:53.572   148886,),0,0,1
6:53.722   148940,(,0,0,2
6:53.817   148974,t,0,0,0
6:53.892   149001,),0,0,2
6:54.200   149112,(,0,0,0
6:54.250   149130,p,0,0,0
6:54.325   149157,),0,0,0
6:54.403   149185,(,0,0,1
6:54.431   149195,N,0,0,0
6:54.456   149204,),0,0,1
6:54.608   149259,(,0,0,2
6:54.711   149296,t,0,0,0
6:54.797   149327,),0,0,2
6:55.125   149445,(,0,0,0
6:55.172   149462,p,0,0,0
6:55.250   149490,),0,0,0
6:55.319   149515,(,0,0,1
6:55.344   149524,N,0,0,0
6:55.367   149532,),0,0,1
6:55.508   149583,(,0,0,2
6:55.606   149618,t,0,0,0
6:55.686   149647,),0,0,2
6:55.989   149756,(,0,0,0
6:56.036   149773,p,0,0,0
6:56.106   149798,),0,0,0
6:56.172   149822,(,0,0,1
6:56.194   149830,N,0,0,0
6:56.217   149838,),0,0,1
6:56.350   149886,(,0,0,2
6:56.450   149922,t,0,0,0
6:56.522   149948,),0,0,2
6:56.811   150052,(,0,0,0
6:56.853   150067,p,0,0,0
6:56.925   150093,),0,0,0
6:57.000   150120,(,0,0,1
6:57.022   150128,N,0,0,0
6:57.047   150137,),0,0,1
6:57.189   150188,(,0,0,2
6:57.289   150224,t,0,0,0
6:57.372   150254,),0,0,2
6:57.661   150358,(,0,0,0
6:57.706   150374,p,0,0,0
6:57.781   150401,),0,0,0
6:57.853   150427,(,0,0,1
6:57.883   150438,N,0,0,0
6:57.908   150447,),0,0,1
6:58.058   150501,(,0,0,2
6:58.161   150538,t,0,0,0
6:58.244   150568,),0,0,2
6:58.550   150678,(,0,0,0
6:58.603   150697,p,0,0,0
6:58.681   150725,),0,0,0
6:58.756   150752,(,0,0,1
6:58.783   150762,N,0,0,0
6:58.811   150772,),0,0,1
6:58.967   150828,(,0,0,2
6:59.067   150864,t,0,0,0
6:59.144   150892,),0,0,2
6:59.450   151002,(,0,0,0
6:59.500   151020,p,0,0,0
6:59.581   151049,),0,0,0
6:59.653   151075,(,0,0,1
6:59.681   151085,N,0,0,0
6:59.706   151094,),0,0,1
6:59.853   151147,(,0,0,2
6:59.953   151183,t,0,0,0
7:00.031   151211,),0,0,2
7:00.322   151316,(,0,0,0
7:00.375   151335,p,0,0,0
7:00.450   151362,),0,0,0
7:00.522   151388,(,0,0,1
7:00.550   151398,N,0,0,0
7:00.575   151407,),0,0,1
7:00.722   151460,(,0,0,2
7:00.828   151498,t,0,0,0
7:00.908   151527,),0,0,2
7:01.211   151636,(,0,0,0
7:01.261   151654,p,0,0,0
7:01.333   151680,),0,0,0
7:01.406   151706,(,0,0,1
7:01.433   151716,N,0,0,0
7:01.458   151725,),0,0,1
7:01.600   151776,(,0,0,2
7:01.694   151810,t,0,0,0
7:01.769   151837,),0,0,2
7:02.044   151936,(,0,0,0
7:02.092   151953,p,0,0,0
7:02.169   151981,),0,0,0
7:02.236   152005,(,0,0,1
7:02.261   152014,N,0,0,0
7:02.283   152022,),0,0,1
7:02.419   152071,(,0,0,2
7:02.508   152103,t,0,0,0
7:02.581   152129,),0,0,2
7:03.683   152526,(,0,0,0
7:03.728   152542,p,0,0,0
7:03.800   152568,),0,0,0
7:03.867   152592,(,0,0,1
7:03.886   152599,N,0,0,0
7:03.908   152607,),0,0,1
7:04.044   152656,(,0,0,2
7:04.147   152693,t,0,0,0
7:04.231   152723,),0,0,2
7:04.539   152834,(,0,0,0
7:04.589   152852,p,0,0,0
7:04.661   152878,),0,0,0
7:04.733   152904,(,0,0,1
7:04.758   152913,N,0,0,0
7:04.783   152922,),0,0,1
7:04.936   152977,(,0,0,2
7:05.047   153017,t,0,0,0
7:05.131   153047,),0,0,2
7:05.450   153162,(,0,0,0
7:05.497   153179,p,0,0,0
7:05.575   153207,),0,0,0
7:05.650   153234,(,0,0,1
7:05.675   153243,N,0,0,0
7:05.697   153251,),0,0,1
7:05.847   153305,(,0,0,2
7:05.950   153342,t,0,0,0
7:06.031   153371,),0,0,2
7:06.342   153483,(,0,0,0
7:06.386   153499,p,0,0,0
7:06.458   153525,),0,0,0
7:06.533   153552,(,0,0,1
7:06.561   153562,N,0,0,0
7:06.583   153570,),0,0,1
7:06.728   153622,(,0,0,2
7:06.828   153658,t,0,0,0
7:06.906   153686,),0,0,2
7:07.222   153800,(,0,0,0
7:07.267   153816,p,0,0,0
7:07.342   153843,),0,0,0
7:07.419   153871,(,0,0,1
7:07.444   153880,N,0,0,0
7:07.469   153889,),0,0,1
7:07.625   153945,(,0,0,2
7:07.722   153980,t,0,0,0
7:07.806   154010,),0,0,2
7:08.089   154112,(,0,0,0
7:08.133   154128,p,0,0,0
7:08.208   154155,),0,0,0
7:08.281   154181,(,0,0,1
7:08.303   154189,N,0,0,0
7:08.325   154197,),0,0,1
7:08.461   154246,(,0,0,2
7:08.564   154283,t,0,0,0
7:08.642   154311,),0,0,2
7:08.931   154415,(,0,0,0
7:08.975   154431,p,0,0,0
7:09.047   154457,),0,0,0
7:09.117   154482,(,0,0,1
7:09.142   154491,N,0,0,0
7:09.164   154499,),0,0,1
7:09.303   154549,(,0,0,2
7:09.408   154587,t,0,0,0
7:09.486   154615,),0,0,2
7:09.783   154722,(,0,0,0
7:09.828   154738,p,0,0,0
7:09.906   154766,),0,0,0
7:09.983   154794,(,0,0,1
7:10.011   154804,N,0,0,0
7:10.039   154814,),0,0,1
7:10.186   154867,(,0,0,2
7:10.281   154901,t,0,0,0
7:10.358   154929,),0,0,2
7:10.658   155037,(,0,0,0
7:10.708   155055,p,0,0,0
7:10.783   155082,),0,0,0
7:10.869   155113,(,0,0,1
7:10.897   155123,N,0,0,0
7:10.922   155132,),0,0,1
7:11.075   155187,(,0,0,2
7:11.175   155223,t,0,0,0
7:11.258   155253,),0,0,2
7:11.583   155370,(,0,0,0
7:11.633   155388,p,0,0,0
7:11.719   155419,),0,0,0
7:11.797   155447,(,0,0,1
7:11.822   155456,N,0,0,0
7:11.847   155465,),0,0,1
7:11.992   155517,(,0,0,2
7:12.092   155553,t,0,0,0
7:12.175   155583,),0,0,2
7:12.486   155695,(,0,0,0
7:12.533   155712,p,0,0,0
7:12.614   155741,),0,0,0
7:12.686   155767,(,0,0,1
7:12.714   155777,N,0,0,0
7:12.736   155785,),0,0,1
7:12.878   155836,(,0,0,2
7:12.972   155870,t,0,0,0
7:13.047   155897,),0,0,2
7:13.336   156001,(,0,0,0
7:13.378   156016,p,0,0,0
7:13.453   156043,),0,0,0
7:13.525   156069,(,0,0,1
7:13.550   156078,N,0,0,0
7:13.575   156087,),0,0,1
7:13.719   156139,(,0,0,2
7:13.819   156175,t,0,0,0
7:13.900   156204,),0,0,2
7:14.203   156313,(,0,0,0
7:14.244   156328,p,0,0,0
7:14.328   156358,),0,0,0
7:14.394   156382,(,0,0,1
7:14.417   156390,N,0,0,0
7:14.439   156398,),0,0,1
7:14.575   156447,(,0,0,2
7:14.669   156481,t,0,0,0
7:14.747   156509,),0,0,2
7:16.736   157225,(,0,0,0
7:16.778   157240,p,0,0,0
7:16.856   157268,),0,0,0
7:16.931   157295,(,0,0,1
7:16.956   157304,N,0,0,0
7:16.983   157314,),0,0,1
7:17.144   157372,(,0,0,2
7:17.247   157409,t,0,0,0
7:17.328   157438,),0,0,2
7:17.633   157548,(,0,0,0
7:17.683   157566,p,0,0,0
7:17.758   157593,),0,0,0
7:17.836   157621,(,0,0,1
7:17.867   157632,N,0,0,0
7:17.889   157640,),0,0,1
7:18.044   157696,(,0,0,2
7:18.150   157734,t,0,0,0
7:18.228   157762,),0,0,2
7:18.519   157867,(,0,0,0
7:18.561   157882,p,0,0,0
7:18.636   157909,),0,0,0
7:18.714   157937,(,0,0,1
7:18.742   157947,N,0,0,0
7:18.767   157956,),0,0,1
7:18.917   158010,(,0,0,2
7:19.019   158047,t,0,0,0
7:19.097   158075,),0,0,2
7:21.025   158769,(,0,0,0
7:21.069   158785,p,0,0,0
7:21.147   158813,),0,0,0
7:21.217   158838,(,0,0,1
7:21.244   158848,N,0,0,0
7:21.267   158856,),0,0,1
7:21.411   158908,(,0,0,2
7:21.506   158942,t,0,0,0
7:21.578   158968,),0,0,2
7:23.597   159695,(,0,0,0
7:23.647   159713,p,0,0,0
7:23.733   159744,),0,0,0
7:23.814   159773,(,0,0,1
7:23.842   159783,N,0,0,0
7:23.864   159791,),0,0,1
7:24.006   159842,(,0,0,2
7:24.117   159882,t,0,0,0
7:24.200   159912,),0,0,2
7:24.525   160029,(,0,0,0
7:24.567   160044,p,0,0,0
7:24.650   160074,),0,0,0
7:24.731   160103,(,0,0,1
7:24.756   160112,N,0,0,0
7:24.778   160120,),0,0,1
7:24.914   160169,(,0,0,2
7:25.014   160205,t,0,0,0
7:25.092   160233,),0,0,2
7:26.253   160651,(,0,0,0
7:26.294   160666,p,0,0,0
7:26.369   160693,),0,0,0
7:26.456   160724,(,0,0,1
7:26.478   160732,N,0,0,0
7:26.503   160741,),0,0,1
7:26.644   160792,(,0,0,2
7:26.750   160830,t,0,0,0
7:26.828   160858,),0,0,2
7:27.139   160970,(,0,0,0
7:27.183   160986,p,0,0,0
7:27.258   161013,),0,0,0
7:27.336   161041,(,0,0,1
7:27.361   161050,N,0,0,0
7:27.383   161058,),0,0,1
7:27.519   161107,(,0,0,2
7:27.622   161144,t,0,0,0
7:27.703   161173,),0,0,2
7:28.011   161284,(,0,0,0
7:28.053   161299,p,0,0,0
7:28.128   161326,),0,0,0
7:28.208   161355,(,0,0,1
7:28.233   161364,N,0,0,0
7:28.258   161373,),0,0,1
7:28.406   161426,(,0,0,2
7:28.508   161463,t,0,0,0
7:28.589   161492,),0,0,2
7:28.906   161606,(,0,0,0
7:28.953   161623,p,0,0,0
7:29.033   161652,),0,0,0
7:29.117   161682,(,0,0,1
7:29.142   161691,N,0,0,0
7:29.169   161701,),0,0,1
7:29.325   161757,(,0,0,2
7:29.428   161794,t,0,0,0
7:29.506   161822,),0,0,2
7:29.819   161935,(,0,0,0
7:29.869   161953,p,0,0,0
7:29.944   161980,),0,0,0
7:30.033   162012,(,0,0,1
7:30.061   162022,N,0,0,0
7:30.086   162031,),0,0,1
7:30.247   162089,(,0,0,2
7:30.342   162123,t,0,0,0
7:30.425   162153,),0,0,2
7:30.753   162271,(,0,0,0
7:30.800   162288,p,0,0,0
7:30.886   162319,),0,0,0
7:30.969   162349,(,0,0,1
7:30.997   162359,N,0,0,0
7:31.022   162368,),0,0,1
7:31.167   162420,(,0,0,2
7:31.256   162452,t,0,0,0
7:31.336   162481,),0,0,2
7:31.644   162592,(,0,0,0
7:31.694   162610,p,0,0,0
7:31.769   162637,),0,0,0
7:31.850   162666,(,0,0,1
7:31.875   162675,N,0,0,0
7:31.897   162683,),0,0,1
7:32.028   162730,(,0,0,2
7:32.119   162763,t,0,0,0
7:32.197   162791,),0,0,2
7:34.217   163518,(,0,0,0
7:34.264   163535,p,0,0,0
7:34.342   163563,),0,0,0
7:34.411   163588,(,0,0,1
7:34.436   163597,N,0,0,0
7:34.458   163605,),0,0,1
7:34.594   163654,(,0,0,2
7:34.689   163688,t,0,0,0
7:34.772   163718,),0,0,2
7:35.067   163824,(,0,0,0
7:35.114   163841,p,0,0,0
7:35.189   163868,),0,0,0
7:35.267   163896,(,0,0,1
7:35.292   163905,N,0,0,0
7:35.317   163914,),0,0,1
7:35.464   163967,(,0,0,2
7:35.572   164006,t,0,0,0
7:35.658   164037,),0,0,2
7:37.644   164752,(,0,0,0
7:37.689   164768,p,0,0,0
7:37.758   164793,),0,0,0
7:37.831   164819,(,0,0,1
7:37.853   164827,N,0,0,0
7:37.878   164836,),0,0,1
7:38.025   164889,(,0,0,2
7:38.114   164921,t,0,0,0
7:38.197   164951,),0,0,2
7:38.450   165042,(,0,0,0
7:38.494   165058,p,0,0,0
7:38.564   165083,),0,0,0
7:38.633   165108,(,0,0,1
7:38.658   165117,N,0,0,0
7:38.681   165125,),0,0,1
7:38.822   165176,(,0,0,2
7:38.917   165210,t,0,0,0
7:38.997   165239,),0,0,2
7:40.106   165638,(,0,0,0
7:40.153   165655,p,0,0,0
7:40.225   165681,),0,0,0
7:40.303   165709,(,0,0,1
7:40.331   165719,N,0,0,0
7:40.356   165728,),0,0,1
7:40.506   165782,(,0,0,2
7:40.608   165819,t,0,0,0
7:40.689   165848,),0,0,2
7:40.967   165948,(,0,0,0
7:41.014   165965,p,0,0,0
7:41.081   165989,),0,0,0
7:41.158   166017,(,0,0,1
7:41.186   166027,N,0,0,0
7:41.214   166037,),0,0,1
7:41.367   166092,(,0,0,2
7:41.467   166128,t,0,0,0
7:41.550   166158,),0,0,2
7:41.822   166256,(,0,0,0
7:41.872   166274,p,0,0,0
7:41.956   166304,),0,0,0
7:42.039   166334,(,0,0,1
7:42.067   166344,N,0,0,0
7:42.092   166353,),0,0,1
7:42.244   166408,(,0,0,2
7:42.344   166444,t,0,0,0
7:42.428   166474,),0,0,2
7:42.703   166573,(,0,0,0
7:42.753   166591,p,0,0,0
7:42.842   166623,),0,0,0
7:42.919   166651,(,0,0,1
7:42.947   166661,N,0,0,0
7:42.972   166670,),0,0,1
7:43.117   166722,(,0,0,2
7:43.214   166757,t,0,0,0
7:43.294   166786,),0,0,2
7:44.375   167175,(,0,0,0
7:44.422   167192,p,0,0,0
7:44.494   167218,),0,0,0
7:44.569   167245,(,0,0,1
7:44.592   167253,N,0,0,0
7:44.614   167261,),0,0,1
7:44.753   167311,(,0,0,2
7:44.847   167345,t,0,0,0
7:44.925   167373,),0,0,2
7:45.186   167467,(,0,0,0
7:45.231   167483,p,0,0,0
7:45.306   167510,),0,0,0
7:45.381   167537,(,0,0,1
7:45.406   167546,N,0,0,0
7:45.431   167555,),0,0,1
7:45.578   167608,(,0,0,2
7:45.675   167643,t,0,0,0
7:45.761   167674,),0,0,2
7:46.908   168087,(,0,0,0
7:46.961   168106,p,0,0,0
7:47.039   168134,),0,0,0
7:47.122   168164,(,0,0,1
7:47.147   168173,N,0,0,0
7:47.172   168182,),0,0,1
7:47.317   168234,(,0,0,2
7:47.414   168269,t,0,0,0
7:47.494   168298,),0,0,2
7:47.775   168399,(,0,0,0
7:47.825   168417,p,0,0,0
7:47.908   168447,),0,0,0
7:47.981   168473,(,0,0,1
7:48.006   168482,N,0,0,0
7:48.031   168491,),0,0,1
7:48.172   168542,(,0,0,2
7:48.278   168580,t,0,0,0
7:48.361   168610,),0,0,2
7:48.650   168714,(,0,0,0
7:48.697   168731,p,0,0,0
7:48.769   168757,),0,0,0
7:48.839   168782,(,0,0,1
7:48.867   168792,N,0,0,0
7:48.889   168800,),0,0,1
7:49.036   168853,(,0,0,2
7:49.136   168889,t,0,0,0
7:49.214   168917,),0,0,2
7:50.367   169332,(,0,0,0
7:50.406   169346,p,0,0,0
7:50.478   169372,),0,0,0
7:50.553   169399,(,0,0,1
7:50.578   169408,N,0,0,0
7:50.600   169416,),0,0,1
7:50.739   169466,(,0,0,2
7:50.836   169501,t,0,0,0
7:50.917   169530,),0,0,2
7:51.189   169628,(,0,0,0
7:51.231   169643,p,0,0,0
7:51.303   169669,),0,0,0
7:51.381   169697,(,0,0,1
7:51.403   169705,N,0,0,0
7:51.428   169714,),0,0,1
7:51.569   169765,(,0,0,2
7:51.667   169800,t,0,0,0
7:51.744   169828,),0,0,2
7:52.958   170265,(,0,0,0
7:53.006   170282,p,0,0,0
7:53.083   170310,),0,0,0
7:53.161   170338,(,0,0,1
7:53.189   170348,N,0,0,0
7:53.214   170357,),0,0,1
7:53.364   170411,(,0,0,2
7:53.472   170450,t,0,0,0
7:53.556   170480,),0,0,2
7:53.842   170583,(,0,0,0
7:53.886   170599,p,0,0,0
7:53.961   170626,),0,0,0
7:54.042   170655,(,0,0,1
7:54.067   170664,N,0,0,0
7:54.094   170674,),0,0,1
7:54.250   170730,(,0,0,2
7:54.353   170767,t,0,0,0
7:54.433   170796,),0,0,2
7:54.725   170901,(,0,0,0
7:54.772   170918,p,0,0,0
7:54.853   170947,),0,0,0
7:54.928   170974,(,0,0,1
7:54.958   170985,N,0,0,0
7:54.983   170994,),0,0,1
7:55.128   171046,(,0,0,2
7:55.222   171080,t,0,0,0
7:55.294   171106,),0,0,2
7:56.414   171509,(,0,0,0
7:56.469   171529,p,0,0,0
7:56.542   171555,),0,0,0
7:56.617   171582,(,0,0,1
7:56.642   171591,N,0,0,0
7:56.664   171599,),0,0,1
7:56.800   171648,(,0,0,2
7:56.894   171682,t,0,0,0
7:56.969   171709,),0,0,2
7:57.244   171808,(,0,0,0
7:57.292   171825,p,0,0,0
7:57.367   171852,),0,0,0
7:57.439   171878,(,0,0,1
7:57.461   171886,N,0,0,0
7:57.483   171894,),0,0,1
7:57.625   171945,(,0,0,2
7:57.722   171980,t,0,0,0
7:57.800   172008,),0,0,2
7:58.075   172107,(,0,0,0
7:58.119   172123,p,0,0,0
7:58.194   172150,),0,0,0
7:58.275   172179,(,0,0,1
7:58.300   172188,N,0,0,0
7:58.325   172197,),0,0,1
7:58.478   172252,(,0,0,2
7:58.586   172291,t,0,0,0
7:58.667   172320,),0,0,2
7:58.978   172432,(,0,0,0
7:59.031   172451,p,0,0,0
7:59.108   172479,),0,0,0
7:59.189   172508,(,0,0,1
7:59.217   172518,N,0,0,0
7:59.242   172527,),0,0,1
7:59.386   172579,(,0,0,2
7:59.489   172616,t,0,0,0
7:59.569   172645,),0,0,2
7:59.872   172754,(,0,0,0
7:59.919   172771,p,0,0,0
8:00.000   172800,),0,0,0
8:00.072   172826,(,0,0,1
8:00.097   172835,N,0,0,0
8:00.119   172843,),0,0,1
8:00.258   172893,(,0,0,2
8:00.356   172928,t,0,0,0
8:00.433   172956,),0,0,2
8:00.731   173063,(,0,0,0
8:00.778   173080,p,0,0,0
8:00.850   173106,),0,0,0
8:00.925   173133,(,0,0,1
8:00.950   173142,N,0,0,0
8:00.972   173150,),0,0,1
8:01.122   173204,(,0,0,2
8:01.228   173242,t,0,0,0
8:01.311   173272,),0,0,2
8:01.597   173375,(,0,0,0
8:01.642   173391,p,0,0,0
8:01.717   173418,),0,0,0
8:01.792   173445,(,0,0,1
8:01.817   173454,N,0,0,0
8:01.839   173462,),0,0,1
8:01.992   173517,(,0,0,2
8:02.092   173553,t,0,0,0
8:02.172   173582,),0,0,2
8:02.453   173683,(,0,0,0
8:02.500   173700,p,0,0,0
8:02.575   173727,),0,0,0
8:02.650   173754,(,0,0,1
8:02.675   173763,N,0,0,0
8:02.700   173772,),0,0,1
8:02.842   173823,(,0,0,2
8:02.942   173859,t,0,0,0
8:03.022   173888,),0,0,2
8:03.294   173986,(,0,0,0
8:03.339   174002,p,0,0,0
8:03.414   174029,),0,0,0
8:03.489   174056,(,0,0,1
8:03.517   174066,N,0,0,0
8:03.542   174075,),0,0,1
8:03.689   174128,(,0,0,2
8:03.783   174162,t,0,0,0
8:03.864   174191,),0,0,2
8:04.136   174289,(,0,0,0
8:04.181   174305,p,0,0,0
8:04.256   174332,),0,0,0
8:04.333   174360,(,0,0,1
8:04.358   174369,N,0,0,0
8:04.383   174378,),0,0,1
8:04.533   174432,(,0,0,2
8:04.636   174469,t,0,0,0
8:04.717   174498,),0,0,2
8:05.028   174610,(,0,0,0
8:05.075   174627,p,0,0,0
8:05.156   174656,),0,0,0
8:05.239   174686,(,0,0,1
8:05.267   174696,N,0,0,0
8:05.292   174705,),0,0,1
8:05.447   174761,(,0,0,2
8:05.553   174799,t,0,0,0
8:05.633   174828,),0,0,2
8:05.911   174928,(,0,0,0
8:05.961   174946,p,0,0,0
8:06.042   174975,),0,0,0
8:06.119   175003,(,0,0,1
8:06.147   175013,N,0,0,0
8:06.172   175022,),0,0,1
8:06.328   175078,(,0,0,2
8:06.422   175112,t,0,0,0
8:06.500   175140,),0,0,2
8:06.772   175238,(,0,0,0
8:06.822   175256,p,0,0,0
8:06.900   175284,),0,0,0
8:06.972   175310,(,0,0,1
8:07.000   175320,N,0,0,0
8:07.022   175328,),0,0,1
8:07.167   175380,(,0,0,2
8:07.258   175413,t,0,0,0
8:07.336   175441,),0,0,2
8:07.614   175541,(,0,0,0
8:07.658   175557,p,0,0,0
8:07.736   175585,),0,0,0
8:07.808   175611,(,0,0,1
8:07.831   175619,N,0,0,0
8:07.853   175627,),0,0,1
8:07.983   175674,(,0,0,2
8:08.081   175709,t,0,0,0
8:08.156   175736,),0,0,2
8:08.433   175836,(,0,0,0
8:08.478   175852,p,0,0,0
8:08.550   175878,),0,0,0
8:08.622   175904,(,0,0,1
8:08.647   175913,N,0,0,0
8:08.669   175921,),0,0,1
8:08.811   175972,(,0,0,2
8:08.911   176008,t,0,0,0
8:08.994   176038,),0,0,2
8:09.261   176134,(,0,0,0
8:09.306   176150,p,0,0,0
8:09.381   176177,),0,0,0
8:09.453   176203,(,0,0,1
8:09.475   176211,N,0,0,0
8:09.494   176218,),0,0,1
8:09.631   176267,(,0,0,2
8:09.731   176303,t,0,0,0
8:09.811   176332,),0,0,2
8:10.078   176428,(,0,0,0
8:10.122   176444,p,0,0,0
8:10.200   176472,),0,0,0
8:10.272   176498,(,0,0,1
8:10.297   176507,N,0,0,0
8:10.319   176515,),0,0,1
8:10.456   176564,(,0,0,2
8:10.561   176602,t,0,0,0
8:10.642   176631,),0,0,2
8:10.922   176732,(,0,0,0
8:10.972   176750,p,0,0,0
8:11.053   176779,),0,0,0
8:11.131   176807,(,0,0,1
8:11.158   176817,N,0,0,0
8:11.186   176827,),0,0,1
8:11.344   176884,(,0,0,2
8:11.450   176922,t,0,0,0
8:11.531   176951,),0,0,2
8:11.819   177055,(,0,0,0
8:11.869   177073,p,0,0,0
8:11.939   177098,),0,0,0
8:12.014   177125,(,0,0,1
8:12.042   177135,N,0,0,0
8:12.064   177143,),0,0,1
8:12.214   177197,(,0,0,2
8:12.314   177233,t,0,0,0
8:12.394   177262,),0,0,2
8:12.675   177363,(,0,0,0
8:12.725   177381,p,0,0,0
8:12.797   177407,),0,0,0
8:12.872   177434,(,0,0,1
8:12.894   177442,N,0,0,0
8:12.917   177450,),0,0,1
8:13.053   177499,(,0,0,2
8:13.153   177535,t,0,0,0
8:13.236   177565,),0,0,2
8:13.500   177660,(,0,0,0
8:13.547   177677,p,0,0,0
8:13.619   177703,),0,0,0
8:13.689   177728,(,0,0,1
8:13.714   177737,N,0,0,0
8:13.739   177746,),0,0,1
8:13.883   177798,(,0,0,2
8:13.983   177834,t,0,0,0
8:14.061   177862,),0,0,2
8:14.311   177952,(,0,0,0
8:14.356   177968,p,0,0,0
8:14.422   177992,),0,0,0
8:14.492   178017,(,0,0,1
8:14.517   178026,N,0,0,0
8:14.542   178035,),0,0,1
8:14.681   178085,(,0,0,2
8:14.783   178122,t,0,0,0
8:14.864   178151,),0,0,2
8:15.106   178238,(,0,0,0
8:15.153   178255,p,0,0,0
8:15.228   178282,),0,0,0
8:15.297   178307,(,0,0,1
8:15.325   178317,N,0,0,0
8:15.347   178325,),0,0,1
8:15.497   178379,(,0,0,2
8:15.594   178414,t,0,0,0
8:15.678   178444,),0,0,2
8:15.919   178531,(,0,0,0
8:15.964   178547,p,0,0,0
8:16.036   178573,),0,0,0
8:16.106   178598,(,0,0,1
8:16.131   178607,N,0,0,0
8:16.156   178616,),0,0,1
8:16.308   178671,(,0,0,2
8:16.406   178706,t,0,0,0
8:16.489   178736,),0,0,2
8:16.733   178824,(,0,0,0
8:16.781   178841,p,0,0,0
8:16.856   178868,),0,0,0
8:16.925   178893,(,0,0,1
8:16.950   178902,N,0,0,0
8:16.975   178911,),0,0,1
8:17.117   178962,(,0,0,2
8:17.222   179000,t,0,0,0
8:17.306   179030,),0,0,2
8:17.572   179126,(,0,0,0
8:17.622   179144,p,0,0,0
8:17.706   179174,),0,0,0
8:17.783   179202,(,0,0,1
8:17.811   179212,N,0,0,0
8:17.836   179221,),0,0,1
8:17.997   179279,(,0,0,2
8:18.100   179316,t,0,0,0
8:18.183   179346,),0,0,2
8:18.456   179444,(,0,0,0
8:18.503   179461,p,0,0,0
8:18.578   179488,),0,0,0
8:18.653   179515,(,0,0,1
8:18.678   179524,N,0,0,0
8:18.703   179533,),0,0,1
8:18.853   179587,(,0,0,2
8:18.958   179625,t,0,0,0
8:19.039   179654,),0,0,2
8:19.292   179745,(,0,0,0
8:19.336   179761,p,0,0,0
8:19.406   179786,),0,0,0
8:19.472   179810,(,0,0,1
8:19.497   179819,N,0,0,0
8:19.519   179827,),0,0,1
8:19.664   179879,(,0,0,2
8:19.761   179914,t,0,0,0
8:19.842   179943,),0,0,2
8:20.106   180038,(,0,0,0
8:20.156   180056,p,0,0,0
8:20.231   180083,),0,0,0
8:20.306   180110,(,0,0,1
8:20.333   180120,N,0,0,0
8:20.358   180129,),0,0,1
8:20.503   180181,(,0,0,2
8:20.592   180213,t,0,0,0
8:20.667   180240,),0,0,2
8:20.942   180339,(,0,0,0
8:20.992   180357,p,0,0,0
8:21.067   180384,),0,0,0
8:21.150   180414,(,0,0,1
8:21.178   180424,N,0,0,0
8:21.203   180433,),0,0,1
8:21.344   180484,(,0,0,2
8:21.433   180516,t,0,0,0
8:21.517   180546,),0,0,2
8:21.814   180653,(,0,0,0
8:21.861   180670,p,0,0,0
8:21.939   180698,),0,0,0
8:22.022   180728,(,0,0,1
8:22.050   180738,N,0,0,0
8:22.072   180746,),0,0,1
8:22.219   180799,(,0,0,2
8:22.308   180831,t,0,0,0
8:22.397   180863,),0,0,2
8:22.700   180972,(,0,0,0
8:22.750   180990,p,0,0,0
8:22.831   181019,),0,0,0
8:22.911   181048,(,0,0,1
8:22.936   181057,N,0,0,0
8:22.961   181066,),0,0,1
8:23.106   181118,(,0,0,2
8:23.203   181153,t,0,0,0
8:23.292   181185,),0,0,2
8:25.414   181949,(,0,0,0
8:25.461   181966,p,0,0,0
8:25.539   181994,),0,0,0
8:25.608   182019,(,0,0,1
8:25.631   182027,N,0,0,0
8:25.653   182035,),0,0,1
8:25.783   182082,(,0,0,2
8:25.878   182116,t,0,0,0
8:25.958   182145,),0,0,2
8:27.958   182865,(,0,0,0
8:28.006   182882,p,0,0,0
8:28.081   182909,),0,0,0
8:28.158   182937,(,0,0,1
8:28.186   182947,N,0,0,0
8:28.214   182957,),0,0,1
8:28.372   183014,(,0,0,2
8:28.469   183049,t,0,0,0
8:28.550   183078,),0,0,2
