Elapsedtime,sample,Type,Sub,Chan,Num
0:00.608,219,(,0,0,0
0:00.639,230,p,0,0,0
0:00.742,267,),0,0,0
0:00.833,300,(,0,0,1
0:00.986,355,N,0,0,0
0:01.050,378,),0,0,1
0:01.075,387,(,0,0,2
0:01.275,459,t,0,0,0
0:01.489,536,),0,0,2
0:01.656,596,(,0,0,1
0:01.811,652,N,0,0,0
0:01.889,680,),0,0,1
0:01.978,712,(,0,0,2
0:02.072,746,t,0,0,0
0:02.233,804,),0,0,2
0:02.453,883,(,0,0,1
0:02.606,938,N,0,0,0
0:02.672,962,),0,0,1
0:02.786,1003,(,0,0,2
0:02.889,1040,t,0,0,0
0:03.028,1090,),0,0,2
0:03.256,1172,(,0,0,1
0:03.397,1223,N,0,0,0
0:03.467,1248,),0,0,1
0:03.556,1280,(,0,0,2
0:03.664,1319,t,0,0,0
0:03.800,1368,),0,0,2
0:03.828,1378,(,0,0,0
0:03.864,1391,p,0,0,0
0:03.914,1409,),0,0,0
0:04.031,1451,(,0,0,1
0:04.100,1476,N,0,0,0
0:04.133,1488,),0,0,1
0:04.167,1500,(,0,0,2
0:04.306,1550,t,0,0,4
0:04.458,1605,t,0,0,4
0:04.558,1641,),0,0,2
0:04.731,1703,(,0,0,0
0:04.783,1722,p,0,0,0
0:04.808,1731,),0,0,0
0:04.822,1736,(,0,0,1
0:04.856,1748,N,0,0,0
0:04.992,1797,),0,0,1
0:05.014,1805,(,0,0,2
0:05.264,1895,t,0,0,0
0:05.408,1947,),0,0,2
0:05.689,2048,(,0,0,1
0:05.831,2099,N,0,0,0
0:05.908,2127,),0,0,1
0:05.942,2139,(,0,0,2
0:06.119,2203,t,0,0,0
0:06.250,2250,),0,0,2
0:06.517,2346,(,0,0,1
0:06.658,2397,N,0,0,0
0:06.728,2422,),0,0,1
0:06.747,2429,(,0,0,2
0:06.944,2500,t,0,0,0
0:07.072,2546,),0,0,2
0:07.314,2633,(,0,0,1
0:07.475,2691,N,0,0,0
0:07.553,2719,),0,0,1
0:07.611,2740,(,0,0,2
0:07.731,2783,t,0,0,0
0:07.950,2862,),0,0,2
0:08.122,2924,(,0,0,1
0:08.278,2980,N,0,0,0
0:08.356,3008,),0,0,1
0:08.383,3018,(,0,0,2
0:08.572,3086,t,0,0,0
0:08.722,3140,),0,0,2
0:08.936,3217,(,0,0,1
0:09.083,3270,N,0,0,0
0:09.161,3298,),0,0,1
0:09.261,3334,(,0,0,2
0:09.353,3367,t,0,0,0
0:09.478,3412,),0,0,2
0:09.508,3423,(,0,0,0
0:09.547,3437,p,0,0,0
0:09.586,3451,),0,0,0
0:09.717,3498,(,0,0,1
0:09.783,3522,N,0,0,0
0:09.819,3535,),0,0,1
0:09.878,3556,(,0,0,2
0:10.008,3603,t,0,0,4
0:10.164,3659,t,0,0,4
0:10.228,3682,),0,0,2
0:10.422,3752,(,0,0,0
0:10.464,3767,p,0,0,0
0:10.492,3777,),0,0,0
0:10.508,3783,(,0,0,1
0:10.542,3795,N,0,0,0
0:10.658,3837,),0,0,1
0:10.692,3849,(,0,0,2
0:10.950,3942,t,0,0,0
0:11.067,3984,),0,0,2
0:11.242,4047,(,0,0,0
0:11.336,4081,p,0,0,0
0:11.383,4098,),0,0,0
0:11.417,4110,(,0,0,1
0:11.511,4144,N,0,0,0
0:11.592,4173,),0,0,1
0:11.622,4184,(,0,0,2
0:11.783,4242,t,0,0,0
0:11.919,4291,),0,0,2
0:12.178,4384,(,0,0,1
0:12.350,4446,N,0,0,0
0:12.428,4474,),0,0,1
0:12.458,4485,(,0,0,2
0:12.631,4547,t,0,0,0
0:12.758,4593,),0,0,2
0:13.003,4681,(,0,0,1
0:13.172,4742,N,0,0,0
0:13.242,4767,),0,0,1
0:13.269,4777,(,0,0,2
0:13.389,4820,t,0,0,0
0:13.589,4892,),0,0,2
0:13.833,4980,(,0,0,1
0:13.975,5031,N,0,0,0
0:14.044,5056,),0,0,1
0:14.186,5107,(,0,0,2
0:14.261,5134,t,0,0,0
0:14.389,5180,),0,0,2
0:14.625,5265,(,0,0,1
0:14.778,5320,N,0,0,0
0:14.853,5347,),0,0,1
0:14.881,5357,(,0,0,2
0:15.061,5422,t,0,0,5
0:15.169,5461,t,0,0,5
0:15.214,5477,),0,0,2
0:15.217,5478,(,0,0,0
0:15.222,5480,p,0,0,0
0:15.269,5497,),0,0,0
0:15.414,5549,(,0,0,1
0:15.467,5568,N,0,0,0
0:15.497,5579,),0,0,1
0:15.531,5591,(,0,0,2
0:15.672,5642,t,0,0,4
0:15.825,5697,t,0,0,4
0:15.919,5731,),0,0,2
0:16.086,5791,(,0,0,0
0:16.139,5810,p,0,0,0
0:16.181,5825,),0,0,0
0:16.200,5832,(,0,0,1
0:16.314,5873,N,0,0,0
0:16.375,5895,),0,0,1
0:16.406,5906,(,0,0,2
0:16.486,5935,t,0,0,4
0:16.656,5996,t,0,0,4
0:16.789,6044,),0,0,2
0:17.003,6121,(,0,0,1
0:17.056,6140,N,0,0,0
0:17.172,6182,),0,0,1
0:17.189,6188,(,0,0,2
0:17.469,6289,t,0,0,0
0:17.611,6340,),0,0,2
0:17.878,6436,(,0,0,1
0:18.033,6492,N,0,0,0
0:18.089,6512,),0,0,1
0:18.117,6522,(,0,0,2
0:18.336,6601,t,0,0,0
0:18.453,6643,),0,0,2
0:18.692,6729,(,0,0,1
0:18.850,6786,N,0,0,0
0:18.928,6814,),0,0,1
0:19.017,6846,(,0,0,2
0:19.128,6886,t,0,0,0
0:19.292,6945,),0,0,2
0:19.489,7016,(,0,0,1
0:19.675,7083,N,0,0,0
0:19.750,7110,),0,0,1
0:19.858,7149,(,0,0,2
0:19.931,7175,t,0,0,0
0:20.033,7212,),0,0,2
0:20.258,7293,(,0,0,0
0:20.289,7304,p,0,0,0
0:20.311,7312,),0,0,0
0:20.333,7320,(,0,0,1
0:20.481,7373,N,0,0,0
0:20.542,7395,),0,0,1
0:20.639,7430,(,0,0,2
0:20.753,7471,t,0,0,5
0:20.864,7511,t,0,0,5
0:20.900,7524,),0,0,2
0:20.914,7529,(,0,0,0
0:21.022,7568,p,0,0,0
0:21.047,7577,),0,0,0
0:21.097,7595,(,0,0,1
0:21.161,7618,N,0,0,0
0:21.197,7631,),0,0,1
0:21.256,7652,(,0,0,2
0:21.361,7690,t,0,0,4
0:21.528,7750,t,0,0,4
0:21.575,7767,),0,0,2
0:21.761,7834,(,0,0,0
0:21.794,7846,p,0,0,0
0:21.833,7860,),0,0,0
0:21.911,7888,(,0,0,1
0:22.000,7920,N,0,0,0
0:22.033,7932,),0,0,1
0:22.083,7950,(,0,0,2
0:22.128,7966,t,0,0,4
0:22.392,8061,t,0,0,4
0:22.453,8083,),0,0,2
0:22.483,8094,(,0,0,0
0:22.506,8102,p,0,0,0
0:22.531,8111,),0,0,0
0:22.622,8144,(,0,0,1
0:22.725,8181,N,0,0,0
0:22.831,8219,),0,0,1
0:22.853,8227,(,0,0,2
0:23.050,8298,t,0,0,0
0:23.206,8354,),0,0,2
0:23.564,8483,(,0,0,0
0:23.589,8492,p,0,0,0
0:23.617,8502,),0,0,0
0:23.631,8507,(,0,0,1
0:23.683,8526,N,0,0,0
0:23.839,8582,),0,0,1
0:23.897,8603,(,0,0,2
0:23.983,8634,t,0,0,0
0:24.053,8659,),0,0,2
0:24.211,8716,(,0,0,0
0:24.308,8751,p,0,0,0
0:24.344,8764,),0,0,0
0:24.392,8781,(,0,0,1
0:24.533,8832,N,0,0,0
0:24.606,8858,),0,0,1
0:24.758,8913,(,0,0,2
0:24.806,8930,t,0,0,0
0:24.992,8997,),0,0,2
0:25.019,9007,(,0,0,0
0:25.139,9050,p,0,0,0
0:25.167,9060,),0,0,0
0:25.206,9074,(,0,0,1
0:25.350,9126,N,0,0,0
0:25.428,9154,),0,0,1
0:25.550,9198,(,0,0,2
0:25.639,9230,t,0,0,0
0:25.806,9290,),0,0,2
0:25.861,9310,(,0,0,0
0:25.875,9315,p,0,0,0
0:25.908,9327,),0,0,0
0:26.003,9361,(,0,0,1
0:26.156,9416,N,0,0,0
0:26.228,9442,),0,0,1
0:26.261,9454,(,0,0,2
0:26.453,9523,t,0,0,0
0:26.561,9562,),0,0,2
0:26.639,9590,(,0,0,0
0:26.756,9632,p,0,0,0
0:26.792,9645,),0,0,0
0:26.825,9657,(,0,0,1
0:26.883,9678,N,0,0,0
0:26.919,9691,),0,0,1
0:26.964,9707,(,0,0,2
0:27.117,9762,t,0,0,1
0:27.247,9809,),0,0,2
0:27.525,9909,(,0,0,0
0:27.564,9923,p,0,0,0
0:27.592,9933,),0,0,0
0:27.608,9939,(,0,0,1
0:27.639,9950,N,0,0,0
0:27.764,9995,),0,0,1
0:27.794,10006,(,0,0,2
0:27.956,10064,t,0,0,0
0:28.156,10136,),0,0,2
0:28.389,10220,(,0,0,0
0:28.417,10230,p,0,0,0
0:28.508,10263,),0,0,0
0:28.522,10268,N,0,0,0
0:28.522,10268,(,0,0,1
0:28.642,10311,),0,0,1
0:28.786,10363,(,0,0,2
0:28.808,10371,t,0,0,5
0:29.067,10464,t,0,0,5
0:29.086,10471,),0,0,2
0:29.097,10475,(,0,0,0
0:29.175,10503,p,0,0,0
0:29.250,10530,),0,0,0
0:29.256,10532,(,0,0,1
0:29.383,10578,N,0,0,0
0:29.450,10602,),0,0,1
0:29.614,10661,(,0,0,2
0:29.683,10686,t,0,0,0
0:29.967,10788,),0,0,2
0:30.056,10820,(,0,0,1
0:30.225,10881,N,0,0,0
0:30.281,10901,),0,0,1
0:30.303,10909,(,0,0,2
0:30.442,10959,t,0,0,0
0:30.653,11035,),0,0,2
0:30.883,11118,(,0,0,1
0:31.036,11173,N,0,0,0
0:31.108,11199,),0,0,1
0:31.136,11209,(,0,0,2
0:31.317,11274,t,0,0,0
0:31.475,11331,),0,0,2
0:31.706,11414,(,0,0,1
0:31.758,11433,N,0,0,0
0:31.794,11446,),0,0,1
0:31.900,11484,(,0,0,2
0:31.967,11508,t,0,0,4
0:32.125,11565,t,0,0,4
0:32.167,11580,),0,0,2
0:32.322,11636,(,0,0,0
0:32.378,11656,p,0,0,0
0:32.428,11674,),0,0,0
0:32.514,11705,(,0,0,1
0:32.569,11725,N,0,0,0
0:32.631,11747,),0,0,1
0:32.642,11751,(,0,0,2
0:32.778,11800,t,0,0,4
0:32.928,11854,t,0,0,4
0:33.022,11888,),0,0,2
0:33.319,11995,(,0,0,0
0:33.347,12005,p,0,0,0
0:33.372,12014,),0,0,0
0:33.392,12021,(,0,0,1
0:33.444,12040,N,0,0,0
0:33.561,12082,),0,0,1
0:33.619,12103,(,0,0,2
0:33.711,12136,t,0,0,0
0:33.819,12175,),0,0,2
0:34.092,12273,(,0,0,1
0:34.228,12322,N,0,0,0
0:34.289,12344,),0,0,1
0:34.325,12357,(,0,0,2
0:34.494,12418,t,0,0,0
0:34.597,12455,),0,0,2
0:34.694,12490,(,0,0,0
0:34.703,12493,p,0,0,0
0:34.761,12514,),0,0,0
0:34.858,12549,(,0,0,1
0:35.033,12612,N,0,0,0
0:35.119,12643,),0,0,1
0:35.136,12649,(,0,0,2
0:35.350,12726,t,0,0,0
0:35.500,12780,),0,0,2
0:35.750,12870,(,0,0,1
0:35.897,12923,N,0,0,0
0:35.958,12945,),0,0,1
0:35.981,12953,(,0,0,2
0:36.172,13022,t,0,0,0
0:36.342,13083,),0,0,2
0:36.578,13168,(,0,0,1
0:36.722,13220,N,0,0,0
0:36.778,13240,),0,0,1
0:36.800,13248,(,0,0,2
0:37.033,13332,t,0,0,0
0:37.153,13375,),0,0,2
0:37.167,13380,(,0,0,0
0:37.297,13427,p,0,0,0
0:37.308,13431,),0,0,0
0:37.397,13463,(,0,0,1
0:37.550,13518,N,0,0,0
0:37.619,13543,),0,0,1
0:37.656,13556,(,0,0,2
0:37.831,13619,t,0,0,5
0:37.978,13672,t,0,0,5
0:38.025,13689,),0,0,2
0:38.200,13752,(,0,0,1
0:38.283,13782,N,0,0,0
0:38.322,13796,),0,0,1
0:38.394,13822,(,0,0,2
0:38.431,13835,t,0,0,4
0:38.681,13925,t,0,0,4
0:38.728,13942,),0,0,2
0:38.908,14007,(,0,0,0
0:38.944,14020,p,0,0,0
0:38.992,14037,),0,0,0
0:39.017,14046,(,0,0,1
0:39.050,14058,N,0,0,0
0:39.217,14118,),0,0,1
0:39.356,14168,(,0,0,2
0:39.431,14195,t,0,0,5
0:39.553,14239,t,0,0,5
0:39.578,14248,),0,0,2
0:39.706,14294,(,0,0,0
0:39.739,14306,p,0,0,0
0:39.772,14318,),0,0,0
0:39.789,14324,(,0,0,1
0:39.928,14374,N,0,0,0
0:39.997,14399,),0,0,1
0:40.028,14410,(,0,0,2
0:40.183,14466,t,0,0,0
0:40.306,14510,),0,0,2
0:40.319,14515,(,0,0,0
0:40.358,14529,p,0,0,0
0:40.367,14532,),0,0,0
0:40.567,14604,(,0,0,1
0:40.708,14655,N,0,0,0
0:40.767,14676,),0,0,1
0:40.792,14685,(,0,0,2
0:41.011,14764,t,0,0,0
0:41.156,14816,),0,0,2
0:41.225,14841,(,0,0,0
0:41.294,14866,p,0,0,0
0:41.356,14888,),0,0,0
0:41.433,14916,(,0,0,1
0:41.578,14968,N,0,0,0
0:41.667,15000,),0,0,1
0:41.775,15039,(,0,0,2
0:41.867,15072,t,0,0,5
0:42.108,15159,t,0,0,5
0:42.133,15168,),0,0,2
0:42.144,15172,(,0,0,0
0:42.200,15192,p,0,0,0
0:42.228,15202,),0,0,0
0:42.264,15215,(,0,0,1
0:42.417,15270,N,0,0,0
0:42.494,15298,),0,0,1
0:42.622,15344,(,0,0,2
0:42.692,15369,t,0,0,0
0:42.778,15400,),0,0,2
0:42.917,15450,(,0,0,0
0:43.022,15488,p,0,0,0
0:43.042,15495,),0,0,0
0:43.083,15510,(,0,0,1
0:43.225,15561,N,0,0,0
0:43.289,15584,),0,0,1
0:43.331,15599,(,0,0,2
0:43.531,15671,t,0,0,0
0:43.619,15703,),0,0,2
0:43.669,15721,(,0,0,0
0:43.803,15769,p,0,0,0
0:43.828,15778,),0,0,0
0:43.878,15796,(,0,0,1
0:43.933,15816,N,0,0,0
0:43.964,15827,),0,0,1
0:44.044,15856,(,0,0,2
0:44.153,15895,t,0,0,4
0:44.300,15948,t,0,0,4
0:44.347,15965,),0,0,2
0:44.533,16032,(,0,0,0
0:44.583,16050,p,0,0,0
0:44.617,16062,),0,0,0
0:44.672,16082,(,0,0,1
0:44.767,16116,N,0,0,0
0:44.831,16139,),0,0,1
0:44.922,16172,(,0,0,2
0:44.958,16185,t,0,0,4
0:45.142,16251,t,0,0,4
0:45.172,16262,),0,0,2
0:45.367,16332,(,0,0,0
0:45.417,16350,p,0,0,0
0:45.517,16386,),0,0,0
0:45.556,16400,(,0,0,1
0:45.628,16426,N,0,0,0
0:45.678,16444,),0,0,1
0:45.700,16452,(,0,0,2
0:45.906,16526,t,0,0,0
0:46.033,16572,),0,0,2
0:46.139,16610,(,0,0,0
0:46.178,16624,p,0,0,0
0:46.197,16631,),0,0,0
0:46.247,16649,(,0,0,1
0:46.411,16708,N,0,0,0
0:46.478,16732,),0,0,1
0:46.503,16741,(,0,0,2
0:46.689,16808,t,0,0,0
0:46.806,16850,),0,0,2
0:47.086,16951,(,0,0,1
0:47.247,17009,N,0,0,0
0:47.308,17031,),0,0,1
0:47.314,17033,(,0,0,2
0:47.550,17118,t,0,0,0
0:47.725,17181,),0,0,2
0:47.761,17194,(,0,0,0
0:47.814,17213,p,0,0,0
0:47.833,17220,),0,0,0
0:47.928,17254,(,0,0,1
0:48.097,17315,N,0,0,0
0:48.175,17343,),0,0,1
0:48.236,17365,(,0,0,2
0:48.392,17421,t,0,0,0
0:48.572,17486,),0,0,2
0:48.592,17493,(,0,0,0
0:48.706,17534,p,0,0,0
0:48.725,17541,),0,0,0
0:48.769,17557,(,0,0,1
0:48.914,17609,N,0,0,0
0:49.000,17640,),0,0,1
0:49.158,17697,(,0,0,2
0:49.214,17717,t,0,0,0
0:49.353,17767,),0,0,2
0:49.489,17816,(,0,0,0
0:49.519,17827,p,0,0,0
0:49.550,17838,),0,0,0
0:49.583,17850,(,0,0,1
0:49.733,17904,N,0,0,0
0:49.806,17930,),0,0,1
0:49.861,17950,(,0,0,2
0:50.006,18002,t,0,0,0
0:50.167,18060,),0,0,2
0:50.192,18069,(,0,0,0
0:50.236,18085,p,0,0,0
0:50.300,18108,),0,0,0
0:50.369,18133,(,0,0,1
0:50.469,18169,N,0,0,0
0:50.528,18190,),0,0,1
0:50.539,18194,(,0,0,2
0:50.683,18246,t,0,0,4
0:50.858,18309,t,0,0,4
0:50.897,18323,),0,0,2
0:51.119,18403,(,0,0,0
0:51.161,18418,p,0,0,0
0:51.186,18427,),0,0,0
0:51.200,18432,(,0,0,1
0:51.231,18443,N,0,0,0
0:51.342,18483,),0,0,1
0:51.367,18492,(,0,0,2
0:51.594,18574,t,0,0,0
0:51.714,18617,),0,0,2
0:51.975,18711,(,0,0,1
0:52.106,18758,N,0,0,0
0:52.178,18784,),0,0,1
0:52.206,18794,(,0,0,2
0:52.353,18847,t,0,0,0
0:52.489,18896,),0,0,2
0:52.753,18991,(,0,0,1
0:52.903,19045,N,0,0,0
0:52.983,19074,),0,0,1
0:53.019,19087,(,0,0,2
0:53.208,19155,t,0,0,0
0:53.336,19201,),0,0,2
0:53.431,19235,(,0,0,0
0:53.553,19279,p,0,0,0
0:53.567,19284,),0,0,0
0:53.606,19298,(,0,0,1
0:53.761,19354,N,0,0,0
0:53.822,19376,),0,0,1
0:53.847,19385,(,0,0,2
0:53.978,19432,t,0,0,0
0:54.208,19515,),0,0,2
0:54.233,19524,(,0,0,0
0:54.331,19559,p,0,0,0
0:54.350,19566,),0,0,0
0:54.447,19601,(,0,0,1
0:54.586,19651,N,0,0,0
0:54.664,19679,),0,0,1
0:54.786,19723,(,0,0,2
0:54.872,19754,t,0,0,0
0:55.042,19815,),0,0,2
0:55.261,19894,(,0,0,1
0:55.408,19947,N,0,0,0
0:55.494,19978,),0,0,1
0:55.564,20003,(,0,0,2
0:55.706,20054,t,0,0,0
0:55.764,20075,),0,0,2
0:55.800,20088,(,0,0,0
0:55.853,20107,p,0,0,0
0:55.906,20126,),0,0,0
0:56.022,20168,(,0,0,1
0:56.078,20188,N,0,0,0
0:56.119,20203,),0,0,1
0:56.192,20229,(,0,0,2
0:56.267,20256,t,0,0,4
0:56.489,20336,t,0,0,4
0:56.542,20355,),0,0,2
0:56.658,20397,(,0,0,0
0:56.714,20417,p,0,0,0
0:56.756,20432,),0,0,0
0:56.853,20467,(,0,0,1
0:56.922,20492,N,0,0,0
0:56.956,20504,),0,0,1
0:56.997,20519,(,0,0,2
0:57.144,20572,t,0,0,4
0:57.308,20631,t,0,0,4
0:57.397,20663,),0,0,2
0:57.556,20720,(,0,0,0
0:57.603,20737,p,0,0,0
0:57.639,20750,),0,0,0
0:57.661,20758,(,0,0,1
0:57.786,20803,N,0,0,0
0:57.847,20825,),0,0,1
0:58.289,20984,(,0,0,0
0:58.314,20993,p,0,0,0
0:58.331,20999,),0,0,0
0:58.419,21031,(,0,0,1
0:58.592,21093,N,0,0,0
0:58.656,21116,),0,0,1
0:58.683,21126,(,0,0,2
0:58.853,21187,t,0,0,0
0:58.997,21239,),0,0,2
0:59.144,21292,(,0,0,0
0:59.164,21299,p,0,0,0
0:59.197,21311,),0,0,0
0:59.256,21332,(,0,0,1
0:59.456,21404,N,0,0,0
0:59.531,21431,),0,0,1
0:59.603,21457,(,0,0,2
0:59.744,21508,t,0,0,0
0:59.833,21540,),0,0,2
0:59.925,21573,(,0,0,0
1:00.006,21602,p,0,0,0
1:00.075,21627,),0,0,0
1:00.136,21649,(,0,0,1
1:00.292,21705,N,0,0,0
1:00.353,21727,),0,0,1
1:00.392,21741,(,0,0,2
1:00.489,21776,t,0,0,0
1:00.736,21865,),0,0,2
1:00.769,21877,(,0,0,0
1:00.847,21905,p,0,0,0
1:00.869,21913,),0,0,0
1:00.950,21942,(,0,0,1
1:01.092,21993,N,0,0,0
1:01.169,22021,),0,0,1
1:01.247,22049,(,0,0,2
1:01.325,22077,t,0,0,5
1:01.608,22179,t,0,0,5
1:01.625,22185,),0,0,2
1:01.694,22210,(,0,0,0
1:01.717,22218,p,0,0,0
1:01.733,22224,),0,0,0
1:01.772,22238,(,0,0,1
1:01.894,22282,N,0,0,0
1:01.969,22309,),0,0,1
1:02.039,22334,(,0,0,2
1:02.067,22344,t,0,0,5
1:02.492,22497,t,0,0,5
1:02.514,22505,),0,0,2
1:02.544,22516,(,0,0,0
1:02.583,22530,p,0,0,0
1:02.625,22545,),0,0,0
1:02.767,22596,(,0,0,1
1:02.847,22625,N,0,0,0
1:02.947,22661,),0,0,1
1:03.053,22699,(,0,0,2
1:03.078,22708,t,0,0,0
1:03.103,22717,),0,0,2
1:03.300,22788,(,0,0,1
1:03.411,22828,N,0,0,0
1:03.561,22882,),0,0,1
1:03.692,22929,(,0,0,2
1:03.711,22936,t,0,0,1
1:03.739,22946,),0,0,2
1:04.050,23058,(,0,0,0
1:04.072,23066,p,0,0,0
1:04.089,23072,),0,0,0
1:04.142,23091,(,0,0,1
1:04.167,23100,N,0,0,0
1:04.281,23141,),0,0,1
1:04.883,23358,(,0,0,0
1:04.922,23372,p,0,0,0
1:04.981,23393,),0,0,0
1:05.011,23404,(,0,0,1
1:05.089,23432,N,0,0,0
1:05.219,23479,),0,0,1
1:05.308,23511,(,0,0,2
1:05.383,23538,t,0,0,0
1:05.469,23569,),0,0,2
1:05.803,23689,(,0,0,0
1:05.831,23699,p,0,0,0
1:05.844,23704,),0,0,0
1:05.881,23717,(,0,0,1
1:05.944,23740,N,0,0,0
1:06.064,23783,),0,0,1
1:06.200,23832,(,0,0,2
1:06.233,23844,t,0,0,0
1:06.389,23900,),0,0,2
1:06.417,23910,(,0,0,0
1:06.500,23940,p,0,0,0
1:06.569,23965,),0,0,0
1:06.614,23981,(,0,0,1
1:06.769,24037,N,0,0,0
1:06.836,24061,),0,0,1
1:06.861,24070,(,0,0,2
1:07.003,24121,t,0,0,0
1:07.267,24216,),0,0,2
1:07.461,24286,(,0,0,1
1:07.608,24339,N,0,0,0
1:07.672,24362,),0,0,1
1:07.703,24373,(,0,0,2
1:07.889,24440,t,0,0,0
1:08.044,24496,),0,0,2
1:08.267,24576,(,0,0,1
1:08.403,24625,N,0,0,0
1:08.472,24650,),0,0,1
1:08.497,24659,(,0,0,2
1:08.683,24726,t,0,0,0
1:08.783,24762,),0,0,2
1:08.856,24788,(,0,0,0
1:08.936,24817,p,0,0,0
1:09.025,24849,),0,0,0
1:09.050,24858,(,0,0,1
1:09.103,24877,N,0,0,0
1:09.133,24888,),0,0,1
1:09.167,24900,(,0,0,2
1:09.314,24953,t,0,0,4
1:09.486,25015,t,0,0,4
1:09.550,25038,),0,0,2
1:09.717,25098,(,0,0,0
1:09.756,25112,p,0,0,0
1:09.786,25123,),0,0,0
1:09.836,25141,(,0,0,1
1:09.936,25177,N,0,0,0
1:09.992,25197,),0,0,1
1:10.008,25203,(,0,0,2
1:10.111,25240,t,0,0,4
1:10.278,25300,t,0,0,4
1:10.350,25326,),0,0,2
1:10.614,25421,(,0,0,1
1:10.772,25478,N,0,0,0
1:10.836,25501,),0,0,1
1:10.861,25510,(,0,0,2
1:11.058,25581,t,0,0,0
1:11.239,25646,),0,0,2
1:11.453,25723,(,0,0,1
1:11.622,25784,N,0,0,0
1:11.683,25806,),0,0,1
1:11.706,25814,(,0,0,2
1:11.925,25893,t,0,0,0
1:12.081,25949,),0,0,2
1:12.308,26031,(,0,0,1
1:12.450,26082,N,0,0,0
1:12.536,26113,),0,0,1
1:12.653,26155,(,0,0,2
1:12.742,26187,t,0,0,0
1:12.872,26234,),0,0,2
1:13.125,26325,(,0,0,1
1:13.278,26380,N,0,0,0
1:13.342,26403,),0,0,1
1:13.383,26418,(,0,0,2
1:13.550,26478,t,0,0,0
1:13.675,26523,),0,0,2
1:13.747,26549,(,0,0,0
1:13.875,26595,p,0,0,0
1:13.900,26604,),0,0,0
1:13.942,26619,(,0,0,1
1:14.089,26672,N,0,0,0
1:14.167,26700,),0,0,1
1:14.292,26745,(,0,0,2
1:14.364,26771,t,0,0,0
1:14.514,26825,),0,0,2
1:14.525,26829,(,0,0,0
1:14.672,26882,p,0,0,0
1:14.692,26889,),0,0,0
1:14.750,26910,(,0,0,1
1:14.897,26963,N,0,0,0
1:14.975,26991,),0,0,1
1:15.081,27029,(,0,0,2
1:15.169,27061,t,0,0,0
1:15.217,27078,),0,0,2
1:15.247,27089,(,0,0,0
1:15.333,27120,p,0,0,0
1:15.344,27124,),0,0,0
1:15.458,27165,(,0,0,1
1:15.508,27183,N,0,0,0
1:15.569,27205,),0,0,1
1:15.628,27226,(,0,0,2
1:15.714,27257,t,0,0,1
1:15.869,27313,),0,0,2
1:16.142,27411,(,0,0,0
1:16.175,27423,p,0,0,0
1:16.206,27434,),0,0,0
1:16.272,27458,(,0,0,1
1:16.356,27488,N,0,0,0
1:16.417,27510,),0,0,1
1:16.436,27517,(,0,0,2
1:16.569,27565,t,0,0,4
1:16.739,27626,t,0,0,4
1:16.797,27647,),0,0,2
1:16.997,27719,(,0,0,0
1:17.022,27728,p,0,0,0
1:17.078,27748,),0,0,0
1:17.125,27765,(,0,0,1
1:17.158,27777,N,0,0,0
1:17.294,27826,),0,0,1
1:17.322,27836,(,0,0,2
1:17.522,27908,t,0,0,0
1:17.675,27963,),0,0,2
1:17.689,27968,(,0,0,0
1:17.731,27983,p,0,0,0
1:17.772,27998,),0,0,0
1:17.950,28062,(,0,0,1
1:18.119,28123,N,0,0,0
1:18.194,28150,),0,0,1
1:18.247,28169,(,0,0,2
1:18.339,28202,t,0,0,0
1:18.550,28278,),0,0,2
1:18.589,28292,(,0,0,0
1:18.700,28332,p,0,0,0
1:18.714,28337,),0,0,0
1:18.797,28367,(,0,0,1
1:18.928,28414,N,0,0,0
1:18.994,28438,),0,0,1
1:19.036,28453,(,0,0,2
1:19.231,28523,t,0,0,0
1:19.358,28569,),0,0,2
1:19.611,28660,(,0,0,1
1:19.750,28710,N,0,0,0
1:19.831,28739,),0,0,1
1:19.947,28781,(,0,0,2
1:20.025,28809,t,0,0,0
1:20.181,28865,),0,0,2
1:20.225,28881,(,0,0,0
1:20.294,28906,p,0,0,0
1:20.342,28923,),0,0,0
1:20.411,28948,(,0,0,1
1:20.553,28999,N,0,0,0
1:20.628,29026,),0,0,1
1:20.694,29050,(,0,0,2
1:20.811,29092,t,0,0,0
1:21.067,29184,),0,0,2
1:21.197,29231,(,0,0,1
1:21.344,29284,N,0,0,0
1:21.422,29312,),0,0,1
1:21.456,29324,(,0,0,2
1:21.631,29387,t,0,0,0
1:21.736,29425,),0,0,2
1:21.942,29499,(,0,0,1
1:21.992,29517,N,0,0,0
1:22.031,29531,),0,0,1
1:22.058,29541,(,0,0,2
1:22.214,29597,t,0,0,4
1:22.364,29651,t,0,0,4
1:22.428,29674,),0,0,2
1:22.547,29717,(,0,0,0
1:22.608,29739,p,0,0,0
1:22.642,29751,),0,0,0
1:22.747,29789,(,0,0,1
1:22.808,29811,N,0,0,0
1:22.844,29824,),0,0,1
1:22.867,29832,(,0,0,2
1:23.033,29892,t,0,0,4
1:23.203,29953,t,0,0,4
1:23.228,29962,),0,0,2
1:23.478,30052,(,0,0,0
1:23.542,30075,p,0,0,0
1:23.575,30087,),0,0,0
1:23.631,30107,(,0,0,1
1:23.728,30142,N,0,0,0
1:23.767,30156,),0,0,1
1:23.811,30172,(,0,0,2
1:23.983,30234,t,0,0,4
1:24.125,30285,t,0,0,4
1:24.153,30295,),0,0,2
1:24.333,30360,(,0,0,0
1:24.369,30373,p,0,0,0
1:24.431,30395,),0,0,0
1:24.469,30409,(,0,0,1
1:24.500,30420,N,0,0,0
1:24.639,30470,),0,0,1
1:24.656,30476,(,0,0,2
1:24.867,30552,t,0,0,0
1:24.997,30599,),0,0,2
1:25.289,30704,(,0,0,1
1:25.325,30717,N,0,0,0
1:25.522,30788,),0,0,1
1:25.547,30797,(,0,0,2
1:25.681,30845,t,0,0,0
1:25.828,30898,),0,0,2
1:26.106,30998,(,0,0,1
1:26.242,31047,N,0,0,0
1:26.319,31075,),0,0,1
1:26.344,31084,(,0,0,2
1:26.519,31147,t,0,0,0
1:26.656,31196,),0,0,2
1:26.878,31276,(,0,0,1
1:27.044,31336,N,0,0,0
1:27.117,31362,),0,0,1
1:27.206,31394,(,0,0,2
1:27.303,31429,t,0,0,0
1:27.514,31505,),0,0,2
1:27.678,31564,(,0,0,1
1:27.814,31613,N,0,0,0
1:27.881,31637,),0,0,1
1:27.914,31649,(,0,0,2
1:28.025,31689,t,0,0,0
1:28.200,31752,),0,0,2
1:28.325,31797,(,0,0,0
1:28.386,31819,p,0,0,0
1:28.431,31835,),0,0,0
1:28.464,31847,(,0,0,1
1:28.603,31897,N,0,0,0
1:28.678,31924,),0,0,1
1:28.797,31967,(,0,0,2
1:28.878,31996,t,0,0,0
1:29.031,32051,),0,0,2
1:29.300,32148,(,0,0,1
1:29.450,32202,N,0,0,0
1:29.528,32230,),0,0,1
1:29.553,32239,(,0,0,2
1:29.750,32310,t,0,0,0
1:29.867,32352,),0,0,2
1:30.067,32424,(,0,0,1
1:30.122,32444,N,0,0,0
1:30.158,32457,),0,0,1
1:30.250,32490,(,0,0,2
1:30.333,32520,t,0,0,4
1:30.517,32586,t,0,0,4
1:30.561,32602,),0,0,2
1:30.686,32647,(,0,0,0
1:30.739,32666,p,0,0,0
1:30.783,32682,),0,0,0
1:30.872,32714,(,0,0,1
1:30.925,32733,N,0,0,0
1:30.961,32746,),0,0,1
1:31.069,32785,(,0,0,2
1:31.117,32802,t,0,0,4
1:31.303,32869,t,0,0,4
1:31.406,32906,),0,0,2
1:31.600,32976,(,0,0,0
1:31.650,32994,p,0,0,0
1:31.681,33005,),0,0,0
1:31.708,33015,(,0,0,1
1:31.828,33058,N,0,0,0
1:31.864,33071,),0,0,1
1:31.900,33084,(,0,0,2
1:32.064,33143,t,0,0,4
1:32.200,33192,t,0,0,4
1:32.317,33234,),0,0,2
1:32.461,33286,(,0,0,0
1:32.506,33302,p,0,0,0
1:32.536,33313,),0,0,0
1:32.553,33319,(,0,0,1
1:32.586,33331,N,0,0,0
1:32.708,33375,),0,0,1
1:32.736,33385,(,0,0,2
1:32.967,33468,t,0,0,0
1:33.069,33505,),0,0,2
1:33.128,33526,(,0,0,0
1:33.144,33532,p,0,0,0
1:33.186,33547,),0,0,0
1:33.325,33597,(,0,0,1
1:33.483,33654,N,0,0,0
1:33.544,33676,),0,0,1
1:33.589,33692,(,0,0,2
1:33.744,33748,t,0,0,0
1:33.856,33788,),0,0,2
1:34.117,33882,(,0,0,1
1:34.256,33932,N,0,0,0
1:34.331,33959,),0,0,1
1:34.361,33970,(,0,0,2
1:34.519,34027,t,0,0,0
1:34.658,34077,),0,0,2
1:34.939,34178,(,0,0,1
1:35.094,34234,N,0,0,0
1:35.167,34260,),0,0,1
1:35.192,34269,(,0,0,2
1:35.383,34338,t,0,0,0
1:35.553,34399,),0,0,2
1:35.786,34483,(,0,0,1
1:35.933,34536,N,0,0,0
1:36.014,34565,),0,0,1
1:36.042,34575,(,0,0,2
1:36.153,34615,t,0,0,0
1:36.381,34697,),0,0,2
1:36.606,34778,(,0,0,1
1:36.753,34831,N,0,0,0
1:36.833,34860,),0,0,1
1:36.947,34901,(,0,0,2
1:37.019,34927,t,0,0,0
1:37.186,34987,),0,0,2
1:37.436,35077,(,0,0,1
1:37.572,35126,N,0,0,0
1:37.639,35150,),0,0,1
1:37.667,35160,(,0,0,2
1:37.839,35222,t,0,0,0
1:37.908,35247,),0,0,2
1:37.944,35260,(,0,0,0
1:37.964,35267,p,0,0,0
1:38.086,35311,),0,0,0
1:38.164,35339,(,0,0,1
1:38.217,35358,N,0,0,0
1:38.250,35370,),0,0,1
1:38.314,35393,(,0,0,2
1:38.431,35435,t,0,0,1
1:38.583,35490,),0,0,2
1:39.008,35643,(,0,0,1
1:39.056,35660,N,0,0,0
1:39.094,35674,),0,0,1
1:39.136,35689,(,0,0,2
1:39.267,35736,t,0,0,4
1:39.406,35786,t,0,0,4
1:39.494,35818,),0,0,2
1:39.689,35888,(,0,0,0
1:39.739,35906,p,0,0,0
1:39.772,35918,),0,0,0
1:39.789,35924,(,0,0,1
1:39.822,35936,N,0,0,0
1:39.972,35990,),0,0,1
1:40.114,36041,(,0,0,2
1:40.200,36072,t,0,0,0
1:40.292,36105,),0,0,2
1:40.575,36207,(,0,0,1
1:40.725,36261,N,0,0,0
1:40.794,36286,),0,0,1
1:40.839,36302,(,0,0,2
1:41.008,36363,t,0,0,0
1:41.161,36418,),0,0,2
1:41.422,36512,(,0,0,1
1:41.581,36569,N,0,0,0
1:41.633,36588,),0,0,1
1:41.661,36598,(,0,0,2
1:41.872,36674,t,0,0,0
1:41.983,36714,),0,0,2
1:42.122,36764,(,0,0,0
1:42.194,36790,p,0,0,0
1:42.231,36803,),0,0,0
1:42.258,36813,(,0,0,1
1:42.400,36864,N,0,0,0
1:42.486,36895,),0,0,1
1:42.547,36917,(,0,0,2
1:42.681,36965,t,0,0,5
1:42.856,37028,t,0,0,5
1:42.875,37035,),0,0,2
1:43.044,37096,(,0,0,1
1:43.231,37163,N,0,0,0
1:43.297,37187,),0,0,1
1:43.336,37201,(,0,0,2
1:43.469,37249,t,0,0,0
1:43.628,37306,),0,0,2
1:43.811,37372,(,0,0,0
1:43.831,37379,p,0,0,0
1:43.856,37388,),0,0,0
1:43.875,37395,(,0,0,1
1:44.036,37453,N,0,0,0
1:44.117,37482,),0,0,1
1:44.253,37531,(,0,0,2
1:44.314,37553,t,0,0,0
1:44.436,37597,),0,0,2
1:44.508,37623,(,0,0,0
1:44.572,37646,p,0,0,0
1:44.622,37664,),0,0,0
1:44.711,37696,(,0,0,1
1:44.850,37746,N,0,0,0
1:44.919,37771,),0,0,1
1:45.031,37811,(,0,0,2
1:45.106,37838,t,0,0,0
1:45.186,37867,),0,0,2
1:45.244,37888,(,0,0,0
1:45.383,37938,p,0,0,0
1:45.406,37946,),0,0,0
1:45.431,37955,(,0,0,1
1:45.489,37976,N,0,0,0
1:45.550,37998,),0,0,1
1:45.619,38023,(,0,0,2
1:45.700,38052,t,0,0,4
1:45.853,38107,t,0,0,4
1:45.911,38128,),0,0,2
1:46.092,38193,(,0,0,0
1:46.136,38209,p,0,0,0
1:46.172,38222,),0,0,0
1:46.244,38248,(,0,0,1
1:46.325,38277,N,0,0,0
1:46.397,38303,),0,0,1
1:46.414,38309,(,0,0,2
1:46.544,38356,t,0,0,4
1:46.722,38420,t,0,0,4
1:46.808,38451,),0,0,2
1:46.986,38515,(,0,0,0
1:47.011,38524,p,0,0,0
1:47.072,38546,),0,0,0
1:47.081,38549,(,0,0,1
1:47.244,38608,N,0,0,0
1:47.300,38628,),0,0,1
1:47.319,38635,(,0,0,2
1:47.508,38703,t,0,0,0
1:47.658,38757,),0,0,2
1:47.736,38785,(,0,0,0
1:47.792,38805,p,0,0,0
1:47.833,38820,),0,0,0
1:47.928,38854,(,0,0,1
1:48.078,38908,N,0,0,0
1:48.150,38934,),0,0,1
1:48.181,38945,(,0,0,2
1:48.328,38998,t,0,0,0
1:48.467,39048,),0,0,2
1:48.508,39063,(,0,0,0
1:48.525,39069,p,0,0,0
1:48.553,39079,),0,0,0
1:48.722,39140,(,0,0,1
1:48.889,39200,N,0,0,0
1:48.958,39225,),0,0,1
1:48.997,39239,(,0,0,2
1:49.103,39277,t,0,0,0
1:49.339,39362,),0,0,2
1:49.350,39366,(,0,0,0
1:49.367,39372,p,0,0,0
1:49.464,39407,),0,0,0
1:49.556,39440,(,0,0,1
1:49.714,39497,N,0,0,0
1:49.794,39526,),0,0,1
1:49.819,39535,(,0,0,2
1:49.939,39578,t,0,0,0
1:50.181,39665,),0,0,2
1:50.261,39694,(,0,0,0
1:50.269,39697,p,0,0,0
1:50.300,39708,),0,0,0
1:50.383,39738,(,0,0,1
1:50.528,39790,N,0,0,0
1:50.594,39814,),0,0,1
1:50.631,39827,(,0,0,2
1:50.808,39891,t,0,0,0
1:50.972,39950,),0,0,2
1:51.169,40021,(,0,0,1
1:51.311,40072,N,0,0,0
1:51.386,40099,),0,0,1
1:51.417,40110,(,0,0,2
1:51.592,40173,t,0,0,0
1:51.667,40200,),0,0,2
1:51.700,40212,(,0,0,0
1:51.725,40221,p,0,0,0
1:51.853,40267,),0,0,0
1:51.872,40274,(,0,0,1
1:51.947,40301,N,0,0,0
1:52.003,40321,),0,0,1
1:52.042,40335,(,0,0,2
1:52.172,40382,t,0,0,1
1:52.300,40428,),0,0,2
1:52.553,40519,(,0,0,0
1:52.586,40531,p,0,0,0
1:52.639,40550,),0,0,0
1:52.719,40579,(,0,0,1
1:52.794,40606,N,0,0,0
1:52.850,40626,),0,0,1
1:52.922,40652,(,0,0,2
1:52.972,40670,t,0,0,4
1:53.183,40746,t,0,0,4
1:53.250,40770,),0,0,2
1:53.444,40840,(,0,0,0
1:53.478,40852,p,0,0,0
1:53.536,40873,),0,0,0
1:53.553,40879,(,0,0,1
1:53.636,40909,N,0,0,0
1:53.656,40916,),0,0,1
1:53.725,40941,(,0,0,2
1:53.742,40947,t,0,0,5
1:53.778,40960,t,0,0,5
1:53.836,40981,),0,0,2
1:54.231,41123,(,0,0,0
1:54.300,41148,p,0,0,0
1:54.367,41172,),0,0,0
1:54.406,41186,(,0,0,1
1:54.575,41247,N,0,0,0
1:54.642,41271,),0,0,1
1:54.683,41286,(,0,0,2
1:54.831,41339,t,0,0,5
1:55.133,41448,t,0,0,5
1:55.156,41456,),0,0,2
1:55.200,41472,(,0,0,0
1:55.222,41480,p,0,0,0
1:55.244,41488,),0,0,0
1:55.272,41498,(,0,0,1
1:55.414,41549,N,0,0,0
1:55.478,41572,),0,0,1
1:55.797,41687,(,0,0,2
1:55.828,41698,t,0,0,1
1:55.850,41706,),0,0,2
1:56.083,41790,(,0,0,0
1:56.111,41800,p,0,0,0
1:56.122,41804,),0,0,0
1:56.156,41816,(,0,0,1
1:56.217,41838,N,0,0,0
1:56.397,41903,),0,0,1
1:56.611,41980,(,0,0,2
1:56.642,41991,t,0,0,1
1:56.664,41999,),0,0,2
1:56.769,42037,(,0,0,0
1:56.819,42055,p,0,0,0
1:56.850,42066,),0,0,0
1:56.869,42073,(,0,0,1
1:57.025,42129,N,0,0,0
1:57.064,42143,),0,0,1
1:57.331,42239,(,0,0,2
1:57.361,42250,t,0,0,1
1:57.383,42258,),0,0,2
1:57.472,42290,(,0,0,0
1:57.503,42301,p,0,0,0
1:57.539,42314,),0,0,0
1:57.672,42362,(,0,0,1
1:57.786,42403,N,0,0,0
1:57.847,42425,),0,0,1
1:57.944,42460,(,0,0,2
1:58.044,42496,t,0,0,0
1:58.142,42531,),0,0,2
1:58.169,42541,(,0,0,0
1:58.247,42569,p,0,0,0
1:58.264,42575,),0,0,0
1:58.392,42621,(,0,0,1
1:58.572,42686,N,0,0,0
1:58.667,42720,),0,0,1
1:58.856,42788,(,0,0,2
1:58.900,42804,t,0,0,0
1:58.983,42834,),0,0,2
1:59.089,42872,(,0,0,0
1:59.111,42880,p,0,0,0
1:59.144,42892,),0,0,0
1:59.231,42923,(,0,0,1
1:59.308,42951,N,0,0,0
1:59.358,42969,),0,0,1
1:59.500,43020,(,0,0,2
1:59.550,43038,t,0,0,1
1:59.694,43090,),0,0,2
1:59.875,43155,(,0,0,0
1:59.922,43172,p,0,0,0
1:59.978,43192,),0,0,0
2:00.036,43213,(,0,0,1
2:00.117,43242,N,0,0,0
2:00.181,43265,),0,0,1
2:00.269,43297,(,0,0,2
2:00.303,43309,t,0,0,4
2:00.489,43376,t,0,0,4
2:00.519,43387,),0,0,2
2:00.753,43471,(,0,0,0
2:00.800,43488,p,0,0,0
2:00.836,43501,),0,0,0
2:00.925,43533,(,0,0,1
2:00.989,43556,N,0,0,0
2:01.058,43581,),0,0,1
2:01.125,43605,(,0,0,2
2:01.169,43621,t,0,0,4
2:01.433,43716,t,0,0,4
2:01.478,43732,),0,0,2
2:01.678,43804,(,0,0,1
2:01.783,43842,N,0,0,0
2:01.900,43884,),0,0,1
2:01.936,43897,(,0,0,2
2:02.069,43945,t,0,0,0
2:02.264,44015,),0,0,2
2:02.411,44068,(,0,0,0
2:02.433,44076,p,0,0,0
2:02.453,44083,),0,0,0
2:02.583,44130,(,0,0,1
2:02.697,44171,N,0,0,0
2:02.869,44233,),0,0,1
2:03.014,44285,(,0,0,2
2:03.072,44306,t,0,0,1
2:03.094,44314,),0,0,2
2:03.319,44395,(,0,0,0
2:03.336,44401,p,0,0,0
2:03.372,44414,),0,0,0
2:03.422,44432,(,0,0,1
2:03.481,44453,N,0,0,0
2:03.689,44528,),0,0,1
2:03.747,44549,(,0,0,2
2:03.775,44559,t,0,0,0
2:03.844,44584,),0,0,2
2:03.853,44587,(,0,0,0
2:03.900,44604,p,0,0,0
2:03.964,44627,),0,0,0
2:04.103,44677,(,0,0,1
2:04.261,44734,N,0,0,0
2:04.339,44762,),0,0,1
2:04.589,44852,(,0,0,2
2:04.633,44868,t,0,0,1
2:04.653,44875,),0,0,2
2:04.822,44936,(,0,0,0
2:04.842,44943,p,0,0,0
2:04.858,44949,),0,0,0
2:04.978,44992,(,0,0,1
2:05.103,45037,N,0,0,0
2:05.231,45083,),0,0,1
2:05.292,45105,(,0,0,2
2:05.472,45170,t,0,0,0
2:05.661,45238,),0,0,2
2:05.814,45293,(,0,0,0
2:05.842,45303,p,0,0,0
2:05.864,45311,),0,0,0
2:05.908,45327,(,0,0,1
2:05.950,45342,N,0,0,0
2:06.183,45426,),0,0,1
2:06.311,45472,(,0,0,2
2:06.328,45478,t,0,0,0
2:06.364,45491,),0,0,2
2:06.628,45586,(,0,0,0
2:06.656,45596,p,0,0,0
2:06.750,45630,),0,0,0
2:06.764,45635,N,0,0,0
2:06.764,45635,(,0,0,1
2:06.867,45672,),0,0,1
2:07.083,45750,(,0,0,2
2:07.114,45761,t,0,0,1
2:07.133,45768,),0,0,2
2:07.250,45810,(,0,0,0
2:07.278,45820,p,0,0,0
2:07.300,45828,),0,0,0
2:07.442,45879,(,0,0,1
2:07.583,45930,N,0,0,0
2:07.644,45952,),0,0,1
2:07.761,45994,(,0,0,2
2:07.792,46005,t,0,0,5
2:07.975,46071,t,0,0,5
2:08.000,46080,),0,0,2
2:08.217,46158,(,0,0,1
2:08.275,46179,N,0,0,0
2:08.386,46219,),0,0,1
2:08.433,46236,(,0,0,2
2:08.472,46250,t,0,0,4
2:08.694,46330,t,0,0,4
2:08.719,46339,),0,0,2
2:08.853,46387,(,0,0,0
2:08.872,46394,p,0,0,0
2:08.897,46403,),0,0,0
2:08.992,46437,(,0,0,1
2:09.042,46455,N,0,0,0
2:09.106,46478,),0,0,1
2:09.167,46500,(,0,0,2
2:09.219,46519,t,0,0,1
2:09.406,46586,),0,0,2
2:09.633,46668,(,0,0,0
2:09.658,46677,p,0,0,0
2:09.689,46688,),0,0,0
2:09.794,46726,(,0,0,1
2:09.844,46744,N,0,0,0
2:09.906,46766,),0,0,1
2:09.936,46777,(,0,0,2
2:10.017,46806,t,0,0,1
2:10.192,46869,),0,0,2
2:10.531,46991,(,0,0,0
2:10.556,47000,p,0,0,0
2:10.583,47010,),0,0,0
2:10.600,47016,(,0,0,1
2:10.644,47032,N,0,0,0
2:10.800,47088,),0,0,1
2:11.050,47178,(,0,0,2
2:11.072,47186,t,0,0,0
2:11.114,47201,),0,0,2
2:11.464,47327,(,0,0,0
2:11.492,47337,p,0,0,0
2:11.531,47351,),0,0,0
2:11.597,47375,N,0,0,0
2:11.597,47375,(,0,0,1
2:11.803,47449,),0,0,1
2:11.908,47487,(,0,0,2
2:12.028,47530,t,0,0,1
2:12.092,47553,),0,0,2
2:12.106,47558,(,0,0,0
2:12.197,47591,p,0,0,0
2:12.264,47615,),0,0,0
2:12.297,47627,(,0,0,1
2:12.422,47672,N,0,0,0
2:12.497,47699,),0,0,1
2:12.872,47834,(,0,0,2
2:12.914,47849,t,0,0,0
2:12.953,47863,),0,0,2
2:12.992,47877,(,0,0,0
2:13.008,47883,p,0,0,0
2:13.028,47890,),0,0,0
2:13.111,47920,(,0,0,1
2:13.125,47925,(,0,0,0
2:13.150,47934,p,0,0,0
2:13.175,47943,),0,0,0
2:13.233,47964,(,0,0,1
2:13.264,47975,N,0,0,0
2:13.322,47996,N,0,0,0
2:13.356,48008,),0,0,1
2:13.425,48033,(,0,0,0
2:13.442,48039,),0,0,1
2:13.472,48050,p,0,0,0
2:13.514,48065,),0,0,0
2:13.633,48108,(,0,0,1
2:13.664,48119,N,0,0,0
2:13.692,48129,),0,0,1
2:13.942,48219,(,0,0,2
2:13.972,48230,t,0,0,0
2:14.072,48266,),0,0,2
2:14.636,48469,(,0,0,0
2:14.700,48492,p,0,0,0
2:14.778,48520,),0,0,0
2:14.811,48532,(,0,0,1
2:14.864,48551,N,0,0,0
2:14.889,48560,),0,0,1
2:15.119,48643,(,0,0,2
2:15.147,48653,t,0,0,0
2:15.217,48678,),0,0,2
2:15.544,48796,(,0,0,0
2:15.569,48805,p,0,0,0
2:15.622,48824,),0,0,0
2:15.625,48825,(,0,0,1
2:15.667,48840,N,0,0,0
2:15.883,48918,),0,0,1
2:15.956,48944,(,0,0,2
2:16.014,48965,t,0,0,1
2:16.053,48979,),0,0,2
2:16.317,49074,(,0,0,0
2:16.342,49083,p,0,0,0
2:16.356,49088,),0,0,0
2:16.383,49098,(,0,0,1
2:16.442,49119,N,0,0,0
2:16.678,49204,),0,0,1
2:16.728,49222,(,0,0,2
2:16.747,49229,t,0,0,5
2:16.789,49244,t,0,0,5
2:16.806,49250,),0,0,2
2:16.986,49315,(,0,0,0
2:17.014,49325,p,0,0,0
2:17.047,49337,),0,0,0
2:17.189,49388,(,0,0,1
2:17.286,49423,N,0,0,0
2:17.350,49446,),0,0,1
2:17.422,49472,(,0,0,2
2:17.436,49477,t,0,0,4
2:17.603,49537,t,0,0,4
2:17.681,49565,),0,0,2
2:17.753,49591,(,0,0,0
2:17.786,49603,p,0,0,0
2:17.814,49613,),0,0,0
2:17.931,49655,(,0,0,1
2:18.008,49683,N,0,0,0
2:18.042,49695,),0,0,1
2:18.131,49727,(,0,0,2
2:18.222,49760,t,0,0,1
2:18.300,49788,),0,0,2
2:18.467,49848,(,0,0,0
2:18.500,49860,p,0,0,0
2:18.569,49885,),0,0,0
2:18.589,49892,(,0,0,1
2:18.703,49933,N,0,0,0
2:18.869,49993,),0,0,1
2:19.364,50171,(,0,0,0
2:19.392,50181,p,0,0,0
2:19.419,50191,),0,0,0
2:19.500,50220,(,0,0,1
2:19.575,50247,N,0,0,0
2:19.656,50276,),0,0,1
2:19.736,50305,(,0,0,2
2:19.778,50320,t,0,0,4
2:20.097,50435,t,0,0,4
2:20.125,50445,),0,0,2
2:20.283,50502,(,0,0,1
2:20.433,50556,N,0,0,0
2:20.553,50599,),0,0,1
2:20.608,50619,(,0,0,2
2:20.639,50630,t,0,0,4
2:20.814,50693,t,0,0,4
2:20.869,50713,),0,0,2
2:20.878,50716,(,0,0,0
2:20.897,50723,p,0,0,0
2:20.914,50729,),0,0,0
2:21.061,50782,(,0,0,1
2:21.164,50819,N,0,0,0
2:21.308,50871,),0,0,1
2:21.397,50903,(,0,0,2
2:21.417,50910,t,0,0,4
2:21.578,50968,t,0,0,4
2:21.606,50978,),0,0,2
2:21.747,51029,(,0,0,0
2:21.775,51039,p,0,0,0
2:21.803,51049,),0,0,0
2:21.839,51062,(,0,0,1
2:21.933,51096,N,0,0,0
2:22.058,51141,),0,0,1
2:22.089,51152,(,0,0,2
2:22.250,51210,t,0,0,0
2:22.411,51268,),0,0,2
2:22.553,51319,(,0,0,0
2:22.586,51331,p,0,0,0
2:22.617,51342,),0,0,0
2:22.694,51370,(,0,0,1
2:22.753,51391,N,0,0,0
2:22.939,51458,),0,0,1
2:22.978,51472,(,0,0,2
2:23.167,51540,t,0,0,0
2:23.350,51606,),0,0,2
2:23.411,51628,(,0,0,0
2:23.436,51637,p,0,0,0
2:23.461,51646,),0,0,0
2:23.564,51683,(,0,0,1
2:23.711,51736,N,0,0,0
2:23.764,51755,),0,0,1
2:23.797,51767,(,0,0,2
2:23.936,51817,t,0,0,0
2:24.133,51888,),0,0,2
2:24.392,51981,(,0,0,0
2:24.417,51990,p,0,0,0
2:24.453,52003,),0,0,0
2:24.525,52029,N,0,0,0
2:24.525,52029,(,0,0,1
2:24.653,52075,),0,0,1
2:24.817,52134,(,0,0,2
2:25.014,52205,t,0,0,1
2:25.081,52229,),0,0,2
2:25.142,52251,(,0,0,1
2:25.350,52326,N,0,0,0
2:25.433,52356,),0,0,1
2:25.567,52404,(,0,0,2
2:25.636,52429,t,0,0,0
2:25.717,52458,),0,0,2
2:26.042,52575,(,0,0,0
2:26.067,52584,p,0,0,0
2:26.150,52614,),0,0,0
2:26.167,52620,N,0,0,0
2:26.167,52620,(,0,0,1
2:26.372,52694,),0,0,1
2:26.492,52737,(,0,0,2
2:26.511,52744,t,0,0,0
2:26.542,52755,),0,0,2
2:26.672,52802,(,0,0,0
2:26.697,52811,p,0,0,0
2:26.728,52822,),0,0,0
2:26.767,52836,(,0,0,1
2:26.953,52903,N,0,0,0
2:27.061,52942,),0,0,1
2:27.192,52989,(,0,0,2
2:27.219,52999,t,0,0,5
2:27.369,53053,t,0,0,5
2:27.386,53059,),0,0,2
2:27.617,53142,(,0,0,0
2:27.642,53151,p,0,0,0
2:27.719,53179,),0,0,0
2:27.731,53183,(,0,0,1
2:27.742,53187,N,0,0,0
2:27.942,53259,),0,0,1
2:28.014,53285,(,0,0,2
2:28.078,53308,t,0,0,0
2:28.153,53335,),0,0,2
2:28.244,53368,(,0,0,0
2:28.286,53383,p,0,0,0
2:28.333,53400,),0,0,0
2:28.408,53427,(,0,0,1
2:28.519,53467,N,0,0,0
2:28.581,53489,),0,0,1
2:28.728,53542,(,0,0,2
2:28.819,53575,t,0,0,0
2:28.917,53610,),0,0,2
2:29.231,53723,(,0,0,0
2:29.267,53736,p,0,0,0
2:29.306,53750,),0,0,0
2:29.336,53761,(,0,0,1
2:29.361,53770,N,0,0,0
2:29.500,53820,),0,0,1
2:29.608,53859,(,0,0,2
2:29.681,53885,t,0,0,0
2:29.753,53911,),0,0,2
2:30.064,54023,(,0,0,0
2:30.092,54033,p,0,0,0
2:30.106,54038,),0,0,0
2:30.150,54054,(,0,0,1
2:30.197,54071,N,0,0,0
2:30.308,54111,),0,0,1
2:30.436,54157,(,0,0,2
2:30.464,54167,t,0,0,0
2:30.497,54179,),0,0,2
2:30.553,54199,(,0,0,0
2:30.592,54213,p,0,0,0
2:30.614,54221,),0,0,0
2:30.756,54272,(,0,0,1
2:30.817,54294,N,0,0,0
2:30.894,54322,),0,0,1
2:31.106,54398,(,0,0,2
2:31.211,54436,t,0,0,0
2:31.258,54453,),0,0,2
2:31.272,54458,(,0,0,0
2:31.303,54469,p,0,0,0
2:31.344,54484,),0,0,0
2:31.492,54537,(,0,0,1
2:31.617,54582,N,0,0,0
2:31.708,54615,),0,0,1
2:31.836,54661,(,0,0,2
2:31.869,54673,t,0,0,1
2:31.903,54685,),0,0,2
2:32.158,54777,(,0,0,0
2:32.178,54784,p,0,0,0
2:32.203,54793,),0,0,0
2:32.342,54843,(,0,0,1
2:32.436,54877,N,0,0,0
2:32.508,54903,),0,0,1
2:32.614,54941,(,0,0,2
2:32.675,54963,t,0,0,1
2:32.778,55000,),0,0,2
2:33.100,55116,(,0,0,0
2:33.122,55124,p,0,0,0
2:33.144,55132,),0,0,0
2:33.189,55148,(,0,0,1
2:33.256,55172,N,0,0,0
2:33.425,55233,),0,0,1
2:33.519,55267,(,0,0,2
2:33.608,55299,t,0,0,0
2:33.686,55327,),0,0,2
2:33.825,55377,(,0,0,0
2:33.869,55393,p,0,0,0
2:33.936,55417,),0,0,0
2:33.956,55424,(,0,0,1
2:34.064,55463,N,0,0,0
2:34.122,55484,),0,0,1
2:34.211,55516,(,0,0,2
2:34.336,55561,t,0,0,1
2:34.444,55600,),0,0,2
2:34.603,55657,(,0,0,0
2:34.658,55677,p,0,0,0
2:34.692,55689,),0,0,0
2:34.783,55722,(,0,0,1
2:34.858,55749,N,0,0,0
2:34.992,55797,),0,0,1
2:35.067,55824,(,0,0,2
2:35.172,55862,t,0,0,1
2:35.281,55901,),0,0,2
2:35.581,56009,(,0,0,0
2:35.608,56019,p,0,0,0
2:35.631,56027,),0,0,0
2:35.658,56037,(,0,0,1
2:35.692,56049,N,0,0,0
2:35.864,56111,),0,0,1
2:36.161,56218,(,0,0,2
2:36.206,56234,t,0,0,1
2:36.242,56247,),0,0,2
2:36.489,56336,(,0,0,0
2:36.517,56346,p,0,0,0
2:36.531,56351,),0,0,0
2:36.592,56373,(,0,0,1
2:36.614,56381,N,0,0,0
2:36.819,56455,),0,0,1
2:36.994,56518,(,0,0,2
2:37.031,56531,t,0,0,1
2:37.069,56545,),0,0,2
2:37.233,56604,(,0,0,0
2:37.261,56614,p,0,0,0
2:37.331,56639,),0,0,0
2:37.358,56649,(,0,0,1
2:37.436,56677,N,0,0,0
2:37.506,56702,),0,0,1
2:37.694,56770,(,0,0,2
2:37.722,56780,t,0,0,0
2:37.778,56800,),0,0,2
2:38.125,56925,(,0,0,0
2:38.153,56935,p,0,0,0
2:38.178,56944,),0,0,0
2:38.272,56978,(,0,0,1
2:38.281,56981,N,0,0,0
2:38.478,57052,),0,0,1
2:38.575,57087,(,0,0,2
2:38.664,57119,t,0,0,1
2:38.683,57126,),0,0,2
2:38.931,57215,(,0,0,0
2:38.958,57225,p,0,0,0
2:38.997,57239,),0,0,0
2:39.036,57253,(,0,0,1
2:39.058,57261,N,0,0,0
2:39.228,57322,),0,0,1
2:39.292,57345,(,0,0,2
2:39.383,57378,t,0,0,0
2:39.478,57412,),0,0,2
2:39.483,57414,(,0,0,0
2:39.500,57420,p,0,0,0
2:39.528,57430,),0,0,0
2:39.653,57475,(,0,0,1
2:39.831,57539,N,0,0,0
2:39.856,57548,),0,0,1
2:40.494,57778,(,0,0,0
2:40.522,57788,p,0,0,0
2:40.583,57810,),0,0,0
2:40.586,57811,(,0,0,1
2:40.633,57828,N,0,0,0
2:40.886,57919,),0,0,1
2:40.958,57945,(,0,0,2
2:41.019,57967,t,0,0,1
2:41.039,57974,),0,0,2
2:41.114,58001,(,0,0,0
2:41.142,58011,p,0,0,0
2:41.158,58017,),0,0,0
2:41.319,58075,(,0,0,1
2:41.469,58129,N,0,0,0
2:41.553,58159,),0,0,1
2:41.606,58178,(,0,0,2
2:41.742,58227,t,0,0,0
2:41.883,58278,),0,0,2
2:41.914,58289,(,0,0,0
2:42.000,58320,p,0,0,0
2:42.083,58350,),0,0,0
2:42.114,58361,(,0,0,1
2:42.292,58425,N,0,0,0
2:42.361,58450,),0,0,1
2:42.444,58480,(,0,0,2
2:42.461,58486,t,0,0,4
2:42.600,58536,t,0,0,4
2:42.714,58577,),0,0,2
2:42.764,58595,(,0,0,0
2:42.794,58606,p,0,0,0
2:42.819,58615,),0,0,0
2:42.914,58649,(,0,0,1
2:42.967,58668,N,0,0,0
2:43.036,58693,),0,0,1
2:43.083,58710,(,0,0,2
2:43.183,58746,t,0,0,4
2:43.358,58809,t,0,0,4
2:43.389,58820,),0,0,2
2:43.536,58873,(,0,0,0
2:43.561,58882,p,0,0,0
2:43.586,58891,),0,0,0
2:43.672,58922,(,0,0,1
2:43.750,58950,N,0,0,0
2:43.828,58978,),0,0,1
2:43.894,59002,(,0,0,2
2:43.922,59012,t,0,0,4
2:44.117,59082,t,0,0,4
2:44.208,59115,),0,0,2
2:44.450,59202,(,0,0,0
2:44.475,59211,p,0,0,0
2:44.494,59218,),0,0,0
2:44.575,59247,(,0,0,1
2:44.628,59266,N,0,0,0
2:44.664,59279,),0,0,1
2:44.942,59379,(,0,0,2
2:44.983,59394,t,0,0,0
2:45.044,59416,),0,0,2
2:45.144,59452,(,0,0,0
2:45.217,59478,p,0,0,0
2:45.308,59511,),0,0,0
2:45.317,59514,(,0,0,1
2:45.375,59535,N,0,0,0
2:45.506,59582,),0,0,1
2:45.700,59652,(,0,0,2
2:45.761,59674,t,0,0,0
2:45.872,59714,),0,0,2
2:46.022,59768,(,0,0,0
2:46.047,59777,p,0,0,0
2:46.103,59797,),0,0,0
2:46.125,59805,(,0,0,1
2:46.250,59850,N,0,0,0
2:46.322,59876,),0,0,1
2:46.364,59891,(,0,0,2
2:46.497,59939,t,0,0,0
2:46.664,59999,),0,0,2
2:46.850,60066,(,0,0,0
2:46.903,60085,p,0,0,0
2:46.947,60101,),0,0,0
2:46.969,60109,(,0,0,1
2:47.092,60153,N,0,0,0
2:47.161,60178,),0,0,1
2:47.181,60185,(,0,0,2
2:47.325,60237,t,0,0,0
2:47.486,60295,),0,0,2
2:47.594,60334,(,0,0,0
2:47.611,60340,p,0,0,0
2:47.675,60363,),0,0,0
2:47.783,60402,(,0,0,1
2:47.911,60448,N,0,0,0
2:48.011,60484,),0,0,1
2:48.072,60506,(,0,0,2
2:48.194,60550,t,0,0,5
2:48.403,60625,t,0,0,5
2:48.425,60633,),0,0,2
2:48.431,60635,(,0,0,0
2:48.492,60657,p,0,0,0
2:48.511,60664,),0,0,0
2:48.583,60690,(,0,0,1
2:48.736,60745,N,0,0,0
2:48.806,60770,),0,0,1
2:48.944,60820,(,0,0,2
2:48.983,60834,t,0,0,5
2:49.292,60945,t,0,0,5
2:49.317,60954,),0,0,2
2:49.442,60999,(,0,0,0
2:49.469,61009,p,0,0,0
2:49.486,61015,),0,0,0
2:49.547,61037,(,0,0,1
2:49.572,61046,N,0,0,0
2:49.808,61131,),0,0,1
2:50.064,61223,(,0,0,2
2:50.089,61232,t,0,0,1
2:50.108,61239,),0,0,2
2:50.264,61295,(,0,0,0
2:50.289,61304,p,0,0,0
2:50.361,61330,),0,0,0
2:50.364,61331,(,0,0,1
2:50.406,61346,N,0,0,0
2:50.553,61399,),0,0,1
2:50.583,61410,(,0,0,2
2:50.650,61434,t,0,0,0
2:50.822,61496,),0,0,2
2:51.050,61578,(,0,0,0
2:51.072,61586,p,0,0,0
2:51.153,61615,),0,0,0
2:51.164,61619,N,0,0,0
2:51.164,61619,(,0,0,1
2:51.303,61669,),0,0,1
2:51.378,61696,(,0,0,2
2:51.428,61714,t,0,0,0
2:51.558,61761,),0,0,2
2:51.742,61827,(,0,0,1
2:51.814,61853,N,0,0,0
2:51.858,61869,),0,0,1
2:51.919,61891,(,0,0,2
2:52.014,61925,t,0,0,4
2:52.225,62001,t,0,0,4
2:52.292,62025,),0,0,2
2:52.325,62037,(,0,0,0
2:52.375,62055,p,0,0,0
2:52.408,62067,),0,0,0
2:52.489,62096,(,0,0,1
2:52.567,62124,N,0,0,0
2:52.625,62145,),0,0,1
2:52.681,62165,(,0,0,2
2:52.714,62177,t,0,0,4
2:52.969,62269,t,0,0,4
2:53.008,62283,),0,0,2
2:53.244,62368,(,0,0,0
2:53.292,62385,p,0,0,0
2:53.328,62398,),0,0,0
2:53.400,62424,(,0,0,1
2:53.489,62456,N,0,0,0
2:53.561,62482,),0,0,1
2:53.650,62514,(,0,0,2
2:53.739,62546,t,0,0,4
2:53.856,62588,t,0,0,4
2:53.892,62601,),0,0,2
2:54.033,62652,(,0,0,0
2:54.083,62670,p,0,0,0
2:54.144,62692,),0,0,0
2:54.228,62722,(,0,0,1
2:54.267,62736,N,0,0,0
2:54.375,62775,),0,0,1
2:54.528,62830,(,0,0,2
2:54.553,62839,t,0,0,4
2:54.642,62871,t,0,0,4
2:54.781,62921,),0,0,2
2:54.956,62984,(,0,0,0
2:54.972,62990,p,0,0,0
2:55.006,63002,),0,0,0
2:55.039,63014,(,0,0,1
2:55.192,63069,N,0,0,0
2:55.269,63097,),0,0,1
2:55.353,63127,(,0,0,2
2:55.458,63165,t,0,0,5
2:55.717,63258,t,0,0,5
2:55.739,63266,),0,0,2
2:55.775,63279,(,0,0,0
2:55.803,63289,p,0,0,0
2:55.858,63309,),0,0,0
2:55.889,63320,(,0,0,1
2:56.014,63365,N,0,0,0
2:56.097,63395,),0,0,1
2:56.150,63414,(,0,0,2
2:56.256,63452,t,0,0,0
2:56.447,63521,),0,0,2
2:56.575,63567,(,0,0,0
2:56.606,63578,p,0,0,0
2:56.622,63584,),0,0,0
2:56.656,63596,(,0,0,1
2:56.811,63652,N,0,0,0
2:56.883,63678,),0,0,1
2:56.919,63691,(,0,0,2
2:57.078,63748,t,0,0,5
2:57.303,63829,t,0,0,5
2:57.328,63838,),0,0,2
2:57.458,63885,(,0,0,1
2:57.592,63933,N,0,0,0
2:57.697,63971,),0,0,1
2:57.778,64000,(,0,0,2
2:57.847,64025,t,0,0,0
2:58.028,64090,),0,0,2
2:58.050,64098,(,0,0,0
2:58.150,64134,p,0,0,0
2:58.172,64142,),0,0,0
2:58.242,64167,(,0,0,1
2:58.392,64221,N,0,0,0
2:58.464,64247,),0,0,1
2:58.525,64269,(,0,0,2
2:58.633,64308,t,0,0,0
2:58.844,64384,),0,0,2
2:58.942,64419,(,0,0,0
2:59.008,64443,p,0,0,0
2:59.028,64450,),0,0,0
2:59.092,64473,(,0,0,1
2:59.217,64518,N,0,0,0
2:59.308,64551,),0,0,1
2:59.442,64599,(,0,0,2
2:59.500,64620,t,0,0,0
2:59.636,64669,),0,0,2
2:59.828,64738,(,0,0,0
2:59.858,64749,p,0,0,0
2:59.892,64761,),0,0,0
2:59.914,64769,(,0,0,1
3:00.044,64816,N,0,0,0
3:00.114,64841,),0,0,1
3:00.161,64858,(,0,0,2
3:00.294,64906,t,0,0,0
3:00.458,64965,),0,0,2
3:00.519,64987,(,0,0,0
3:00.544,64996,p,0,0,0
3:00.569,65005,),0,0,0
3:00.625,65025,(,0,0,1
3:00.711,65056,N,0,0,0
3:00.850,65106,),0,0,1
3:01.103,65197,(,0,0,2
3:01.136,65209,t,0,0,4
3:01.172,65222,t,0,0,4
3:01.200,65232,),0,0,2
3:01.303,65269,(,0,0,0
3:01.328,65278,p,0,0,0
3:01.369,65293,),0,0,0
3:01.408,65307,(,0,0,1
3:01.483,65334,N,0,0,0
3:01.617,65382,),0,0,1
3:01.931,65495,(,0,0,2
3:01.956,65504,t,0,0,4
3:01.983,65514,t,0,0,4
3:02.006,65522,),0,0,2
3:02.197,65591,(,0,0,0
3:02.247,65609,p,0,0,0
3:02.269,65617,),0,0,0
3:02.308,65631,(,0,0,1
3:02.364,65651,N,0,0,0
3:02.408,65667,),0,0,1
3:02.858,65829,(,0,0,0
3:02.883,65838,p,0,0,0
3:02.908,65847,),0,0,0
3:03.064,65903,(,0,0,1
3:03.189,65948,N,0,0,0
3:03.261,65974,),0,0,1
3:03.333,66000,(,0,0,2
3:03.400,66024,t,0,0,1
3:03.461,66046,),0,0,2
3:03.703,66133,(,0,0,0
3:03.747,66149,p,0,0,0
3:03.769,66157,),0,0,0
3:03.844,66184,(,0,0,1
3:03.978,66232,N,0,0,0
3:04.036,66253,),0,0,1
3:04.506,66422,(,0,0,0
3:04.528,66430,p,0,0,0
3:04.547,66437,),0,0,0
3:04.717,66498,(,0,0,1
3:04.842,66543,N,0,0,0
3:04.908,66567,),0,0,1
3:05.144,66652,(,0,0,2
3:05.217,66678,t,0,0,1
3:05.308,66711,),0,0,2
3:05.325,66717,(,0,0,0
3:05.394,66742,p,0,0,0
3:05.456,66764,),0,0,0
3:05.539,66794,(,0,0,1
3:05.664,66839,N,0,0,0
3:05.733,66864,),0,0,1
3:05.939,66938,(,0,0,2
3:05.961,66946,t,0,0,0
3:06.050,66978,),0,0,2
3:06.122,67004,(,0,0,0
3:06.272,67058,p,0,0,0
3:06.297,67067,),0,0,0
3:06.339,67082,(,0,0,1
3:06.478,67132,N,0,0,0
3:06.542,67155,),0,0,1
3:06.567,67164,(,0,0,2
3:06.731,67223,t,0,0,0
3:06.900,67284,),0,0,2
3:07.008,67323,(,0,0,0
3:07.075,67347,p,0,0,0
3:07.125,67365,),0,0,0
3:07.161,67378,(,0,0,1
3:07.300,67428,N,0,0,0
3:07.364,67451,),0,0,1
3:07.403,67465,(,0,0,2
3:07.539,67514,t,0,0,0
3:07.744,67588,),0,0,2
3:08.006,67682,(,0,0,0
3:08.033,67692,p,0,0,0
3:08.111,67720,),0,0,0
3:08.128,67726,N,0,0,0
3:08.128,67726,(,0,0,1
3:08.258,67773,),0,0,1
3:08.328,67798,(,0,0,2
3:08.414,67829,t,0,0,0
3:08.564,67883,),0,0,2
3:08.611,67900,(,0,0,0
3:08.675,67923,p,0,0,0
3:08.703,67933,),0,0,0
3:08.797,67967,(,0,0,1
3:08.919,68011,N,0,0,0
3:09.003,68041,),0,0,1
3:09.053,68059,(,0,0,2
3:09.078,68068,t,0,0,4
3:09.233,68124,t,0,0,4
3:09.358,68169,),0,0,2
3:09.369,68173,(,0,0,0
3:09.397,68183,p,0,0,0
3:09.442,68199,),0,0,0
3:09.511,68224,(,0,0,1
3:09.694,68290,N,0,0,0
3:09.764,68315,),0,0,1
3:09.794,68326,(,0,0,2
3:09.842,68343,t,0,0,5
3:10.114,68441,t,0,0,5
3:10.133,68448,),0,0,2
3:10.244,68488,(,0,0,0
3:10.292,68505,p,0,0,0
3:10.328,68518,),0,0,0
3:10.381,68537,(,0,0,1
3:10.508,68583,N,0,0,0
3:10.586,68611,),0,0,1
3:10.675,68643,(,0,0,2
3:10.775,68679,t,0,0,0
3:10.933,68736,),0,0,2
3:10.994,68758,(,0,0,0
3:11.092,68793,p,0,0,0
3:11.111,68800,),0,0,0
3:11.194,68830,(,0,0,1
3:11.333,68880,N,0,0,0
3:11.411,68908,),0,0,1
3:11.547,68957,(,0,0,2
3:11.611,68980,t,0,0,5
3:11.869,69073,t,0,0,5
3:11.897,69083,),0,0,2
3:11.908,69087,(,0,0,0
3:11.956,69104,p,0,0,0
3:11.981,69113,),0,0,0
3:12.014,69125,(,0,0,1
3:12.164,69179,N,0,0,0
3:12.244,69208,),0,0,1
3:12.317,69234,(,0,0,2
3:12.406,69266,t,0,0,5
3:12.617,69342,t,0,0,5
3:12.633,69348,),0,0,2
3:12.731,69383,(,0,0,0
3:12.758,69393,p,0,0,0
3:12.792,69405,),0,0,0
3:12.869,69433,(,0,0,1
3:13.000,69480,N,0,0,0
3:13.081,69509,),0,0,1
3:13.117,69522,(,0,0,2
3:13.211,69556,t,0,0,0
3:13.275,69579,),0,0,2
3:13.367,69612,(,0,0,0
3:13.467,69648,p,0,0,0
3:13.489,69656,),0,0,0
3:13.550,69678,(,0,0,1
3:13.619,69703,N,0,0,0
3:13.664,69719,),0,0,1
3:13.700,69732,(,0,0,2
3:13.858,69789,t,0,0,4
3:14.033,69852,t,0,0,4
3:14.067,69864,),0,0,2
3:14.203,69913,(,0,0,0
3:14.258,69933,p,0,0,0
3:14.283,69942,),0,0,0
3:14.375,69975,(,0,0,1
3:14.425,69993,N,0,0,0
3:14.492,70017,),0,0,1
3:14.531,70031,(,0,0,2
3:14.558,70041,t,0,0,4
3:14.803,70129,t,0,0,4
3:14.836,70141,),0,0,2
3:15.028,70210,(,0,0,0
3:15.056,70220,p,0,0,0
3:15.125,70245,),0,0,0
3:15.144,70252,(,0,0,1
3:15.211,70276,N,0,0,0
3:15.256,70292,),0,0,1
3:15.286,70303,(,0,0,2
3:15.436,70357,t,0,0,1
3:15.553,70399,),0,0,2
3:15.811,70492,(,0,0,0
3:15.842,70503,p,0,0,0
3:15.906,70526,),0,0,0
3:15.950,70542,(,0,0,1
3:16.003,70561,N,0,0,0
3:16.039,70574,),0,0,1
3:16.081,70589,(,0,0,2
3:16.244,70648,t,0,0,4
3:16.425,70713,t,0,0,4
3:16.461,70726,),0,0,2
3:16.647,70793,(,0,0,0
3:16.681,70805,p,0,0,0
3:16.725,70821,),0,0,0
3:16.803,70849,(,0,0,1
3:16.850,70866,N,0,0,0
3:16.889,70880,),0,0,1
3:16.944,70900,(,0,0,2
3:17.033,70932,t,0,0,1
3:17.208,70995,),0,0,2
3:17.467,71088,(,0,0,0
3:17.528,71110,p,0,0,0
3:17.569,71125,),0,0,0
3:17.619,71143,(,0,0,1
3:17.697,71171,N,0,0,0
3:17.733,71184,),0,0,1
3:17.839,71222,(,0,0,2
3:17.919,71251,t,0,0,4
3:18.219,71359,t,0,0,4
3:18.275,71379,),0,0,2
3:18.319,71395,(,0,0,0
3:18.381,71417,p,0,0,0
3:18.408,71427,),0,0,0
3:18.456,71444,(,0,0,1
3:18.528,71470,N,0,0,0
3:18.589,71492,),0,0,1
3:18.714,71537,(,0,0,2
3:18.742,71547,t,0,0,4
3:18.928,71614,t,0,0,4
3:19.000,71640,),0,0,2
3:19.092,71673,(,0,0,0
3:19.111,71680,p,0,0,0
3:19.136,71689,),0,0,0
3:19.233,71724,(,0,0,1
3:19.356,71768,N,0,0,0
3:19.392,71781,),0,0,1
3:19.506,71822,(,0,0,2
3:19.539,71834,t,0,0,4
3:19.736,71905,t,0,0,4
3:19.761,71914,),0,0,2
3:19.978,71992,(,0,0,0
3:20.033,72012,p,0,0,0
3:20.075,72027,),0,0,0
3:20.106,72038,(,0,0,1
3:20.200,72072,N,0,0,0
3:20.261,72094,),0,0,1
3:20.314,72113,(,0,0,2
3:20.406,72146,t,0,0,4
3:20.553,72199,t,0,0,4
3:20.653,72235,),0,0,2
3:20.794,72286,(,0,0,0
3:20.836,72301,p,0,0,0
3:20.867,72312,),0,0,0
3:20.881,72317,(,0,0,1
3:20.997,72359,N,0,0,0
3:21.058,72381,),0,0,1
3:21.147,72413,(,0,0,2
3:21.206,72434,t,0,0,1
3:21.331,72479,),0,0,2
3:21.497,72539,(,0,0,0
3:21.528,72550,p,0,0,0
3:21.603,72577,),0,0,0
3:21.656,72596,(,0,0,1
3:21.761,72634,N,0,0,0
3:21.817,72654,),0,0,1
3:22.000,72720,(,0,0,2
3:22.106,72758,t,0,0,0
3:22.197,72791,),0,0,2
3:22.394,72862,(,0,0,0
3:22.422,72872,p,0,0,0
3:22.447,72881,),0,0,0
3:22.475,72891,(,0,0,1
3:22.592,72933,N,0,0,0
3:22.717,72978,),0,0,1
3:22.897,73043,(,0,0,2
3:22.950,73062,t,0,0,0
3:23.017,73086,),0,0,2
3:23.125,73125,(,0,0,0
3:23.158,73137,p,0,0,0
3:23.225,73161,),0,0,0
3:23.311,73192,(,0,0,1
3:23.417,73230,N,0,0,0
3:23.481,73253,),0,0,1
3:23.706,73334,(,0,0,2
3:23.814,73373,t,0,0,0
3:23.897,73403,),0,0,2
3:24.017,73446,(,0,0,0
3:24.069,73465,p,0,0,0
3:24.097,73475,),0,0,0
3:24.147,73493,(,0,0,1
3:24.242,73527,N,0,0,0
3:24.297,73547,),0,0,1
3:24.500,73620,(,0,0,2
3:24.619,73663,t,0,0,0
3:24.692,73689,),0,0,2
3:24.783,73722,(,0,0,0
3:24.864,73751,p,0,0,0
3:24.906,73766,),0,0,0
3:24.953,73783,(,0,0,1
3:25.017,73806,N,0,0,0
3:25.147,73853,),0,0,1
3:25.311,73912,(,0,0,2
3:25.492,73977,t,0,0,0
3:25.594,74014,),0,0,2
3:25.692,74049,(,0,0,0
3:25.719,74059,p,0,0,0
3:25.744,74068,),0,0,0
3:25.797,74087,(,0,0,1
3:25.883,74118,N,0,0,0
3:25.950,74142,),0,0,1
3:26.011,74164,(,0,0,2
3:26.106,74198,t,0,0,4
3:26.283,74262,t,0,0,4
3:26.306,74270,),0,0,2
3:26.453,74323,(,0,0,0
3:26.483,74334,p,0,0,0
3:26.519,74347,),0,0,0
3:26.581,74369,(,0,0,1
3:26.689,74408,N,0,0,0
3:26.744,74428,),0,0,1
3:26.850,74466,(,0,0,2
3:26.914,74489,t,0,0,4
3:27.161,74578,t,0,0,4
3:27.186,74587,),0,0,2
3:27.253,74611,(,0,0,0
3:27.292,74625,p,0,0,0
3:27.322,74636,),0,0,0
3:27.372,74654,(,0,0,1
3:27.442,74679,N,0,0,0
3:27.558,74721,),0,0,1
3:27.653,74755,(,0,0,2
3:27.775,74799,t,0,0,0
3:27.903,74845,),0,0,2
3:27.953,74863,(,0,0,0
3:28.053,74899,p,0,0,0
3:28.089,74912,),0,0,0
3:28.122,74924,(,0,0,1
3:28.228,74962,N,0,0,0
3:28.375,75015,),0,0,1
3:28.458,75045,(,0,0,2
3:28.614,75101,t,0,0,1
3:28.767,75156,),0,0,2
3:28.775,75159,(,0,0,0
3:28.800,75168,p,0,0,0
3:28.828,75178,),0,0,0
3:28.917,75210,(,0,0,1
3:29.050,75258,N,0,0,0
3:29.211,75316,),0,0,1
3:29.469,75409,(,0,0,2
3:29.500,75420,t,0,0,1
3:29.531,75431,),0,0,2
3:29.567,75444,(,0,0,0
3:29.594,75454,p,0,0,0
3:29.625,75465,),0,0,0
3:29.817,75534,(,0,0,1
3:29.864,75551,N,0,0,0
3:29.928,75574,),0,0,1
3:30.006,75602,(,0,0,2
3:30.075,75627,t,0,0,1
3:30.239,75686,),0,0,2
3:30.472,75770,(,0,0,0
3:30.511,75784,p,0,0,0
3:30.547,75797,),0,0,0
3:30.611,75820,(,0,0,1
3:30.689,75848,N,0,0,0
3:30.747,75869,),0,0,1
3:30.792,75885,(,0,0,2
3:30.961,75946,t,0,0,4
3:31.233,76044,t,0,0,4
3:31.261,76054,),0,0,2
3:31.306,76070,(,0,0,0
3:31.333,76080,p,0,0,0
3:31.361,76090,),0,0,0
3:31.422,76112,(,0,0,1
3:31.514,76145,N,0,0,0
3:31.547,76157,),0,0,1
3:31.653,76195,(,0,0,2
3:31.725,76221,t,0,0,4
3:31.997,76319,t,0,0,4
3:32.039,76334,),0,0,2
3:32.094,76354,(,0,0,0
3:32.122,76364,p,0,0,0
3:32.161,76378,),0,0,0
3:32.222,76400,(,0,0,1
3:32.297,76427,N,0,0,0
3:32.331,76439,),0,0,1
3:32.467,76488,(,0,0,2
3:32.511,76504,t,0,0,4
3:32.761,76594,t,0,0,4
3:32.794,76606,),0,0,2
3:32.867,76632,(,0,0,0
3:32.892,76641,p,0,0,0
3:32.950,76662,),0,0,0
3:32.983,76674,(,0,0,1
3:33.053,76699,N,0,0,0
3:33.089,76712,),0,0,1
3:33.203,76753,(,0,0,2
3:33.233,76764,t,0,0,4
3:33.439,76838,t,0,0,4
3:33.467,76848,),0,0,2
3:33.586,76891,(,0,0,0
3:33.633,76908,p,0,0,0
3:33.669,76921,),0,0,0
3:33.728,76942,(,0,0,1
3:33.797,76967,N,0,0,0
3:33.858,76989,),0,0,1
3:33.953,77023,(,0,0,2
3:33.989,77036,t,0,0,4
3:34.236,77125,t,0,0,4
3:34.261,77134,),0,0,2
3:34.381,77177,(,0,0,0
3:34.419,77191,p,0,0,0
3:34.447,77201,),0,0,0
3:34.547,77237,(,0,0,1
3:34.600,77256,N,0,0,0
3:34.636,77269,),0,0,1
3:34.714,77297,(,0,0,2
3:34.742,77307,t,0,0,4
3:34.983,77394,t,0,0,4
3:35.006,77402,),0,0,2
3:35.181,77465,(,0,0,0
3:35.239,77486,p,0,0,0
3:35.283,77502,),0,0,0
3:35.339,77522,(,0,0,1
3:35.411,77548,N,0,0,0
3:35.447,77561,),0,0,1
3:35.533,77592,(,0,0,2
3:35.572,77606,t,0,0,4
3:35.781,77681,t,0,0,4
3:35.800,77688,),0,0,2
3:35.994,77758,(,0,0,0
3:36.028,77770,p,0,0,0
3:36.067,77784,),0,0,0
3:36.167,77820,(,0,0,1
3:36.214,77837,N,0,0,0
3:36.250,77850,),0,0,1
3:36.386,77899,(,0,0,2
3:36.436,77917,t,0,0,4
3:36.611,77980,t,0,0,4
3:36.644,77992,),0,0,2
3:36.833,78060,(,0,0,0
3:36.867,78072,p,0,0,0
3:36.911,78088,),0,0,0
3:36.972,78110,(,0,0,1
3:37.033,78132,N,0,0,0
3:37.092,78153,),0,0,1
3:37.167,78180,(,0,0,2
3:37.225,78201,t,0,0,4
3:37.444,78280,t,0,0,4
3:37.458,78285,),0,0,2
3:37.578,78328,(,0,0,0
3:37.606,78338,p,0,0,0
3:37.672,78362,),0,0,0
3:37.761,78394,(,0,0,1
3:37.844,78424,N,0,0,0
3:37.908,78447,),0,0,1
3:38.003,78481,(,0,0,2
3:38.100,78516,t,0,0,4
3:38.228,78562,t,0,0,4
3:38.250,78570,),0,0,2
3:38.422,78632,(,0,0,0
3:38.478,78652,p,0,0,0
3:38.522,78668,),0,0,0
3:38.581,78689,(,0,0,1
3:38.628,78706,N,0,0,0
3:38.692,78729,),0,0,1
3:38.728,78742,(,0,0,2
3:38.758,78753,t,0,0,4
3:39.050,78858,t,0,0,4
3:39.072,78866,),0,0,2
3:39.342,78963,(,0,0,1
3:39.394,78982,N,0,0,0
3:39.428,78994,),0,0,1
3:39.539,79034,(,0,0,2
3:39.606,79058,t,0,0,4
3:39.750,79110,t,0,0,4
3:39.828,79138,),0,0,2
3:39.964,79187,(,0,0,0
3:39.989,79196,p,0,0,0
3:40.017,79206,),0,0,0
3:40.097,79235,(,0,0,1
3:40.164,79259,N,0,0,0
3:40.200,79272,),0,0,1
3:40.306,79310,(,0,0,2
3:40.394,79342,t,0,0,1
3:40.553,79399,),0,0,2
3:40.778,79480,(,0,0,0
3:40.817,79494,p,0,0,0
3:40.853,79507,),0,0,0
3:40.897,79523,(,0,0,1
3:40.981,79553,N,0,0,0
3:41.044,79576,),0,0,1
3:41.114,79601,(,0,0,2
3:41.178,79624,t,0,0,4
3:41.422,79712,t,0,0,4
3:41.444,79720,),0,0,2
3:41.600,79776,(,0,0,0
3:41.633,79788,p,0,0,0
3:41.672,79802,),0,0,0
3:41.739,79826,(,0,0,1
3:41.789,79844,N,0,0,0
3:41.856,79868,),0,0,1
3:41.925,79893,(,0,0,2
3:42.008,79923,t,0,0,4
3:42.181,79985,t,0,0,4
3:42.219,79999,),0,0,2
3:42.381,80057,(,0,0,0
3:42.428,80074,p,0,0,0
3:42.464,80087,),0,0,0
3:42.539,80114,(,0,0,1
3:42.597,80135,N,0,0,0
3:42.633,80148,),0,0,1
3:42.775,80199,(,0,0,2
3:42.844,80224,t,0,0,1
3:42.975,80271,),0,0,2
3:43.361,80410,(,0,0,1
3:43.414,80429,N,0,0,0
3:43.453,80443,),0,0,1
3:43.508,80463,(,0,0,2
3:43.631,80507,t,0,0,4
3:43.814,80573,t,0,0,4
3:43.881,80597,),0,0,2
3:44.003,80641,(,0,0,0
3:44.047,80657,p,0,0,0
3:44.083,80670,),0,0,0
3:44.169,80701,(,0,0,1
3:44.222,80720,N,0,0,0
3:44.258,80733,),0,0,1
3:44.369,80773,(,0,0,2
3:44.458,80805,t,0,0,4
3:44.614,80861,t,0,0,4
3:44.661,80878,),0,0,2
3:44.792,80925,(,0,0,0
3:44.833,80940,p,0,0,0
3:44.867,80952,),0,0,0
3:44.944,80980,(,0,0,1
3:44.994,80998,N,0,0,0
3:45.028,81010,),0,0,1
3:45.119,81043,(,0,0,2
3:45.206,81074,t,0,0,1
3:45.342,81123,),0,0,2
3:45.550,81198,(,0,0,0
3:45.581,81209,p,0,0,0
3:45.608,81219,),0,0,0
3:45.683,81246,(,0,0,1
3:45.739,81266,N,0,0,0
3:45.772,81278,),0,0,1
3:45.850,81306,(,0,0,2
3:45.964,81347,t,0,0,1
3:46.097,81395,),0,0,2
3:46.322,81476,(,0,0,0
3:46.358,81489,p,0,0,0
3:46.389,81500,),0,0,0
3:46.483,81534,(,0,0,1
3:46.536,81553,N,0,0,0
3:46.572,81566,),0,0,1
3:46.650,81594,(,0,0,2
3:46.747,81629,t,0,0,4
3:46.931,81695,t,0,0,4
3:46.981,81713,),0,0,2
3:47.119,81763,(,0,0,0
3:47.161,81778,p,0,0,0
3:47.203,81793,),0,0,0
3:47.289,81824,(,0,0,1
3:47.344,81844,N,0,0,0
3:47.381,81857,),0,0,1
3:47.467,81888,(,0,0,2
3:47.572,81926,t,0,0,1
3:47.708,81975,),0,0,2
3:47.936,82057,(,0,0,0
3:47.972,82070,p,0,0,0
3:48.006,82082,),0,0,0
3:48.078,82108,(,0,0,1
3:48.147,82133,N,0,0,0
3:48.214,82157,),0,0,1
3:48.267,82176,(,0,0,2
3:48.367,82212,t,0,0,1
3:48.506,82262,),0,0,2
3:48.631,82307,(,0,0,1
3:48.722,82340,N,0,0,0
3:48.856,82388,),0,0,1
3:48.925,82413,(,0,0,2
3:49.003,82441,t,0,0,0
3:49.150,82494,),0,0,2
3:49.511,82624,(,0,0,1
3:49.642,82671,N,0,0,0
3:49.725,82701,),0,0,1
3:49.753,82711,(,0,0,2
3:49.881,82757,t,0,0,0
3:50.228,82882,),0,0,2
3:50.319,82915,(,0,0,1
3:50.450,82962,N,0,0,0
3:50.542,82995,),0,0,1
3:50.592,83013,(,0,0,2
3:50.697,83051,t,0,0,0
3:50.897,83123,),0,0,2
3:51.103,83197,(,0,0,1
3:51.219,83239,N,0,0,0
3:51.286,83263,),0,0,1
3:51.328,83278,(,0,0,2
3:51.461,83326,t,0,0,0
3:51.653,83395,),0,0,2
3:51.672,83402,(,0,0,0
3:51.778,83440,p,0,0,0
3:51.797,83447,),0,0,0
3:51.869,83473,(,0,0,1
3:52.000,83520,N,0,0,0
3:52.092,83553,),0,0,1
3:52.153,83575,(,0,0,2
3:52.269,83617,t,0,0,0
3:52.478,83692,),0,0,2
3:52.511,83704,(,0,0,0
3:52.603,83737,p,0,0,0
3:52.625,83745,),0,0,0
3:52.706,83774,(,0,0,1
3:52.831,83819,N,0,0,0
3:52.908,83847,),0,0,1
3:52.939,83858,(,0,0,2
3:53.086,83911,t,0,0,0
3:53.225,83961,),0,0,2
3:53.522,84068,(,0,0,1
3:53.644,84112,N,0,0,0
3:53.739,84146,),0,0,1
3:53.786,84163,(,0,0,2
3:53.911,84208,t,0,0,0
3:54.103,84277,),0,0,2
3:54.336,84361,(,0,0,1
3:54.475,84411,N,0,0,0
3:54.561,84442,),0,0,1
3:54.603,84457,(,0,0,2
3:54.750,84510,t,0,0,0
3:54.967,84588,),0,0,2
3:55.019,84607,(,0,0,0
3:55.050,84618,p,0,0,0
3:55.064,84623,),0,0,0
3:55.167,84660,(,0,0,1
3:55.308,84711,N,0,0,0
3:55.403,84745,),0,0,1
3:55.444,84760,(,0,0,2
3:55.578,84808,t,0,0,0
3:55.769,84877,),0,0,2
3:56.000,84960,(,0,0,1
3:56.139,85010,N,0,0,0
3:56.231,85043,),0,0,1
3:56.289,85064,(,0,0,2
3:56.394,85102,t,0,0,0
3:56.583,85170,),0,0,2
3:56.783,85242,(,0,0,1
3:56.922,85292,N,0,0,0
3:57.003,85321,),0,0,1
3:57.039,85334,(,0,0,2
3:57.164,85379,t,0,0,0
3:57.294,85426,),0,0,2
3:57.336,85441,(,0,0,0
3:57.350,85446,p,0,0,0
3:57.425,85473,),0,0,0
3:57.547,85517,(,0,0,1
3:57.692,85569,N,0,0,0
3:57.758,85593,),0,0,1
3:57.783,85602,(,0,0,2
3:57.942,85659,t,0,0,0
3:58.106,85718,),0,0,2
3:58.361,85810,(,0,0,1
3:58.511,85864,N,0,0,0
3:58.592,85893,),0,0,1
3:58.633,85908,(,0,0,2
3:58.767,85956,t,0,0,0
3:58.931,86015,),0,0,2
3:59.169,86101,(,0,0,1
3:59.336,86161,N,0,0,0
3:59.414,86189,),0,0,1
3:59.447,86201,(,0,0,2
3:59.586,86251,t,0,0,0
3:59.711,86296,),0,0,2
3:59.981,86393,(,0,0,1
4:00.153,86455,N,0,0,0
4:00.225,86481,),0,0,1
4:00.244,86488,(,0,0,2
4:00.406,86546,t,0,0,0
4:00.572,86606,),0,0,2
4:00.633,86628,(,0,0,0
4:00.653,86635,p,0,0,0
4:00.681,86645,),0,0,0
4:00.811,86692,(,0,0,1
4:00.981,86753,N,0,0,0
4:01.044,86776,),0,0,1
4:01.078,86788,(,0,0,2
4:01.239,86846,t,0,0,0
4:01.383,86898,),0,0,2
4:01.572,86966,(,0,0,0
4:01.606,86978,p,0,0,0
4:01.669,87001,),0,0,0
4:01.692,87009,(,0,0,1
4:01.811,87052,N,0,0,0
4:01.861,87070,),0,0,1
4:01.883,87078,(,0,0,2
4:02.075,87147,t,0,0,0
4:02.261,87214,),0,0,2
4:02.339,87242,(,0,0,0
4:02.422,87272,p,0,0,0
4:02.467,87288,),0,0,0
4:02.497,87299,(,0,0,1
4:02.608,87339,N,0,0,0
4:02.647,87353,),0,0,1
4:02.675,87363,(,0,0,2
4:02.869,87433,t,0,0,0
4:02.981,87473,),0,0,2
4:03.125,87525,(,0,0,0
4:03.181,87545,p,0,0,0
4:03.233,87564,),0,0,0
4:03.275,87579,(,0,0,1
4:03.375,87615,N,0,0,0
4:03.453,87643,),0,0,1
4:03.486,87655,(,0,0,2
4:03.633,87708,t,0,0,0
4:03.761,87754,),0,0,2
4:03.972,87830,(,0,0,0
4:04.006,87842,p,0,0,0
4:04.036,87853,),0,0,0
4:04.047,87857,(,0,0,1
4:04.092,87873,N,0,0,0
4:04.244,87928,),0,0,1
4:04.372,87974,(,0,0,2
4:04.497,88019,t,0,0,0
4:04.650,88074,),0,0,2
4:04.783,88122,(,0,0,0
4:04.822,88136,p,0,0,0
4:04.853,88147,),0,0,0
4:04.881,88157,(,0,0,1
4:04.917,88170,N,0,0,0
4:05.058,88221,),0,0,1
4:05.117,88242,(,0,0,2
4:05.144,88252,t,0,0,4
4:05.333,88320,t,0,0,4
4:05.467,88368,),0,0,2
4:05.578,88408,(,0,0,0
4:05.633,88428,p,0,0,0
4:05.669,88441,),0,0,0
4:05.689,88448,(,0,0,1
4:05.806,88490,N,0,0,0
4:05.878,88516,),0,0,1
4:05.944,88540,(,0,0,2
4:05.972,88550,t,0,0,4
4:06.342,88683,t,0,0,4
4:06.386,88699,),0,0,2
4:06.419,88711,(,0,0,0
4:06.461,88726,p,0,0,0
4:06.492,88737,),0,0,0
4:06.542,88755,(,0,0,1
4:06.644,88792,N,0,0,0
4:06.717,88818,),0,0,1
4:06.764,88835,(,0,0,2
4:06.831,88859,t,0,0,4
4:07.147,88973,t,0,0,4
4:07.189,88988,),0,0,2
4:07.244,89008,(,0,0,0
4:07.275,89019,p,0,0,0
4:07.308,89031,),0,0,0
4:07.361,89050,(,0,0,1
4:07.456,89084,N,0,0,0
4:07.517,89106,),0,0,1
4:07.531,89111,(,0,0,2
4:07.669,89161,t,0,0,4
4:07.828,89218,t,0,0,4
4:07.889,89240,),0,0,2
4:08.058,89301,(,0,0,0
4:08.097,89315,p,0,0,0
4:08.136,89329,),0,0,0
4:08.181,89345,(,0,0,1
4:08.275,89379,N,0,0,0
4:08.311,89392,),0,0,1
4:08.375,89415,(,0,0,2
4:08.467,89448,t,0,0,4
4:08.608,89499,t,0,0,4
4:08.700,89532,),0,0,2
4:08.839,89582,(,0,0,0
4:08.875,89595,p,0,0,0
4:08.911,89608,),0,0,0
4:08.972,89630,(,0,0,1
4:09.036,89653,N,0,0,0
4:09.072,89666,),0,0,1
4:09.103,89677,(,0,0,2
4:09.242,89727,t,0,0,4
4:09.364,89771,t,0,0,4
4:09.436,89797,),0,0,2
4:09.575,89847,(,0,0,0
4:09.631,89867,p,0,0,0
4:09.664,89879,),0,0,0
4:09.739,89906,(,0,0,1
4:09.797,89927,N,0,0,0
4:09.856,89948,),0,0,1
4:09.881,89957,(,0,0,2
4:10.036,90013,t,0,0,4
4:10.175,90063,t,0,0,4
4:10.222,90080,),0,0,2
4:10.372,90134,(,0,0,0
4:10.417,90150,p,0,0,0
4:10.467,90168,),0,0,0
4:10.547,90197,(,0,0,1
4:10.619,90223,N,0,0,0
4:10.656,90236,),0,0,1
4:10.742,90267,(,0,0,2
4:10.817,90294,t,0,0,4
4:10.964,90347,t,0,0,4
4:10.989,90356,),0,0,2
4:11.161,90418,(,0,0,0
4:11.194,90430,p,0,0,0
4:11.222,90440,),0,0,0
4:11.367,90492,(,0,0,1
4:11.433,90516,N,0,0,0
4:11.508,90543,),0,0,1
4:11.567,90564,(,0,0,2
4:11.589,90572,t,0,0,5
4:11.639,90590,t,0,0,5
4:11.700,90612,),0,0,2
4:12.081,90749,(,0,0,0
4:12.119,90763,p,0,0,0
4:12.147,90773,),0,0,0
4:12.164,90779,(,0,0,1
4:12.239,90806,N,0,0,0
4:12.325,90837,),0,0,1
4:12.353,90847,(,0,0,2
4:12.486,90895,t,0,0,4
4:12.597,90935,t,0,0,4
4:12.647,90953,),0,0,2
4:12.819,91015,(,0,0,0
4:12.842,91023,p,0,0,0
4:12.878,91036,),0,0,0
4:12.992,91077,(,0,0,1
4:13.072,91106,N,0,0,0
4:13.139,91130,),0,0,1
4:13.342,91203,(,0,0,2
4:13.367,91212,t,0,0,1
4:13.411,91228,),0,0,2
4:13.650,91314,(,0,0,0
4:13.706,91334,p,0,0,0
4:13.767,91356,),0,0,0
4:13.861,91390,(,0,0,1
4:13.908,91407,N,0,0,0
4:13.944,91420,),0,0,1
4:14.139,91490,(,0,0,2
4:14.286,91543,t,0,0,0
4:14.444,91600,),0,0,2
4:14.456,91604,(,0,0,0
4:14.522,91628,p,0,0,0
4:14.606,91658,),0,0,0
4:14.636,91669,(,0,0,1
4:14.697,91691,N,0,0,0
4:14.769,91717,),0,0,1
4:14.828,91738,(,0,0,2
4:14.875,91755,t,0,0,4
4:15.067,91824,t,0,0,4
4:15.092,91833,),0,0,2
4:15.347,91925,(,0,0,0
4:15.369,91933,p,0,0,0
4:15.397,91943,),0,0,0
4:15.419,91951,(,0,0,1
4:15.467,91968,N,0,0,0
4:15.522,91988,),0,0,1
4:15.600,92016,(,0,0,2
4:15.683,92046,t,0,0,4
4:15.908,92127,t,0,0,4
4:15.936,92137,),0,0,2
4:15.983,92154,(,0,0,0
4:16.006,92162,p,0,0,0
4:16.031,92171,),0,0,0
4:16.194,92230,(,0,0,1
4:16.294,92266,N,0,0,0
4:16.378,92296,),0,0,1
4:16.619,92383,(,0,0,2
4:16.650,92394,t,0,0,0
4:16.703,92413,),0,0,2
4:16.744,92428,(,0,0,0
4:16.778,92440,p,0,0,0
4:16.808,92451,),0,0,0
4:16.867,92472,(,0,0,1
4:16.964,92507,N,0,0,0
4:16.994,92518,),0,0,1
4:17.069,92545,(,0,0,2
4:17.097,92555,t,0,0,4
4:17.339,92642,t,0,0,4
4:17.364,92651,),0,0,2
4:17.567,92724,(,0,0,0
4:17.656,92756,p,0,0,0
4:17.742,92787,),0,0,0
4:17.764,92795,(,0,0,1
4:17.822,92816,N,0,0,0
4:17.969,92869,),0,0,1
4:18.075,92907,(,0,0,2
4:18.103,92917,t,0,0,0
4:18.167,92940,),0,0,2
4:18.633,93108,(,0,0,0
4:18.658,93117,p,0,0,0
4:18.672,93122,),0,0,0
4:18.703,93133,(,0,0,1
4:18.742,93147,N,0,0,0
4:18.825,93177,),0,0,1
4:18.925,93213,(,0,0,2
4:18.972,93230,t,0,0,4
4:19.008,93243,t,0,0,4
4:19.158,93297,),0,0,2
4:19.322,93356,(,0,0,0
4:19.369,93373,p,0,0,0
4:19.428,93394,),0,0,0
4:19.439,93398,(,0,0,1
4:19.575,93447,N,0,0,0
4:19.633,93468,),0,0,1
4:19.769,93517,(,0,0,2
4:19.811,93532,t,0,0,5
4:19.983,93594,t,0,0,5
4:20.006,93602,),0,0,2
4:20.081,93629,(,0,0,0
4:20.111,93640,p,0,0,0
4:20.153,93655,),0,0,0
4:20.208,93675,(,0,0,1
4:20.394,93742,N,0,0,0
4:20.450,93762,),0,0,1
4:20.858,93909,(,0,0,2
4:20.886,93919,t,0,0,0
4:20.917,93930,),0,0,2
4:21.050,93978,(,0,0,0
4:21.081,93989,p,0,0,0
4:21.158,94017,),0,0,0
4:21.172,94022,N,0,0,0
4:21.172,94022,(,0,0,1
4:21.333,94080,),0,0,1
4:21.447,94121,(,0,0,2
4:21.517,94146,t,0,0,1
4:21.542,94155,),0,0,2
4:21.831,94259,(,0,0,0
4:21.856,94268,p,0,0,0
4:21.872,94274,),0,0,0
4:21.925,94293,(,0,0,1
4:21.947,94301,N,0,0,0
4:22.147,94373,),0,0,1
4:22.200,94392,(,0,0,2
4:22.219,94399,t,0,0,4
4:22.253,94411,t,0,0,4
4:22.356,94448,),0,0,2
4:22.472,94490,(,0,0,0
4:22.494,94498,p,0,0,0
4:22.517,94506,),0,0,0
4:22.631,94547,(,0,0,1
4:22.764,94595,N,0,0,0
4:22.833,94620,),0,0,1
4:22.875,94635,(,0,0,2
4:22.908,94647,t,0,0,5
4:23.261,94774,t,0,0,5
4:23.275,94779,),0,0,2
4:23.292,94785,(,0,0,0
4:23.314,94793,p,0,0,0
4:23.342,94803,),0,0,0
4:23.403,94825,(,0,0,1
4:23.592,94893,N,0,0,0
4:23.681,94925,),0,0,1
4:23.769,94957,(,0,0,2
4:23.844,94984,t,0,0,0
4:23.972,95030,),0,0,2
4:24.067,95064,(,0,0,0
4:24.100,95076,p,0,0,0
4:24.125,95085,),0,0,0
4:24.269,95137,(,0,0,1
4:24.414,95189,N,0,0,0
4:24.500,95220,),0,0,1
4:24.619,95263,(,0,0,2
4:24.678,95284,t,0,0,0
4:24.844,95344,),0,0,2
4:24.989,95396,(,0,0,0
4:25.039,95414,p,0,0,0
4:25.108,95439,),0,0,0
4:25.144,95452,(,0,0,1
4:25.261,95494,N,0,0,0
4:25.364,95531,),0,0,1
4:25.492,95577,(,0,0,2
4:25.533,95592,t,0,0,0
4:25.706,95654,),0,0,2
4:25.764,95675,(,0,0,0
4:25.819,95695,p,0,0,0
4:25.881,95717,),0,0,0
4:25.944,95740,(,0,0,1
4:26.103,95797,N,0,0,0
4:26.194,95830,),0,0,1
4:26.303,95869,(,0,0,2
4:26.375,95895,t,0,0,5
4:26.597,95975,t,0,0,5
4:26.617,95982,),0,0,2
4:26.631,95987,(,0,0,0
4:26.658,95997,p,0,0,0
4:26.681,96005,),0,0,0
4:26.739,96026,(,0,0,1
4:26.881,96077,N,0,0,0
4:26.956,96104,),0,0,1
4:26.975,96111,(,0,0,2
4:27.128,96166,t,0,0,5
4:27.297,96227,t,0,0,5
4:27.328,96238,),0,0,2
4:27.536,96313,(,0,0,0
4:27.558,96321,p,0,0,0
4:27.642,96351,),0,0,0
4:27.656,96356,N,0,0,0
4:27.656,96356,(,0,0,1
4:27.747,96389,),0,0,1
4:27.856,96428,(,0,0,2
4:27.906,96446,t,0,0,0
4:28.050,96498,),0,0,2
4:28.075,96507,(,0,0,0
4:28.108,96519,p,0,0,0
4:28.136,96529,),0,0,0
4:28.275,96579,(,0,0,1
4:28.481,96653,N,0,0,0
4:28.561,96682,),0,0,1
4:28.703,96733,(,0,0,2
4:28.747,96749,t,0,0,0
4:28.825,96777,),0,0,2
4:28.983,96834,(,0,0,0
4:29.006,96842,p,0,0,0
4:29.025,96849,),0,0,0
4:29.083,96870,(,0,0,1
4:29.286,96943,N,0,0,0
4:29.375,96975,),0,0,1
4:29.442,96999,(,0,0,2
4:29.569,97045,t,0,0,5
4:29.803,97129,t,0,0,5
4:29.839,97142,),0,0,2
4:29.847,97145,(,0,0,0
4:29.872,97154,p,0,0,0
4:29.886,97159,),0,0,0
4:29.956,97184,(,0,0,1
4:30.106,97238,N,0,0,0
4:30.189,97268,),0,0,1
4:30.364,97331,(,0,0,2
4:30.397,97343,t,0,0,0
4:30.569,97405,),0,0,2
4:30.647,97433,(,0,0,0
4:30.672,97442,p,0,0,0
4:30.694,97450,),0,0,0
4:30.758,97473,(,0,0,1
4:30.936,97537,N,0,0,0
4:31.019,97567,),0,0,1
4:31.039,97574,(,0,0,2
4:31.228,97642,t,0,0,0
4:31.414,97709,),0,0,2
4:31.467,97728,(,0,0,0
4:31.522,97748,p,0,0,0
4:31.561,97762,),0,0,0
4:31.625,97785,(,0,0,1
4:31.769,97837,N,0,0,0
4:31.861,97870,),0,0,1
4:31.906,97886,(,0,0,2
4:32.053,97939,t,0,0,0
4:32.264,98015,),0,0,2
4:32.286,98023,(,0,0,0
4:32.319,98035,p,0,0,0
4:32.339,98042,),0,0,0
4:32.417,98070,(,0,0,1
4:32.567,98124,N,0,0,0
4:32.644,98152,),0,0,1
4:32.714,98177,(,0,0,2
4:32.828,98218,t,0,0,0
4:32.986,98275,),0,0,2
4:33.033,98292,(,0,0,0
4:33.131,98327,p,0,0,0
4:33.150,98334,),0,0,0
4:33.169,98341,(,0,0,1
4:33.331,98399,N,0,0,0
4:33.417,98430,),0,0,1
4:33.489,98456,(,0,0,2
4:33.594,98494,t,0,0,0
4:33.783,98562,),0,0,2
4:34.019,98647,(,0,0,1
4:34.150,98694,N,0,0,0
4:34.242,98727,),0,0,1
4:34.839,98942,(,0,0,0
4:34.867,98952,p,0,0,0
4:34.942,98979,),0,0,0
4:34.956,98984,(,0,0,1
4:34.978,98992,N,0,0,0
4:35.169,99061,),0,0,1
4:35.206,99074,(,0,0,2
4:35.250,99090,t,0,0,0
4:35.281,99101,),0,0,2
4:36.519,99547,(,0,0,1
4:36.622,99584,N,0,0,0
4:36.708,99615,),0,0,1
4:36.783,99642,(,0,0,2
4:36.914,99689,t,0,0,0
4:37.069,99745,),0,0,2
4:37.275,99819,(,0,0,1
4:37.464,99887,N,0,0,0
4:37.467,99888,),0,0,1
4:38.056   100100,(,0,0,2
4:38.094   100114,t,0,0,0
4:38.144   100132,),0,0,2
4:48.939   104018,(,0,0,1
4:49.003   104041,N,0,0,0
4:49.072   104066,),0,0,1
4:49.558   104241,(,0,0,2
4:49.664   104279,t,0,0,1
4:49.822   104336,),0,0,2
4:51.239   104846,(,0,0,1
4:51.333   104880,N,0,0,0
4:51.408   104907,),0,0,1
4:51.478   104932,(,0,0,2
4:51.550   104958,t,0,0,4
4:51.703   105013,t,0,0,4
4:51.744   105028,),0,0,2
4:52.036   105133,(,0,0,1
4:52.142   105171,N,0,0,0
4:52.236   105205,),0,0,1
4:52.869   105433,(,0,0,2
4:52.908   105447,t,0,0,0
4:52.958   105465,),0,0,2
4:59.300   107748,(,0,0,1
4:59.339   107762,N,0,0,0
4:59.483   107814,),0,0,1
5:00.114   108041,(,0,0,2
5:00.153   108055,t,0,0,0
5:00.200   108072,),0,0,2
5:01.744   108628,(,0,0,1
5:01.844   108664,N,0,0,0
5:01.969   108709,),0,0,1
5:02.039   108734,(,0,0,2
5:02.075   108747,t,0,0,4
5:02.192   108789,t,0,0,4
5:02.211   108796,),0,0,2
5:02.581   108929,(,0,0,1
5:02.619   108943,N,0,0,0
5:02.647   108953,),0,0,1
5:03.353   109207,(,0,0,2
5:03.392   109221,t,0,0,0
5:03.458   109245,),0,0,2
5:04.989   109796,(,0,0,1
5:05.019   109807,N,0,0,0
5:05.044   109816,),0,0,1
5:05.156   109856,(,0,0,2
5:05.233   109884,t,0,0,1
5:05.353   109927,),0,0,2
5:05.750   110070,(,0,0,1
5:05.847   110105,N,0,0,0
5:05.967   110148,),0,0,1
5:06.489   110336,(,0,0,2
5:06.564   110363,t,0,0,1
5:06.653   110395,),0,0,2
5:07.444   110680,(,0,0,1
5:07.497   110699,N,0,0,0
5:07.533   110712,),0,0,1
5:07.689   110768,(,0,0,2
5:07.758   110793,t,0,0,1
5:07.844   110824,),0,0,2
5:08.250   110970,(,0,0,1
5:08.319   110995,N,0,0,0
5:08.350   111006,),0,0,1
5:08.458   111045,(,0,0,2
5:08.486   111055,t,0,0,4
5:08.772   111158,t,0,0,4
5:08.792   111165,),0,0,2
5:08.956   111224,(,0,0,1
5:09.075   111267,N,0,0,0
5:09.119   111283,),0,0,1
5:09.203   111313,(,0,0,2
5:09.419   111391,t,0,0,1
5:09.611   111460,),0,0,2
5:09.831   111539,(,0,0,1
5:09.903   111565,N,0,0,0
5:10.017   111606,),0,0,1
5:10.250   111690,(,0,0,2
5:10.269   111697,t,0,0,0
5:10.292   111705,),0,0,2
5:10.683   111846,(,0,0,1
5:10.706   111854,N,0,0,0
5:10.733   111864,),0,0,1
5:10.942   111939,(,0,0,2
5:10.964   111947,t,0,0,1
5:11.033   111972,),0,0,2
5:11.289   112064,(,0,0,1
5:11.331   112079,N,0,0,0
5:11.411   112108,),0,0,1
5:11.483   112134,(,0,0,1
5:11.528   112150,N,0,0,0
5:11.583   112170,),0,0,1
5:13.153   112735,(,0,0,1
5:13.208   112755,N,0,0,0
5:13.289   112784,),0,0,1
5:13.353   112807,(,0,0,2
5:13.389   112820,t,0,0,1
5:13.439   112838,),0,0,2
5:13.600   112896,(,0,0,1
5:13.689   112928,N,0,0,0
5:13.722   112940,),0,0,1
5:13.764   112955,(,0,0,2
5:13.789   112964,t,0,0,0
5:13.800   112968,),0,0,2
5:13.969   113029,(,0,0,1
5:14.017   113046,N,0,0,0
5:14.094   113074,),0,0,1
5:14.753   113311,(,0,0,2
5:14.794   113326,t,0,0,0
5:14.842   113343,),0,0,2
5:15.519   113587,(,0,0,1
5:15.586   113611,N,0,0,0
5:15.675   113643,),0,0,1
5:16.372   113894,(,0,0,2
5:16.408   113907,t,0,0,0
5:16.450   113922,),0,0,2
5:18.042   114495,(,0,0,1
5:18.064   114503,N,0,0,0
5:18.164   114539,),0,0,1
5:18.489   114656,(,0,0,2
5:18.514   114665,t,0,0,4
5:18.861   114790,t,0,0,4
5:18.875   114795,),0,0,2
5:19.244   114928,(,0,0,1
5:19.319   114955,N,0,0,0
5:19.356   114968,),0,0,1
5:19.397   114983,(,0,0,2
5:19.414   114989,t,0,0,5
5:19.547   115037,t,0,0,5
5:19.575   115047,),0,0,2
5:19.756   115112,(,0,0,1
5:19.775   115119,N,0,0,0
5:19.886   115159,),0,0,1
5:19.992   115197,(,0,0,2
5:20.108   115239,t,0,0,0
5:20.219   115279,),0,0,2
5:20.506   115382,(,0,0,1
5:20.569   115405,N,0,0,0
5:20.628   115426,),0,0,1
5:20.794   115486,(,0,0,2
5:20.819   115495,t,0,0,1
5:20.850   115506,),0,0,2
5:21.186   115627,(,0,0,1
5:21.267   115656,N,0,0,0
5:21.389   115700,),0,0,1
5:21.711   115816,(,0,0,2
5:21.892   115881,t,0,0,1
5:22.092   115953,),0,0,2
5:26.883   117678,(,0,0,1
5:26.969   117709,N,0,0,0
5:26.992   117717,),0,0,1
5:27.242   117807,(,0,0,2
5:27.475   117891,t,0,0,1
5:27.767   117996,),0,0,2
5:28.547   118277,(,0,0,1
5:28.681   118325,N,0,0,0
5:28.778   118360,),0,0,1
5:29.358   118569,(,0,0,2
5:29.389   118580,t,0,0,0
5:29.489   118616,),0,0,2
6:20.942   137139,(,0,0,1
6:20.994   137158,N,0,0,0
6:21.061   137182,),0,0,1
6:21.119   137203,(,0,0,2
6:21.244   137248,t,0,0,1
6:21.369   137293,),0,0,2
6:21.761   137434,(,0,0,1
6:21.828   137458,N,0,0,0
6:21.942   137499,),0,0,1
6:22.517   137706,(,0,0,2
6:22.583   137730,t,0,0,0
6:22.667   137760,),0,0,2
6:33.003   141481,(,0,0,0
6:33.056   141500,p,0,0,0
6:33.117   141522,),0,0,0
6:33.122   141524,(,0,0,1
6:33.181   141545,N,0,0,0
6:33.231   141563,),0,0,1
6:33.300   141588,(,0,0,2
6:33.392   141621,t,0,0,4
6:33.539   141674,t,0,0,4
6:33.656   141716,),0,0,2
6:33.828   141778,(,0,0,0
6:33.844   141784,p,0,0,0
6:33.922   141812,),0,0,0
6:33.928   141814,(,0,0,1
6:33.975   141831,N,0,0,0
6:34.014   141845,),0,0,1
6:34.072   141866,(,0,0,2
6:34.139   141890,t,0,0,4
6:34.336   141961,t,0,0,4
6:34.417   141990,),0,0,2
6:34.719   142099,(,0,0,1
6:34.756   142112,N,0,0,0
6:34.817   142134,),0,0,1
6:34.842   142143,(,0,0,2
6:34.983   142194,t,0,0,4
6:35.117   142242,t,0,0,4
6:35.200   142272,),0,0,2
6:35.503   142381,(,0,0,1
6:35.547   142397,N,0,0,0
6:35.617   142422,),0,0,1
6:35.678   142444,(,0,0,2
6:35.794   142486,t,0,0,4
6:35.922   142532,t,0,0,4
6:36.003   142561,),0,0,2
6:36.319   142675,(,0,0,1
6:36.372   142694,N,0,0,0
6:36.419   142711,),0,0,1
6:36.447   142721,(,0,0,2
6:36.606   142778,t,0,0,4
6:36.742   142827,t,0,0,4
6:36.819   142855,),0,0,2
6:37.181   142985,(,0,0,1
6:37.225   143001,N,0,0,0
6:37.269   143017,),0,0,1
6:37.303   143029,(,0,0,2
6:37.458   143085,t,0,0,4
6:37.614   143141,t,0,0,4
6:37.694   143170,),0,0,2
6:37.981   143273,(,0,0,1
6:38.031   143291,N,0,0,0
6:38.067   143304,),0,0,1
6:38.736   143545,(,0,0,2
6:38.778   143560,t,0,0,0
6:38.831   143579,),0,0,2
6:39.553   143839,(,0,0,1
6:39.597   143855,N,0,0,0
6:39.633   143868,),0,0,1
6:40.350   144126,(,0,0,2
6:40.392   144141,t,0,0,0
6:40.450   144162,),0,0,2
6:41.150   144414,(,0,0,1
6:41.200   144432,N,0,0,0
6:41.264   144455,),0,0,1
6:41.294   144466,(,0,0,2
6:41.439   144518,t,0,0,1
6:41.561   144562,),0,0,2
6:41.986   144715,(,0,0,1
6:42.036   144733,N,0,0,0
6:42.069   144745,),0,0,1
6:42.139   144770,(,0,0,2
6:42.275   144819,t,0,0,4
6:42.425   144873,t,0,0,4
6:42.508   144903,),0,0,2
6:42.864   145031,(,0,0,1
6:42.906   145046,N,0,0,0
6:42.944   145060,),0,0,1
6:43.008   145083,(,0,0,2
6:43.139   145130,t,0,0,4
6:43.286   145183,t,0,0,4
6:43.364   145211,),0,0,2
6:43.692   145329,(,0,0,1
6:43.742   145347,N,0,0,0
6:43.783   145362,),0,0,1
6:44.469   145609,(,0,0,2
6:44.536   145633,t,0,0,0
6:44.589   145652,),0,0,2
7:01.450   151722,(,0,0,1
7:01.494   151738,N,0,0,0
7:01.547   151757,),0,0,1
7:02.164   151979,(,0,0,2
7:02.200   151992,t,0,0,0
7:02.244   152008,),0,0,2
7:04.567   152844,(,0,0,1
7:04.614   152861,N,0,0,0
7:04.681   152885,),0,0,1
7:04.736   152905,(,0,0,2
7:04.842   152943,t,0,0,4
7:04.997   152999,t,0,0,4
7:05.042   153015,),0,0,2
7:05.381   153137,(,0,0,1
7:05.433   153156,N,0,0,0
7:05.467   153168,),0,0,1
7:05.558   153201,(,0,0,2
7:05.653   153235,t,0,0,4
7:05.808   153291,t,0,0,4
7:05.875   153315,),0,0,2
7:06.217   153438,(,0,0,1
7:06.267   153456,N,0,0,0
7:06.344   153484,),0,0,1
7:06.356   153488,(,0,0,2
7:06.494   153538,t,0,0,4
7:06.631   153587,t,0,0,4
7:06.753   153631,),0,0,2
7:07.078   153748,(,0,0,1
7:07.122   153764,N,0,0,0
7:07.161   153778,),0,0,1
7:07.211   153796,(,0,0,2
7:07.333   153840,t,0,0,4
7:07.467   153888,t,0,0,4
7:07.553   153919,),0,0,2
7:07.908   154047,(,0,0,1
7:07.947   154061,N,0,0,0
7:08.014   154085,),0,0,1
7:08.050   154098,(,0,0,2
7:08.181   154145,t,0,0,4
7:08.278   154180,t,0,0,4
7:08.297   154187,),0,0,2
7:08.692   154329,(,0,0,1
7:08.744   154348,N,0,0,0
7:08.794   154366,),0,0,1
7:08.811   154372,(,0,0,2
7:08.958   154425,t,0,0,4
7:09.119   154483,t,0,0,4
7:09.222   154520,),0,0,2
7:09.539   154634,(,0,0,1
7:09.561   154642,N,0,0,0
7:09.603   154657,),0,0,1
7:10.319   154915,(,0,0,2
7:10.333   154920,t,0,0,1
7:10.367   154932,),0,0,2
7:20.786   158683,(,0,0,1
7:20.831   158699,N,0,0,0
7:20.878   158716,),0,0,1
7:20.981   158753,(,0,0,2
7:21.042   158775,t,0,0,1
7:21.186   158827,),0,0,2
7:21.581   158969,(,0,0,1
7:21.628   158986,N,0,0,0
7:21.664   158999,),0,0,1
7:21.728   159022,(,0,0,2
7:21.800   159048,t,0,0,4
7:21.992   159117,t,0,0,4
7:22.086   159151,),0,0,2
7:22.394   159262,(,0,0,1
7:22.436   159277,N,0,0,0
7:22.481   159293,),0,0,1
7:22.508   159303,(,0,0,2
7:22.669   159361,t,0,0,4
7:22.797   159407,t,0,0,4
7:22.903   159445,),0,0,2
7:23.264   159575,(,0,0,1
7:23.294   159586,N,0,0,0
7:23.342   159603,),0,0,1
7:24.025   159849,t,0,0,2
7:24.097   159875,),0,0,2
7:35.317   163914,(,0,0,1
7:35.358   163929,N,0,0,0
7:35.414   163949,),0,0,1
7:35.486   163975,(,0,0,2
7:35.575   164007,t,0,0,1
7:35.717   164058,),0,0,2
7:36.128   164206,(,0,0,1
7:36.172   164222,N,0,0,0
7:36.214   164237,),0,0,1
7:36.442   164319,(,0,0,2
7:36.628   164386,t,0,0,0
7:36.761   164434,),0,0,2
7:37.003   164521,(,0,0,1
7:37.050   164538,N,0,0,0
7:37.081   164549,),0,0,1
7:37.111   164560,(,0,0,2
7:37.269   164617,t,0,0,4
7:37.400   164664,t,0,0,4
7:37.478   164692,),0,0,2
7:37.822   164816,(,0,0,1
7:37.858   164829,N,0,0,0
7:37.897   164843,),0,0,1
7:37.933   164856,(,0,0,2
7:38.075   164907,t,0,0,4
7:38.206   164954,t,0,0,4
7:38.308   164991,),0,0,2
7:38.614   165101,(,0,0,1
7:38.650   165114,N,0,0,0
7:38.692   165129,),0,0,1
7:38.725   165141,(,0,0,2
7:38.872   165194,t,0,0,4
7:39.022   165248,t,0,0,4
7:39.125   165285,),0,0,2
7:39.431   165395,(,0,0,1
7:39.481   165413,N,0,0,0
7:39.522   165428,),0,0,1
7:40.250   165690,(,0,0,2
7:40.278   165700,t,0,0,0
7:40.328   165718,),0,0,2
7:55.544   171196,(,0,0,1
7:55.597   171215,N,0,0,0
7:55.661   171238,),0,0,1
7:55.667   171240,(,0,0,2
7:55.817   171294,t,0,0,4
7:55.939   171338,t,0,0,4
7:56.044   171376,),0,0,2
7:56.344   171484,(,0,0,1
7:56.383   171498,N,0,0,0
7:56.425   171513,),0,0,1
7:57.069   171745,t,0,0,2
7:57.189   171788,),0,0,2
7:57.928   172054,(,0,0,1
7:57.972   172070,N,0,0,0
7:58.025   172089,),0,0,1
7:58.106   172118,(,0,0,2
7:58.169   172141,t,0,0,4
7:58.306   172190,t,0,0,4
7:58.419   172231,),0,0,2
7:58.708   172335,(,0,0,1
7:58.758   172353,N,0,0,0
7:58.806   172370,),0,0,1
7:58.831   172379,(,0,0,2
7:58.983   172434,t,0,0,4
7:59.128   172486,t,0,0,4
7:59.244   172528,),0,0,2
7:59.542   172635,(,0,0,1
7:59.586   172651,N,0,0,0
7:59.639   172670,),0,0,1
7:59.658   172677,(,0,0,2
7:59.828   172738,t,0,0,4
7:59.972   172790,t,0,0,4
8:00.081   172829,),0,0,2
8:00.375   172935,(,0,0,1
8:00.447   172961,N,0,0,0
8:00.508   172983,),0,0,1
8:00.600   173016,(,0,0,2
8:00.703   173053,t,0,0,4
8:00.828   173098,t,0,0,4
8:00.936   173137,),0,0,2
8:01.236   173245,(,0,0,1
8:01.289   173264,N,0,0,0
8:01.339   173282,),0,0,1
8:02.069   173545,t,0,0,2
8:02.106   173558,),0,0,2
8:14.908   178167,(,0,0,1
8:14.956   178184,N,0,0,0
8:15.003   178201,),0,0,1
8:15.683   178446,(,0,0,2
8:15.722   178460,t,0,0,0
8:15.767   178476,),0,0,2
8:17.289   179024,(,0,0,1
8:17.336   179041,N,0,0,0
8:17.369   179053,),0,0,1
8:17.422   179072,(,0,0,2
8:17.561   179122,t,0,0,4
8:17.717   179178,t,0,0,4
8:17.831   179219,),0,0,2
8:18.169   179341,(,0,0,1
8:18.208   179355,N,0,0,0
8:18.258   179373,),0,0,1
8:32.692   184569,(,0,0,1
8:32.739   184586,N,0,0,0
8:32.775   184599,),0,0,1
8:32.803   184609,(,0,0,2
8:32.958   184665,t,0,0,4
8:33.072   184706,t,0,0,4
8:33.189   184748,),0,0,2
8:33.494   184858,(,0,0,1
8:33.531   184871,N,0,0,0
8:33.569   184885,),0,0,1
8:34.261   185134,(,0,0,2
8:34.322   185156,t,0,0,0
8:34.375   185175,),0,0,2
9:13.881   199397,(,0,0,1
9:13.928   199414,N,0,0,0
9:13.969   199429,),0,0,1
9:14.672   199682,t,0,0,2
9:14.742   199707,),0,0,2
9:16.133   200208,(,0,0,0
9:16.175   200223,p,0,0,0
9:16.217   200238,),0,0,0
9:16.297   200267,(,0,0,1
9:16.367   200292,N,0,0,0
9:16.406   200306,),0,0,1
9:17.103   200557,(,0,0,2
9:17.136   200569,t,0,0,0
9:17.161   200578,),0,0,2
9:26.836   204061,(,0,0,1
9:26.881   204077,N,0,0,0
9:26.919   204091,),0,0,1
9:26.992   204117,(,0,0,2
9:27.100   204156,t,0,0,1
9:27.231   204203,),0,0,2
9:27.375   204255,(,0,0,0
9:27.417   204270,p,0,0,0
9:27.453   204283,),0,0,0
9:27.558   204321,(,0,0,1
9:27.606   204338,N,0,0,0
9:27.642   204351,),0,0,1
9:27.686   204367,(,0,0,2
9:27.756   204392,t,0,0,4
9:27.953   204463,t,0,0,4
9:28.039   204494,),0,0,2
9:28.197   204551,(,0,0,0
9:28.225   204561,p,0,0,0
9:28.261   204574,),0,0,0
9:28.378   204616,(,0,0,1
9:28.428   204634,N,0,0,0
9:28.461   204646,),0,0,1
9:28.503   204661,(,0,0,2
9:28.647   204713,t,0,0,1
9:28.761   204754,),0,0,2
9:29.067   204864,(,0,0,0
9:29.106   204878,p,0,0,0
9:29.142   204891,),0,0,0
9:29.219   204919,(,0,0,1
9:29.300   204948,N,0,0,0
9:29.336   204961,),0,0,1
9:29.386   204979,(,0,0,2
9:29.519   205027,t,0,0,4
9:29.678   205084,t,0,0,4
9:29.808   205131,),0,0,2
9:29.917   205170,(,0,0,0
9:29.969   205189,p,0,0,0
9:30.008   205203,),0,0,0
9:30.075   205227,(,0,0,1
9:30.164   205259,N,0,0,0
9:30.203   205273,),0,0,1
9:30.889   205520,(,0,0,2
9:30.922   205532,t,0,0,0
9:30.956   205544,),0,0,2
9:40.500   208980,(,0,0,1
9:40.544   208996,N,0,0,0
9:40.611   209020,),0,0,1
9:40.681   209045,(,0,0,2
9:40.758   209073,t,0,0,4
9:40.964   209147,t,0,0,4
9:41.019   209167,),0,0,2
9:41.086   209191,(,0,0,0
9:41.131   209207,p,0,0,0
9:41.167   209220,),0,0,0
9:41.286   209263,(,0,0,1
9:41.336   209281,N,0,0,0
9:41.406   209306,),0,0,1
9:41.458   209325,(,0,0,2
9:41.556   209360,t,0,0,4
9:41.725   209421,t,0,0,4
9:41.833   209460,),0,0,2
9:41.967   209508,(,0,0,0
9:42.014   209525,p,0,0,0
9:42.056   209540,),0,0,0
9:42.156   209576,(,0,0,1
9:42.217   209598,N,0,0,0
9:42.250   209610,),0,0,1
9:42.278   209620,(,0,0,2
9:42.444   209680,t,0,0,4
9:42.581   209729,t,0,0,4
9:42.689   209768,),0,0,2
9:42.817   209814,(,0,0,0
9:42.861   209830,p,0,0,0
9:42.903   209845,),0,0,0
9:43.003   209881,(,0,0,1
9:43.053   209899,N,0,0,0
9:43.092   209913,),0,0,1
9:43.150   209934,(,0,0,2
9:43.278   209980,t,0,0,4
9:43.419   210031,t,0,0,4
9:43.544   210076,),0,0,2
9:43.697   210131,(,0,0,0
9:43.731   210143,p,0,0,0
9:43.761   210154,),0,0,0
9:43.842   210183,(,0,0,1
9:43.933   210216,N,0,0,0
9:43.969   210229,),0,0,1
9:44.639   210470,(,0,0,2
9:44.672   210482,t,0,0,0
9:44.719   210499,),0,0,2
9:53.461   213646,(,0,0,1
9:53.508   213663,N,0,0,0
9:53.547   213677,),0,0,1
9:53.667   213720,(,0,0,2
9:53.742   213747,t,0,0,1
9:53.897   213803,),0,0,2
9:54.053   213859,(,0,0,0
9:54.094   213874,p,0,0,0
9:54.125   213885,),0,0,0
9:54.253   213931,(,0,0,1
9:54.303   213949,N,0,0,0
9:54.369   213973,),0,0,1
9:54.422   213992,(,0,0,2
9:54.514   214025,t,0,0,4
9:54.681   214085,t,0,0,4
9:54.750   214110,),0,0,2
9:54.942   214179,(,0,0,0
9:54.986   214195,p,0,0,0
9:55.022   214208,),0,0,0
9:55.131   214247,(,0,0,1
9:55.186   214267,N,0,0,0
9:55.225   214281,),0,0,1
   10:03.958   217425,(,0,0,1
   10:04.003   217441,N,0,0,0
   10:04.039   217454,),0,0,1
   10:04.158   217497,(,0,0,2
   10:04.219   217519,t,0,0,1
   10:04.356   217568,),0,0,2
   10:04.492   217617,(,0,0,0
   10:04.542   217635,p,0,0,0
   10:04.592   217653,),0,0,0
   10:04.706   217694,(,0,0,1
   10:04.756   217712,N,0,0,0
   10:04.794   217726,),0,0,1
   10:04.875   217755,(,0,0,2
   10:04.953   217783,t,0,0,4
   10:05.344   217924,t,0,0,4
   10:05.389   217940,),0,0,2
   10:05.617   218022,(,0,0,1
   10:05.678   218044,N,0,0,0
   10:05.717   218058,),0,0,1
   10:06.439   218318,(,0,0,2
   10:06.472   218330,t,0,0,0
   10:06.497   218339,),0,0,2
   10:14.317   221154,(,0,0,0
   10:14.342   221163,p,0,0,0
   10:14.394   221182,),0,0,0
   10:14.547   221237,(,0,0,1
   10:14.600   221256,N,0,0,0
   10:14.633   221268,),0,0,1
   10:14.669   221281,(,0,0,2
   10:14.817   221334,t,0,0,1
   10:14.939   221378,),0,0,2
   10:15.147   221453,(,0,0,0
   10:15.194   221470,p,0,0,0
   10:15.233   221484,),0,0,0
   10:15.344   221524,(,0,0,1
   10:15.383   221538,N,0,0,0
   10:15.422   221552,),0,0,1
   10:15.481   221573,(,0,0,2
   10:15.597   221615,t,0,0,4
   10:15.725   221661,t,0,0,4
   10:15.753   221671,),0,0,2
   10:15.981   221753,(,0,0,0
   10:16.031   221771,p,0,0,0
   10:16.069   221785,),0,0,0
   10:16.139   221810,(,0,0,1
   10:16.219   221839,N,0,0,0
   10:16.253   221851,),0,0,1
   10:16.950   222102,(,0,0,2
   10:16.981   222113,t,0,0,0
   10:17.064   222143,),0,0,2
   10:24.239   224726,(,0,0,1
   10:24.286   224743,N,0,0,0
   10:24.325   224757,),0,0,1
   10:24.442   224799,(,0,0,2
   10:24.503   224821,t,0,0,1
   10:24.656   224876,),0,0,2
   10:24.850   224946,(,0,0,0
   10:24.903   224965,p,0,0,0
   10:24.944   224980,),0,0,0
   10:25.056   225020,(,0,0,1
   10:25.106   225038,N,0,0,0
   10:25.147   225053,),0,0,1
   10:25.197   225071,(,0,0,2
   10:25.342   225123,t,0,0,4
   10:25.503   225181,t,0,0,4
   10:25.622   225224,),0,0,2
   10:25.750   225270,(,0,0,0
   10:25.800   225288,p,0,0,0
   10:25.836   225301,),0,0,0
   10:25.953   225343,(,0,0,1
   10:25.997   225359,N,0,0,0
   10:26.036   225373,),0,0,1
   10:26.739   225626,(,0,0,2
   10:26.772   225638,t,0,0,0
   10:26.792   225645,),0,0,2
   10:35.578   228808,(,0,0,1
   10:35.625   228825,N,0,0,0
   10:35.661   228838,),0,0,1
   10:35.742   228867,(,0,0,2
   10:35.842   228903,t,0,0,1
   10:36.008   228963,),0,0,2
   10:36.186   229027,(,0,0,0
   10:36.233   229044,p,0,0,0
   10:36.275   229059,),0,0,0
   10:36.386   229099,(,0,0,1
   10:36.436   229117,N,0,0,0
   10:36.469   229129,),0,0,1
   10:36.542   229155,(,0,0,2
   10:36.625   229185,t,0,0,4
   10:36.789   229244,t,0,0,4
   10:36.906   229286,),0,0,2
   10:37.036   229333,(,0,0,0
   10:37.078   229348,p,0,0,0
   10:37.117   229362,),0,0,0
   10:37.233   229404,(,0,0,1
   10:37.292   229425,N,0,0,0
   10:37.328   229438,),0,0,1
   10:37.397   229463,(,0,0,2
   10:37.533   229512,t,0,0,4
   10:37.675   229563,t,0,0,4
   10:37.714   229577,),0,0,2
   10:37.944   229660,(,0,0,0
   10:37.981   229673,p,0,0,0
   10:38.011   229684,),0,0,0
   10:38.097   229715,(,0,0,1
   10:38.169   229741,N,0,0,0
   10:38.206   229754,),0,0,1
   10:38.867   229992,(,0,0,2
   10:38.900   230004,t,0,0,0
   10:38.958   230025,),0,0,2
   10:47.433   233076,(,0,0,0
   10:47.481   233093,p,0,0,0
   10:47.583   233130,),0,0,0
   10:47.717   233178,(,0,0,1
   10:47.767   233196,N,0,0,0
   10:47.803   233209,),0,0,1
   10:47.942   233259,(,0,0,2
   10:47.992   233277,t,0,0,1
   10:48.142   233331,),0,0,2
   10:48.317   233394,(,0,0,0
   10:48.364   233411,p,0,0,0
   10:48.400   233424,),0,0,0
   10:48.514   233465,(,0,0,1
   10:48.561   233482,N,0,0,0
   10:48.597   233495,),0,0,1
   10:48.672   233522,(,0,0,2
   10:48.767   233556,t,0,0,4
   10:48.939   233618,t,0,0,4
   10:49.044   233656,),0,0,2
   10:49.406   233786,(,0,0,1
   10:49.453   233803,N,0,0,0
   10:49.494   233818,),0,0,1
   10:49.522   233828,(,0,0,2
   10:49.694   233890,t,0,0,4
   10:49.825   233937,t,0,0,4
   10:49.931   233975,),0,0,2
   10:50.061   234022,(,0,0,0
   10:50.108   234039,p,0,0,0
   10:50.147   234053,),0,0,0
   10:50.236   234085,(,0,0,1
   10:50.311   234112,N,0,0,0
   10:50.350   234126,),0,0,1
   10:50.997   234359,(,0,0,2
   10:51.028   234370,t,0,0,0
   10:51.081   234389,),0,0,2
   10:58.839   237182,(,0,0,0
   10:58.983   237234,p,0,0,0
   10:59.017   237246,),0,0,0
   10:59.053   237259,(,0,0,1
   10:59.103   237277,N,0,0,0
   10:59.147   237293,),0,0,1
   10:59.192   237309,(,0,0,2
   10:59.339   237362,t,0,0,1
   10:59.469   237409,),0,0,2
   10:59.694   237490,(,0,0,0
   10:59.744   237508,p,0,0,0
   10:59.783   237522,),0,0,0
   10:59.906   237566,(,0,0,1
   10:59.956   237584,N,0,0,0
   10:59.986   237595,),0,0,1
   11:00.036   237613,(,0,0,2
   11:00.172   237662,t,0,0,4
   11:00.306   237710,t,0,0,4
   11:00.406   237746,),0,0,2
   11:00.558   237801,(,0,0,0
   11:00.606   237818,p,0,0,0
   11:00.656   237836,),0,0,0
   11:00.753   237871,(,0,0,1
   11:00.819   237895,N,0,0,0
   11:00.858   237909,),0,0,1
   11:08.833   240780,(,0,0,1
   11:08.881   240797,N,0,0,0
   11:08.919   240811,),0,0,1
   11:08.953   240823,(,0,0,2
   11:09.089   240872,t,0,0,4
   11:09.264   240935,t,0,0,4
   11:09.303   240949,),0,0,2
   11:09.439   240998,(,0,0,0
   11:09.481   241013,p,0,0,0
   11:09.519   241027,),0,0,0
   11:09.622   241064,(,0,0,1
   11:09.667   241080,N,0,0,0
   11:09.697   241091,),0,0,1
   11:09.722   241100,(,0,0,2
   11:09.867   241152,t,0,0,4
   11:10.014   241205,t,0,0,4
   11:10.089   241232,),0,0,2
   11:10.300   241308,(,0,0,0
   11:10.336   241321,p,0,0,0
   11:10.372   241334,),0,0,0
   11:10.442   241359,(,0,0,1
   11:10.528   241390,N,0,0,0
   11:10.564   241403,),0,0,1
   11:11.269   241657,(,0,0,2
   11:11.300   241668,t,0,0,0
   11:11.383   241698,),0,0,2
   11:18.303   244189,(,0,0,0
   11:18.311   244192,p,0,0,0
   11:18.372   244214,),0,0,0
   11:18.547   244277,(,0,0,1
   11:18.594   244294,N,0,0,0
   11:18.633   244308,),0,0,1
   11:18.756   244352,(,0,0,2
   11:18.825   244377,t,0,0,4
   11:19.147   244493,t,0,0,4
   11:19.178   244504,),0,0,2
   11:19.217   244518,(,0,0,0
   11:19.269   244537,p,0,0,0
   11:19.308   244551,),0,0,0
   11:19.428   244594,(,0,0,1
   11:19.478   244612,N,0,0,0
   11:19.508   244623,),0,0,1
   11:20.217   244878,t,0,0,2
   11:20.278   244900,),0,0,2
   11:27.900   247644,(,0,0,0
   11:28.033   247692,p,0,0,0
   11:28.072   247706,),0,0,0
   11:28.219   247759,(,0,0,1
   11:28.267   247776,N,0,0,0
   11:28.303   247789,),0,0,1
   11:28.392   247821,(,0,0,2
   11:28.489   247856,t,0,0,4
   11:28.675   247923,t,0,0,4
   11:28.733   247944,),0,0,2
   11:28.872   247994,(,0,0,0
   11:28.928   248014,p,0,0,0
   11:28.981   248033,),0,0,0
   11:29.072   248066,(,0,0,1
   11:29.117   248082,N,0,0,0
   11:29.153   248095,),0,0,1
   11:29.200   248112,(,0,0,2
   11:29.606   248258,t,0,0,1
   11:29.942   248379,),0,0,2
   11:38.072   251306,(,0,0,1
   11:38.117   251322,N,0,0,0
   11:38.150   251334,),0,0,1
   11:38.242   251367,(,0,0,2
   11:38.319   251395,t,0,0,1
   11:38.442   251439,),0,0,2
   11:38.567   251484,(,0,0,0
   11:38.611   251500,p,0,0,0
   11:38.642   251511,),0,0,0
   11:38.758   251553,(,0,0,1
   11:38.803   251569,N,0,0,0
   11:38.839   251582,),0,0,1
   11:38.931   251615,(,0,0,2
   11:38.972   251630,t,0,0,4
   11:39.192   251709,t,0,0,4
   11:39.228   251722,),0,0,2
   11:39.433   251796,(,0,0,0
   11:39.469   251809,p,0,0,0
   11:39.503   251821,),0,0,0
   11:39.589   251852,(,0,0,1
   11:39.650   251874,N,0,0,0
   11:39.686   251887,),0,0,1
   11:40.392   252141,(,0,0,2
   11:40.422   252152,t,0,0,0
   11:40.453   252163,),0,0,2
   11:48.275   254979,(,0,0,0
   11:48.300   254988,p,0,0,0
   11:48.353   255007,),0,0,0
   11:48.522   255068,(,0,0,1
   11:48.578   255088,N,0,0,0
   11:48.619   255103,),0,0,1
   11:48.650   255114,(,0,0,2
   11:48.819   255175,t,0,0,4
   11:49.000   255240,t,0,0,4
   11:49.092   255273,),0,0,2
   11:49.217   255318,(,0,0,0
   11:49.264   255335,p,0,0,0
   11:49.303   255349,),0,0,0
   11:49.419   255391,(,0,0,1
   11:49.458   255405,N,0,0,0
   11:49.497   255419,),0,0,1
   11:50.122   255644,(,0,0,2
   11:50.181   255665,t,0,0,4
   11:50.244   255688,t,0,0,4
   11:50.256   255692,),0,0,2
   11:57.203   258193,(,0,0,0
   11:57.219   258199,p,0,0,0
   11:57.275   258219,),0,0,0
   11:57.439   258278,(,0,0,1
   11:57.486   258295,N,0,0,0
   11:57.517   258306,),0,0,1
   11:57.567   258324,(,0,0,2
   11:57.725   258381,t,0,0,4
   11:58.000   258480,t,0,0,4
   11:58.028   258490,),0,0,2
   11:58.067   258504,(,0,0,0
   11:58.108   258519,p,0,0,0
   11:58.142   258531,),0,0,0
   11:58.267   258576,(,0,0,1
   11:58.311   258592,N,0,0,0
   11:58.353   258607,),0,0,1
   11:59.050   258858,t,0,0,2
   11:59.114   258881,),0,0,2
   12:05.575   261207,(,0,0,1
   12:05.622   261224,N,0,0,0
   12:05.658   261237,),0,0,1
   12:05.697   261251,(,0,0,2
   12:05.847   261305,t,0,0,1
   12:05.983   261354,),0,0,2
   12:06.119   261403,(,0,0,0
   12:06.153   261415,p,0,0,0
   12:06.186   261427,),0,0,0
   12:06.294   261466,(,0,0,1
   12:06.342   261483,N,0,0,0
   12:06.381   261497,),0,0,1
   12:06.489   261536,(,0,0,2
   12:06.575   261567,t,0,0,4
   12:06.728   261622,t,0,0,4
   12:06.839   261662,),0,0,2
   12:12.864   263831,(,0,0,1
   12:12.914   263849,N,0,0,0
   12:12.950   263862,),0,0,1
   12:12.994   263878,(,0,0,2
   12:13.142   263931,t,0,0,4
   12:13.283   263982,t,0,0,4
   12:13.431   264035,),0,0,2
   12:13.458   264045,(,0,0,0
   12:13.511   264064,p,0,0,0
   12:13.550   264078,),0,0,0
   12:13.664   264119,(,0,0,1
   12:13.714   264137,N,0,0,0
   12:13.744   264148,),0,0,1
   12:13.836   264181,(,0,0,2
   12:13.928   264214,t,0,0,4
   12:14.050   264258,t,0,0,4
   12:14.119   264283,),0,0,2
   12:14.300   264348,(,0,0,0
   12:14.353   264367,p,0,0,0
   12:14.389   264380,),0,0,0
   12:14.472   264410,(,0,0,1
   12:14.536   264433,N,0,0,0
   12:14.572   264446,),0,0,1
   12:15.244   264688,(,0,0,2
   12:15.275   264699,t,0,0,0
   12:15.342   264723,),0,0,2
   12:22.297   267227,(,0,0,0
   12:22.325   267237,p,0,0,0
   12:22.372   267254,),0,0,0
   12:22.522   267308,(,0,0,1
   12:22.569   267325,N,0,0,0
   12:22.608   267339,),0,0,1
   12:22.700   267372,(,0,0,2
   12:22.800   267408,t,0,0,1
   12:22.925   267453,),0,0,2
   12:23.147   267533,(,0,0,0
   12:23.186   267547,p,0,0,0
   12:23.225   267561,),0,0,0
   12:23.333   267600,(,0,0,1
   12:23.383   267618,N,0,0,0
   12:23.417   267630,),0,0,1
   12:23.486   267655,(,0,0,2
   12:23.608   267699,t,0,0,4
   12:23.742   267747,t,0,0,4
   12:23.858   267789,),0,0,2
   12:24.033   267852,(,0,0,0
   12:24.069   267865,p,0,0,0
   12:24.111   267880,),0,0,0
   12:24.211   267916,(,0,0,1
   12:24.281   267941,N,0,0,0
   12:24.322   267956,),0,0,1
   12:25.044   268216,t,0,0,2
   12:25.089   268232,),0,0,2
   12:32.833   271020,(,0,0,0
   12:32.875   271035,p,0,0,0
   12:32.981   271073,),0,0,0
   12:33.028   271090,(,0,0,1
   12:33.072   271106,N,0,0,0
   12:33.111   271120,),0,0,1
   12:33.172   271142,(,0,0,2
   12:33.300   271188,t,0,0,1
   12:33.444   271240,),0,0,2
   12:33.667   271320,(,0,0,0
   12:33.706   271334,p,0,0,0
   12:33.742   271347,),0,0,0
   12:33.850   271386,(,0,0,1
   12:33.900   271404,N,0,0,0
   12:33.936   271417,),0,0,1
   12:33.961   271426,(,0,0,2
   12:34.122   271484,t,0,0,4
   12:34.267   271536,t,0,0,4
   12:34.389   271580,),0,0,2
   12:34.486   271615,(,0,0,0
   12:34.528   271630,p,0,0,0
   12:34.567   271644,),0,0,0
   12:34.675   271683,(,0,0,1
   12:34.728   271702,N,0,0,0
   12:34.767   271716,),0,0,1
   12:34.803   271729,(,0,0,2
   12:34.950   271782,t,0,0,4
   12:35.094   271834,t,0,0,4
   12:35.211   271876,),0,0,2
   12:35.336   271921,(,0,0,0
   12:35.372   271934,p,0,0,0
   12:35.403   271945,),0,0,0
   12:35.489   271976,(,0,0,1
   12:35.572   272006,N,0,0,0
   12:35.611   272020,),0,0,1
   12:36.336   272281,t,0,0,2
   12:36.378   272296,),0,0,2
   12:44.172   275102,(,0,0,0
   12:44.200   275112,p,0,0,0
   12:44.319   275155,),0,0,0
   12:44.394   275182,(,0,0,1
   12:44.442   275199,N,0,0,0
   12:44.481   275213,),0,0,1
   12:44.586   275251,(,0,0,2
   12:44.656   275276,t,0,0,4
   12:44.817   275334,t,0,0,4
   12:44.858   275349,),0,0,2
   12:45.000   275400,(,0,0,0
   12:45.042   275415,p,0,0,0
   12:45.078   275428,),0,0,0
   12:45.194   275470,(,0,0,1
   12:45.250   275490,N,0,0,0
   12:45.283   275502,),0,0,1
   12:45.317   275514,(,0,0,2
   12:45.461   275566,t,0,0,4
   12:45.594   275614,t,0,0,4
   12:45.686   275647,),0,0,2
   12:45.875   275715,(,0,0,0
   12:45.919   275731,p,0,0,0
   12:45.958   275745,),0,0,0
   12:46.042   275775,(,0,0,1
   12:46.122   275804,N,0,0,0
   12:46.158   275817,),0,0,1
   12:46.836   276061,(,0,0,2
   12:46.869   276073,t,0,0,0
   12:46.947   276101,),0,0,2
   12:52.922   278252,(,0,0,0
   12:53.064   278303,p,0,0,0
   12:53.083   278310,),0,0,0
   12:53.294   278386,(,0,0,1
   12:53.344   278404,N,0,0,0
   12:53.378   278416,),0,0,1
   12:53.408   278427,(,0,0,2
   12:53.586   278491,t,0,0,1
   12:53.719   278539,),0,0,2
   12:53.928   278614,(,0,0,0
   12:53.981   278633,p,0,0,0
   12:54.019   278647,),0,0,0
   12:54.156   278696,(,0,0,1
   12:54.211   278716,N,0,0,0
   12:54.244   278728,),0,0,1
   12:54.272   278738,(,0,0,2
   12:54.433   278796,t,0,0,4
   12:54.800   278928,t,0,0,4
   12:54.833   278940,),0,0,2
   12:54.867   278952,(,0,0,0
   12:54.911   278968,p,0,0,0
   12:54.944   278980,),0,0,0
   12:55.031   279011,(,0,0,1
   12:55.119   279043,N,0,0,0
   12:55.156   279056,),0,0,1
   12:55.822   279296,(,0,0,2
   12:55.853   279307,t,0,0,0
   12:55.947   279341,),0,0,2
   13:01.497   281339,(,0,0,1
   13:01.544   281356,N,0,0,0
   13:01.578   281368,),0,0,1
   13:01.619   281383,(,0,0,2
   13:01.775   281439,t,0,0,1
   13:01.906   281486,),0,0,2
   13:02.089   281552,(,0,0,0
   13:02.133   281568,p,0,0,0
   13:02.169   281581,),0,0,0
   13:02.294   281626,(,0,0,1
   13:02.344   281644,N,0,0,0
   13:02.378   281656,),0,0,1
   13:03.100   281916,(,0,0,2
   13:03.131   281927,t,0,0,0
   13:03.164   281939,),0,0,2
   13:09.303   284149,(,0,0,0
   13:09.311   284152,p,0,0,0
   13:09.361   284170,),0,0,0
   13:09.586   284251,(,0,0,1
   13:09.631   284267,N,0,0,0
   13:09.667   284280,),0,0,1
   13:09.708   284295,(,0,0,2
   13:09.869   284353,t,0,0,1
   13:09.992   284397,),0,0,2
   13:10.183   284466,(,0,0,0
   13:10.236   284485,p,0,0,0
   13:10.272   284498,),0,0,0
   13:10.389   284540,(,0,0,1
   13:10.431   284555,N,0,0,0
   13:10.472   284570,),0,0,1
   13:11.189   284828,(,0,0,2
   13:11.219   284839,t,0,0,0
   13:11.258   284853,),0,0,2
   13:17.444   287080,(,0,0,0
   13:17.469   287089,p,0,0,0
   13:17.514   287105,),0,0,0
   13:17.697   287171,(,0,0,1
   13:17.750   287190,N,0,0,0
   13:17.786   287203,),0,0,1
   13:17.894   287242,(,0,0,2
   13:18.008   287283,t,0,0,1
   13:18.147   287333,),0,0,2
   13:18.389   287420,(,0,0,0
   13:18.439   287438,p,0,0,0
   13:18.478   287452,),0,0,0
   13:18.583   287490,(,0,0,1
   13:18.642   287511,N,0,0,0
   13:18.681   287525,),0,0,1
   13:19.389   287780,(,0,0,2
   13:19.419   287791,t,0,0,0
   13:19.500   287820,),0,0,2
   13:25.839   290102,(,0,0,1
   13:25.928   290134,N,0,0,0
   13:25.942   290139,),0,0,1
   13:26.039   290174,(,0,0,2
   13:26.108   290199,t,0,0,4
   13:26.494   290338,t,0,0,4
   13:26.539   290354,),0,0,2
   13:26.633   290388,(,0,0,1
   13:26.822   290456,N,0,0,0
   13:26.825   290457,),0,0,1
   13:27.353   290647,(,0,0,0
   13:27.433   290676,p,0,0,0
   13:27.475   290691,),0,0,0
   13:27.508   290703,(,0,0,1
   13:27.678   290764,N,0,0,0
   13:27.897   290843,),0,0,1
   13:28.269   290977,(,0,0,2
   13:28.303   290989,t,0,0,0
   13:28.372   291014,),0,0,2
   13:34.664   293279,(,0,0,0
   13:34.694   293290,p,0,0,0
   13:34.731   293303,),0,0,0
   13:34.753   293311,(,0,0,1
   13:34.839   293342,N,0,0,0
   13:35.056   293420,),0,0,1
   13:35.119   293443,(,0,0,2
   13:35.175   293463,t,0,0,1
   13:35.222   293480,),0,0,2
   13:35.339   293522,(,0,0,0
   13:35.369   293533,p,0,0,0
   13:35.403   293545,),0,0,0
   13:35.528   293590,(,0,0,1
   13:35.572   293606,N,0,0,0
   13:35.617   293622,),0,0,1
   13:35.858   293709,(,0,0,2
   13:36.125   293805,t,0,0,0
   13:36.336   293881,),0,0,2
   13:43.500   296460,(,0,0,0
   13:43.558   296481,p,0,0,0
   13:43.658   296517,),0,0,0
   13:43.669   296521,(,0,0,1
   13:43.808   296571,N,0,0,0
   13:44.042   296655,),0,0,1
   13:44.114   296681,(,0,0,2
   13:44.144   296692,t,0,0,1
   13:44.169   296701,),0,0,2
   13:47.700   297972,(,0,0,1
   13:47.842   298023,N,0,0,0
   13:47.933   298056,),0,0,1
   13:47.964   298067,(,0,0,2
   13:48.125   298125,t,0,0,0
   13:48.275   298179,),0,0,2
   13:48.553   298279,(,0,0,1
   13:48.589   298292,N,0,0,0
   13:48.781   298361,),0,0,1
   13:48.975   298431,(,0,0,2
   13:49.275   298539,t,0,0,4
   13:49.394   298582,t,0,0,4
   13:49.492   298617,),0,0,2
   13:50.136   298849,(,0,0,1
   13:50.289   298904,N,0,0,0
   13:50.358   298929,),0,0,1
   13:50.503   298981,(,0,0,2
   13:50.572   299006,t,0,0,0
   13:50.711   299056,),0,0,2
   13:50.947   299141,(,0,0,1
   13:51.086   299191,N,0,0,0
   13:51.183   299226,),0,0,1
   13:51.264   299255,(,0,0,2
   13:51.369   299293,t,0,0,0
   13:51.461   299326,),0,0,2
   13:51.700   299412,(,0,0,1
   13:51.753   299431,N,0,0,0
   13:51.794   299446,),0,0,1
   13:51.839   299462,(,0,0,2
   13:51.978   299512,t,0,0,4
   13:52.147   299573,t,0,0,4
   13:52.183   299586,),0,0,2
   13:52.353   299647,(,0,0,0
   13:52.394   299662,p,0,0,0
   13:52.431   299675,),0,0,0
   13:52.517   299706,(,0,0,1
   13:52.581   299729,N,0,0,0
   13:52.619   299743,),0,0,1
   13:52.686   299767,(,0,0,2
   13:52.794   299806,t,0,0,4
   13:52.956   299864,t,0,0,4
   13:53.061   299902,),0,0,2
   13:53.253   299971,(,0,0,0
   13:53.297   299987,p,0,0,0
   13:53.336   300001,),0,0,0
   13:53.361   300010,(,0,0,1
   13:53.397   300023,N,0,0,0
   13:53.419   300031,),0,0,1
   13:53.494   300058,(,0,0,2
   13:53.519   300067,t,0,0,5
   13:53.556   300080,t,0,0,5
   13:53.617   300102,),0,0,2
   13:54.175   300303,(,0,0,1
   13:54.256   300332,N,0,0,0
   13:54.453   300403,),0,0,1
   13:54.514   300425,(,0,0,2
   13:54.633   300468,t,0,0,0
   13:54.778   300520,),0,0,2
   13:55.033   300612,(,0,0,1
   13:55.181   300665,N,0,0,0
   13:55.258   300693,),0,0,1
   13:55.289   300704,(,0,0,2
   13:55.439   300758,t,0,0,0
   13:55.606   300818,),0,0,2
   13:55.853   300907,(,0,0,1
   13:55.994   300958,N,0,0,0
   13:56.056   300980,),0,0,1
   13:56.083   300990,(,0,0,2
   13:56.250   301050,t,0,0,0
   13:56.414   301109,),0,0,2
   13:56.639   301190,(,0,0,1
   13:56.781   301241,N,0,0,0
   13:56.850   301266,),0,0,1
   13:56.861   301270,(,0,0,2
   13:56.997   301319,t,0,0,0
   13:57.194   301390,),0,0,2
   13:57.442   301479,(,0,0,1
   13:57.572   301526,N,0,0,0
   13:57.644   301552,),0,0,1
   13:57.750   301590,(,0,0,2
   13:57.825   301617,t,0,0,0
   13:58.014   301685,),0,0,2
   13:58.217   301758,(,0,0,1
   13:58.344   301804,N,0,0,0
   13:58.425   301833,),0,0,1
   13:58.481   301853,(,0,0,2
   13:58.617   301902,t,0,0,0
   13:58.700   301932,),0,0,2
   13:59.017   302046,(,0,0,1
   13:59.072   302066,N,0,0,0
   13:59.114   302081,),0,0,1
   13:59.153   302095,(,0,0,2
   13:59.328   302158,t,0,0,1
   13:59.472   302210,),0,0,2
   13:59.697   302291,(,0,0,0
   13:59.744   302308,p,0,0,0
   13:59.781   302321,),0,0,0
   13:59.889   302360,(,0,0,1
   13:59.950   302382,N,0,0,0
   13:59.986   302395,),0,0,1
   14:06.400   304704,(,0,0,1
   14:06.453   304723,N,0,0,0
   14:06.492   304737,),0,0,1
   14:07.217   304998,(,0,0,2
   14:07.247   305009,t,0,0,0
   14:07.275   305019,),0,0,2
   14:12.900   307044,(,0,0,1
   14:12.947   307061,N,0,0,0
   14:12.989   307076,),0,0,1
   14:13.092   307113,(,0,0,2
   14:13.186   307147,t,0,0,1
   14:13.303   307189,),0,0,2
   14:13.531   307271,(,0,0,0
   14:13.578   307288,p,0,0,0
   14:13.611   307300,),0,0,0
   14:13.714   307337,(,0,0,1
   14:13.778   307360,N,0,0,0
   14:13.814   307373,),0,0,1
   14:14.519   307627,(,0,0,2
   14:14.550   307638,t,0,0,0
   14:14.639   307670,),0,0,2
   14:20.167   309660,(,0,0,1
   14:20.219   309679,N,0,0,0
   14:20.264   309695,),0,0,1
   14:20.289   309704,(,0,0,2
   14:20.461   309766,t,0,0,4
   14:20.736   309865,t,0,0,4
   14:20.781   309881,),0,0,2
   14:20.822   309896,(,0,0,0
   14:20.869   309913,p,0,0,0
   14:20.906   309926,),0,0,0
   14:21.017   309966,(,0,0,1
   14:21.064   309983,N,0,0,0
   14:21.106   309998,),0,0,1
   14:21.803   310249,(,0,0,2
   14:21.836   310261,t,0,0,0
   14:21.883   310278,),0,0,2
   14:27.436   312277,(,0,0,1
   14:27.492   312297,N,0,0,0
   14:27.528   312310,),0,0,1
   14:27.614   312341,(,0,0,2
   14:27.703   312373,t,0,0,4
   14:27.889   312440,t,0,0,4
   14:27.944   312460,),0,0,2
   14:28.069   312505,(,0,0,0
   14:28.103   312517,p,0,0,0
   14:28.139   312530,),0,0,0
   14:28.231   312563,(,0,0,1
   14:28.292   312585,N,0,0,0
   14:28.322   312596,),0,0,1
   14:28.547   312677,(,0,0,2
   14:28.828   312778,t,0,0,0
   14:29.047   312857,),0,0,2
   14:35.589   315212,(,0,0,1
   14:35.644   315232,N,0,0,0
   14:35.686   315247,),0,0,1
   14:35.747   315269,(,0,0,2
   14:35.883   315318,t,0,0,4
   14:36.061   315382,t,0,0,4
   14:36.103   315397,),0,0,2
   14:36.289   315464,(,0,0,0
   14:36.331   315479,p,0,0,0
   14:36.358   315489,),0,0,0
   14:36.447   315521,(,0,0,1
   14:36.517   315546,N,0,0,0
   14:36.553   315559,),0,0,1
   14:36.594   315574,(,0,0,2
   14:36.744   315628,t,0,0,4
   14:37.231   315803,t,0,0,4
   14:37.264   315815,),0,0,2
   14:42.919   317851,(,0,0,1
   14:42.975   317871,N,0,0,0
   14:43.011   317884,),0,0,1
   14:43.056   317900,(,0,0,2
   14:43.208   317955,t,0,0,1
   14:43.342   318003,),0,0,2
   14:43.561   318082,(,0,0,0
   14:43.600   318096,p,0,0,0
   14:43.633   318108,),0,0,0
   14:43.744   318148,(,0,0,1
   14:43.797   318167,N,0,0,0
   14:43.831   318179,),0,0,1
   14:43.892   318201,(,0,0,2
   14:44.022   318248,t,0,0,4
   14:44.167   318300,t,0,0,4
   14:44.292   318345,),0,0,2
   14:44.431   318395,(,0,0,0
   14:44.472   318410,p,0,0,0
   14:44.514   318425,),0,0,0
   14:44.572   318446,(,0,0,1
   14:44.675   318483,N,0,0,0
   14:44.711   318496,),0,0,1
   14:45.375   318735,(,0,0,2
   14:45.406   318746,t,0,0,0
   14:45.494   318778,),0,0,2
   14:51.067   320784,(,0,0,1
   14:51.125   320805,N,0,0,0
   14:51.161   320818,),0,0,1
   14:51.842   321063,(,0,0,2
   14:51.875   321075,t,0,0,0
   14:51.894   321082,),0,0,2
   14:57.542   323115,(,0,0,1
   14:57.589   323132,N,0,0,0
   14:57.625   323145,),0,0,1
   14:57.658   323157,(,0,0,2
   14:57.808   323211,t,0,0,4
   14:57.958   323265,t,0,0,4
   14:58.017   323286,),0,0,2
   14:58.147   323333,(,0,0,0
   14:58.200   323352,p,0,0,0
   14:58.236   323365,),0,0,0
   14:58.292   323385,(,0,0,1
   14:58.403   323425,N,0,0,0
   14:58.442   323439,),0,0,1
   14:58.481   323453,(,0,0,2
   14:58.619   323503,t,0,0,4
   14:59.008   323643,t,0,0,4
   14:59.061   323662,),0,0,2
   15:04.000   325440,(,0,0,1
   15:04.075   325467,N,0,0,0
   15:04.114   325481,),0,0,1
   15:04.175   325503,(,0,0,2
   15:04.311   325552,t,0,0,4
   15:04.458   325605,t,0,0,4
   15:04.494   325618,),0,0,2
   15:04.628   325666,(,0,0,0
   15:04.689   325688,p,0,0,0
   15:04.728   325702,),0,0,0
   15:04.839   325742,(,0,0,1
   15:04.911   325768,N,0,0,0
   15:04.950   325782,),0,0,1
   15:05.672   326042,t,0,0,2
   15:05.714   326057,),0,0,2
   15:10.506   327782,(,0,0,1
   15:10.578   327808,N,0,0,0
   15:10.617   327822,),0,0,1
   15:10.658   327837,(,0,0,2
   15:10.822   327896,t,0,0,1
   15:10.967   327948,),0,0,2
   15:11.161   328018,(,0,0,0
   15:11.206   328034,p,0,0,0
   15:11.244   328048,),0,0,0
   15:11.336   328081,(,0,0,1
   15:11.425   328113,N,0,0,0
   15:11.467   328128,),0,0,1
   15:11.694   328210,(,0,0,2
   15:11.978   328312,t,0,0,0
   15:12.164   328379,),0,0,2
   15:17.028   330130,(,0,0,1
   15:17.081   330149,N,0,0,0
   15:17.122   330164,),0,0,1
   15:17.169   330181,(,0,0,2
   15:17.325   330237,t,0,0,1
   15:17.464   330287,),0,0,2
   15:17.706   330374,(,0,0,0
   15:17.747   330389,p,0,0,0
   15:17.786   330403,),0,0,0
   15:17.844   330424,(,0,0,1
   15:17.939   330458,N,0,0,0
   15:17.975   330471,),0,0,1
   15:18.578   330688,),0,0,2
   15:18.631   330707,t,0,0,0
   15:18.683   330726,(,0,0,2
   15:23.508   332463,(,0,0,1
   15:23.567   332484,N,0,0,0
   15:23.600   332496,),0,0,1
   15:23.639   332510,(,0,0,2
   15:23.792   332565,t,0,0,4
   15:23.933   332616,t,0,0,4
   15:24.039   332654,),0,0,2
   15:24.144   332692,(,0,0,0
   15:24.197   332711,p,0,0,0
   15:24.236   332725,),0,0,0
   15:24.336   332761,(,0,0,1
   15:24.386   332779,N,0,0,0
   15:24.428   332794,),0,0,1
   15:25.842   333303,(,0,0,1
   15:25.992   333357,N,0,0,0
   15:26.075   333387,),0,0,1
   15:26.144   333412,(,0,0,2
   15:26.219   333439,t,0,0,1
   15:26.383   333498,),0,0,2
   15:29.967   334788,(,0,0,1
   15:30.028   334810,N,0,0,0
   15:30.072   334826,),0,0,1
   15:30.097   334835,(,0,0,2
   15:30.258   334893,t,0,0,1
   15:30.397   334943,),0,0,2
   15:30.622   335024,(,0,0,0
   15:30.661   335038,p,0,0,0
   15:30.706   335054,),0,0,0
   15:30.814   335093,(,0,0,1
   15:30.869   335113,N,0,0,0
   15:30.906   335126,),0,0,1
   15:30.936   335137,(,0,0,2
   15:31.081   335189,t,0,0,4
   15:31.253   335251,t,0,0,4
   15:31.331   335279,),0,0,2
   15:31.542   335355,(,0,0,0
   15:31.586   335371,p,0,0,0
   15:31.628   335386,),0,0,0
   15:31.639   335390,(,0,0,1
   15:31.769   335437,N,0,0,0
   15:31.839   335462,),0,0,1
   15:32.431   335675,t,0,0,2
   15:32.514   335705,),0,0,2
   15:37.300   337428,(,0,0,1
   15:37.361   337450,N,0,0,0
   15:37.408   337467,),0,0,1
   15:37.433   337476,(,0,0,2
   15:37.611   337540,t,0,0,1
   15:37.725   337581,),0,0,2
   15:37.953   337663,(,0,0,0
   15:38.006   337682,p,0,0,0
   15:38.056   337700,),0,0,0
   15:38.150   337734,(,0,0,1
   15:38.211   337756,N,0,0,0
   15:38.244   337768,),0,0,1
   15:38.306   337790,(,0,0,2
   15:38.408   337827,t,0,0,4
   15:38.553   337879,t,0,0,4
   15:38.653   337915,),0,0,2
   15:38.819   337975,(,0,0,0
   15:38.858   337989,p,0,0,0
   15:38.892   338001,),0,0,0
   15:38.944   338020,(,0,0,1
   15:39.044   338056,N,0,0,0
   15:39.078   338068,),0,0,1
   15:39.731   338303,(,0,0,2
   15:39.761   338314,t,0,0,0
   15:39.853   338347,),0,0,2
   15:45.394   340342,(,0,0,1
   15:45.453   340363,N,0,0,0
   15:45.489   340376,),0,0,1
   15:45.553   340399,(,0,0,2
   15:45.678   340444,t,0,0,4
   15:45.994   340558,t,0,0,4
   15:46.025   340569,),0,0,2
   15:46.058   340581,(,0,0,0
   15:46.111   340600,p,0,0,0
   15:46.158   340617,),0,0,0
   15:46.233   340644,(,0,0,1
   15:46.319   340675,N,0,0,0
   15:46.358   340689,),0,0,1
   15:46.431   340715,(,0,0,2
   15:46.753   340831,t,0,0,1
   15:47.094   340954,),0,0,2
   15:52.717   342978,(,0,0,1
   15:52.778   343000,N,0,0,0
   15:52.814   343013,),0,0,1
   15:52.864   343031,(,0,0,2
   15:53.011   343084,t,0,0,1
   15:53.150   343134,),0,0,2
   15:53.403   343225,(,0,0,0
   15:53.450   343242,p,0,0,0
   15:53.489   343256,),0,0,0
   15:53.544   343276,(,0,0,1
   15:53.647   343313,N,0,0,0
   15:53.683   343326,),0,0,1
   15:59.256   345332,(,0,0,1
   15:59.306   345350,N,0,0,0
   15:59.344   345364,),0,0,1
   15:59.375   345375,(,0,0,2
   15:59.536   345433,t,0,0,1
   15:59.678   345484,),0,0,2
   15:59.875   345555,(,0,0,0
   15:59.925   345573,p,0,0,0
   15:59.958   345585,),0,0,0
   16:00.075   345627,(,0,0,1
   16:00.125   345645,N,0,0,0
   16:00.167   345660,),0,0,1
   16:06.586   347971,(,0,0,1
   16:06.650   347994,N,0,0,0
   16:06.686   348007,),0,0,1
   16:07.403   348265,t,0,0,2
   16:07.456   348284,),0,0,2
   16:12.258   350013,(,0,0,1
   16:12.317   350034,N,0,0,0
   16:12.353   350047,),0,0,1
   16:12.392   350061,(,0,0,2
   16:12.550   350118,t,0,0,4
   16:12.822   350216,t,0,0,4
   16:12.850   350226,),0,0,2
   16:12.875   350235,(,0,0,0
   16:12.933   350256,p,0,0,0
   16:12.978   350272,),0,0,0
   16:13.100   350316,(,0,0,1
   16:13.153   350335,N,0,0,0
   16:13.189   350348,),0,0,1
   16:18.753   352351,(,0,0,1
   16:18.814   352373,N,0,0,0
   16:18.853   352387,),0,0,1
   16:18.953   352423,(,0,0,2
   16:19.058   352461,t,0,0,4
   16:19.314   352553,t,0,0,4
   16:19.353   352567,),0,0,2
   16:19.386   352579,(,0,0,0
   16:19.433   352596,p,0,0,0
   16:19.472   352610,),0,0,0
   16:19.592   352653,(,0,0,1
   16:19.653   352675,N,0,0,0
   16:19.686   352687,),0,0,1
   16:20.400   352944,t,0,0,2
   16:20.450   352962,),0,0,2
   16:26.033   354972,(,0,0,1
   16:26.089   354992,N,0,0,0
   16:26.125   355005,),0,0,1
   16:26.203   355033,(,0,0,2
   16:26.314   355073,t,0,0,1
   16:26.458   355125,),0,0,2
   16:26.675   355203,(,0,0,0
   16:26.717   355218,p,0,0,0
   16:26.753   355231,),0,0,0
   16:26.833   355260,(,0,0,1
   16:26.894   355282,N,0,0,0
   16:26.933   355296,),0,0,1
   16:26.964   355307,(,0,0,2
   16:27.111   355360,t,0,0,4
   16:27.619   355543,t,0,0,4
   16:27.647   355553,),0,0,2
   16:33.317   357594,(,0,0,1
   16:33.381   357617,N,0,0,0
   16:33.417   357630,),0,0,1
   16:33.472   357650,(,0,0,2
   16:33.622   357704,t,0,0,1
   16:33.756   357752,),0,0,2
   16:33.939   357818,(,0,0,0
   16:33.975   357831,p,0,0,0
   16:34.017   357846,),0,0,0
   16:34.111   357880,(,0,0,1
   16:34.164   357899,N,0,0,0
   16:34.200   357912,),0,0,1
   16:34.311   357952,(,0,0,2
   16:34.369   357973,t,0,0,4
   16:34.539   358034,t,0,0,4
   16:34.628   358066,),0,0,2
   16:34.769   358117,(,0,0,0
   16:34.819   358135,p,0,0,0
   16:34.856   358148,),0,0,0
   16:34.950   358182,(,0,0,1
   16:35.000   358200,N,0,0,0
   16:35.042   358215,),0,0,1
   16:35.750   358470,t,0,0,2
   16:35.819   358495,),0,0,2
   16:42.164   360779,(,0,0,1
   16:42.247   360809,N,0,0,0
   16:42.289   360824,),0,0,1
   16:42.431   360875,(,0,0,2
   16:42.475   360891,t,0,0,4
   16:42.817   361014,t,0,0,4
   16:42.850   361026,),0,0,2
   16:42.911   361048,(,0,0,0
   16:42.944   361060,p,0,0,0
   16:42.986   361075,),0,0,0
   16:43.086   361111,(,0,0,1
   16:43.142   361131,N,0,0,0
   16:43.183   361146,),0,0,1
   16:43.897   361403,t,0,0,2
   16:43.942   361419,),0,0,2
   16:49.556   363440,(,0,0,1
   16:49.608   363459,N,0,0,0
   16:49.650   363474,),0,0,1
   16:49.703   363493,(,0,0,2
   16:49.833   363540,t,0,0,4
   16:49.992   363597,t,0,0,4
   16:50.064   363623,),0,0,2
   16:50.194   363670,(,0,0,0
   16:50.233   363684,p,0,0,0
   16:50.269   363697,),0,0,0
   16:50.367   363732,(,0,0,1
   16:50.419   363751,N,0,0,0
   16:50.456   363764,),0,0,1
   16:51.175   364023,(,0,0,2
   16:51.208   364035,t,0,0,0
   16:51.231   364043,),0,0,2
   16:56.861   366070,(,0,0,1
   16:56.911   366088,N,0,0,0
   16:56.950   366102,),0,0,1
   16:56.994   366118,(,0,0,2
   16:57.147   366173,t,0,0,4
   16:57.319   366235,t,0,0,4
   16:57.378   366256,),0,0,2
   16:57.475   366291,(,0,0,0
   16:57.522   366308,p,0,0,0
   16:57.558   366321,),0,0,0
   16:57.672   366362,(,0,0,1
   16:57.725   366381,N,0,0,0
   16:57.756   366392,),0,0,1
   16:58.483   366654,(,0,0,2
   16:58.514   366665,t,0,0,0
   16:58.556   366680,),0,0,2
   17:04.167   368700,(,0,0,1
   17:04.225   368721,N,0,0,0
   17:04.261   368734,),0,0,1
   17:04.964   368987,(,0,0,2
   17:04.994   368998,t,0,0,0
   17:05.025   369009,),0,0,2
   17:10.647   371033,(,0,0,1
   17:10.703   371053,N,0,0,0
   17:10.742   371067,),0,0,1
   17:17.150   373374,(,0,0,1
   17:17.203   373393,N,0,0,0
   17:17.247   373409,),0,0,1
   17:23.622   375704,(,0,0,1
   17:23.675   375723,N,0,0,0
   17:23.711   375736,),0,0,1
   17:23.819   375775,(,0,0,2
   17:23.911   375808,t,0,0,4
   17:24.117   375882,t,0,0,4
   17:24.139   375890,),0,0,2
   17:24.314   375953,(,0,0,0
   17:24.361   375970,p,0,0,0
   17:24.400   375984,),0,0,0
   17:24.497   376019,(,0,0,1
   17:24.561   376042,N,0,0,0
   17:24.606   376058,),0,0,1
   17:30.994   378358,(,0,0,1
   17:31.047   378377,N,0,0,0
   17:31.111   378400,),0,0,1
   17:31.206   378434,(,0,0,2
   17:31.264   378455,t,0,0,1
   17:31.422   378512,),0,0,2
   17:31.633   378588,(,0,0,0
   17:31.678   378604,p,0,0,0
   17:31.714   378617,),0,0,0
   17:31.811   378652,(,0,0,1
   17:31.869   378673,N,0,0,0
   17:31.900   378684,),0,0,1
   17:31.950   378702,(,0,0,2
   17:32.083   378750,t,0,0,4
   17:32.214   378797,t,0,0,4
   17:32.319   378835,),0,0,2
   17:32.481   378893,(,0,0,0
   17:32.525   378909,p,0,0,0
   17:32.561   378922,),0,0,0
   17:32.608   378939,(,0,0,1
   17:32.719   378979,N,0,0,0
   17:32.758   378993,),0,0,1
   17:33.364   379211,t,0,0,2
   17:33.472   379250,),0,0,2
   17:39.064   381263,(,0,0,1
   17:39.125   381285,N,0,0,0
   17:39.161   381298,),0,0,1
   17:39.281   381341,(,0,0,2
   17:39.339   381362,t,0,0,1
   17:39.483   381414,),0,0,2
   17:39.761   381514,(,0,0,0
   17:39.794   381526,p,0,0,0
   17:39.833   381540,),0,0,0
   17:39.906   381566,(,0,0,1
   17:39.975   381591,N,0,0,0
   17:40.011   381604,),0,0,1
   17:40.686   381847,(,0,0,2
   17:40.717   381858,t,0,0,0
   17:40.811   381892,),0,0,2
   17:46.306   383870,(,0,0,1
   17:46.361   383890,N,0,0,0
   17:46.397   383903,),0,0,1
   17:46.456   383924,(,0,0,2
   17:46.569   383965,t,0,0,1
   17:46.714   384017,),0,0,2
   17:46.936   384097,(,0,0,0
   17:47.000   384120,p,0,0,0
   17:47.039   384134,),0,0,0
   17:47.147   384173,(,0,0,1
   17:47.203   384193,N,0,0,0
   17:47.233   384204,),0,0,1
   17:47.292   384225,(,0,0,2
   17:47.417   384270,t,0,0,4
   17:47.908   384447,t,0,0,4
   17:47.961   384466,),0,0,2
   17:53.681   386525,(,0,0,1
   17:53.736   386545,N,0,0,0
   17:53.775   386559,),0,0,1
   17:53.822   386576,(,0,0,2
   17:53.978   386632,t,0,0,4
   17:54.147   386693,t,0,0,4
   17:54.217   386718,),0,0,2
   17:54.356   386768,(,0,0,0
   17:54.403   386785,p,0,0,0
   17:54.442   386799,),0,0,0
   17:54.558   386841,(,0,0,1
   17:54.617   386862,N,0,0,0
   17:54.653   386875,),0,0,1
   17:55.375   387135,(,0,0,2
   17:55.406   387146,t,0,0,0
   17:55.486   387175,),0,0,2
   18:01.044   389176,(,0,0,1
   18:01.108   389199,N,0,0,0
   18:01.147   389213,),0,0,1
   18:01.856   389468,(,0,0,2
   18:01.886   389479,t,0,0,0
   18:01.967   389508,),0,0,2
   18:06.719   391219,(,0,0,1
   18:06.769   391237,N,0,0,0
   18:06.811   391252,),0,0,1
   18:06.842   391263,(,0,0,2
   18:07.011   391324,t,0,0,1
   18:07.147   391373,),0,0,2
   18:07.344   391444,(,0,0,0
   18:07.389   391460,p,0,0,0
   18:07.428   391474,),0,0,0
   18:07.531   391511,(,0,0,1
   18:07.589   391532,N,0,0,0
   18:07.628   391546,),0,0,1
   18:07.667   391560,(,0,0,2
   18:07.817   391614,t,0,0,4
   18:08.314   391793,t,0,0,4
   18:08.342   391803,),0,0,2
   18:13.231   393563,(,0,0,1
   18:13.281   393581,N,0,0,0
   18:13.322   393596,),0,0,1
   18:14.000   393840,t,0,0,2
   18:14.081   393869,),0,0,2
   18:19.689   395888,(,0,0,1
   18:19.750   395910,N,0,0,0
   18:19.783   395922,),0,0,1
   18:19.817   395934,(,0,0,2
   18:19.997   395999,t,0,0,1
   18:20.139   396050,),0,0,2
   18:23.767   397356,(,0,0,1
   18:23.911   397408,N,0,0,0
   18:23.914   397409,),0,0,1
   18:23.919   397411,(,0,0,2
   18:24.208   397515,t,0,0,0
   18:24.392   397581,),0,0,2
   18:24.750   397710,N,0,0,0
   18:24.756   397712,(,0,0,1
   18:24.972   397790,),0,0,1
   18:24.989   397796,(,0,0,2
   18:25.025   397809,t,0,0,0
   18:25.256   397892,),0,0,2
   18:25.414   397949,(,0,0,1
   18:25.547   397997,N,0,0,0
   18:25.550   397998,),0,0,1
   18:25.558   398001,(,0,0,2
   18:25.856   398108,t,0,0,0
   18:25.994   398158,),0,0,2
   18:26.231   398243,(,0,0,1
   18:26.381   398297,N,0,0,0
   18:26.383   398298,),0,0,1
   18:27.036   398533,(,0,0,2
   18:27.075   398547,t,0,0,0
   18:27.125   398565,),0,0,2
   18:28.594   399094,(,0,0,1
   18:28.717   399138,N,0,0,0
   18:28.719   399139,),0,0,1
   18:28.744   399148,(,0,0,2
   18:28.886   399199,t,0,0,0
   18:29.136   399289,),0,0,2
   18:29.433   399396,(,0,0,1
   18:29.569   399445,N,0,0,0
   18:29.572   399446,),0,0,1
   18:29.578   399448,(,0,0,2
   18:29.867   399552,t,0,0,0
   18:30.025   399609,),0,0,2
   18:30.281   399701,(,0,0,1
   18:30.414   399749,N,0,0,0
   18:30.417   399750,),0,0,1
   18:30.419   399751,(,0,0,2
   18:30.711   399856,t,0,0,0
   18:30.850   399906,),0,0,2
   18:31.097   399995,(,0,0,1
   18:31.239   400046,N,0,0,0
   18:31.242   400047,),0,0,1
   18:31.264   400055,(,0,0,2
   18:31.442   400119,t,0,0,0
   18:31.667   400200,),0,0,2
   18:31.931   400295,(,0,0,1
   18:32.058   400341,N,0,0,0
   18:32.097   400355,),0,0,1
   18:32.208   400395,(,0,0,2
   18:32.317   400434,t,0,0,0
   18:32.514   400505,),0,0,2
   18:32.728   400582,(,0,0,1
   18:32.867   400632,N,0,0,0
   18:32.869   400633,),0,0,1
   18:32.875   400635,(,0,0,2
   18:33.164   400739,t,0,0,0
   18:33.283   400782,),0,0,2
   18:33.500   400860,(,0,0,1
   18:33.639   400910,N,0,0,0
   18:33.642   400911,),0,0,1
   18:34.258   401133,(,0,0,2
   18:34.297   401147,t,0,0,0
   18:34.344   401164,),0,0,2
   18:36.008   401763,(,0,0,1
   18:36.022   401768,N,0,0,0
   18:36.153   401815,),0,0,1
   18:36.158   401817,(,0,0,2
   18:36.394   401902,t,0,0,0
   18:36.511   401944,),0,0,2
   18:36.944   402100,N,0,0,0
   18:36.953   402103,(,0,0,1
   18:37.047   402137,),0,0,1
   18:37.108   402159,(,0,0,2
   18:37.197   402191,t,0,0,0
   18:37.331   402239,),0,0,2
