Col1,wPre,Type
0.003,0.67500000,/
0.015,0.83055556,/
0.028,0.79444444,/
0.042,0.79722222,/
0.055,0.80277778,f
0.068,0.75555556,f
0.081,0.86944444,/
0.095,0.83055556,/
0.109,0.80555556,/
0.123,0.80833333,/
0.136,0.80555556,/
0.150,0.80555556,f
0.163,0.76111111,f
0.176,0.85000000,/
0.190,0.84722222,/
0.204,0.82500000,/
0.218,0.80833333,/
0.231,0.79444444,/
0.244,0.80000000,f
0.258,0.84444444,f
0.272,0.75000000,/
0.284,0.85555556,/
0.299,0.81388889,/
0.312,0.82777778,/
0.326,0.80555556,/
0.353,0.83888889,f
0.367,0.73055556,/
0.379,0.86666667,/
0.407,0.81666667,/
0.421,0.80555556,/
0.434,0.83333333,f
0.448,0.75833333,f
0.461,0.78055556,/
0.474,0.83611111,/
0.488,0.85000000,/
0.502,0.82222222,/
0.516,0.83055556,f
0.529,0.80833333,f
0.543,0.87500000,f
0.557,0.68611111,/
0.569,0.80000000,/
0.582,0.86111111,/
0.597,0.83333333,/
0.610,0.81666667,/
0.624,0.84444444,f
0.638,0.76666667,f
0.651,0.77777778,/
0.664,0.77222222,/
0.677,0.86944444,/
0.691,0.84166667,/
0.705,0.81111111,/
0.719,0.80833333,f
0.732,0.83888889,f
0.746,0.75555556,/
0.759,0.78055556,/
0.772,0.82222222,/
0.786,0.85277778,/
0.800,0.82500000,/
0.813,0.82777778,/
0.827,0.83888889,f
0.841,0.75833333,f
0.854,0.77777778,/
0.867,0.78888889,/
0.880,0.86111111,/
0.894,0.82777778,/
0.908,0.81666667,/
0.922,0.77500000,f
0.935,0.84166667,f
0.949,0.86666667,f
0.963,0.70000000,/
0.975,0.85000000,/
0.989,0.85000000,/
1.003,0.80833333,/
1.043,0.82222222,Q
1.057,0.75833333,Q
1.083,0.84166667,/
1.111,0.83888889,/
1.125,0.80555556,/
1.138,0.79722222,f
1.152,0.83611111,f
1.166,0.72777778,/
1.178,0.85277778,/
1.192,0.83611111,/
1.206,0.81388889,/
1.219,0.81388889,/
1.233,0.81111111,/
1.247,0.71666667,N
1.259,0.84722222,f
1.273,0.80277778,f
1.286,0.85000000,/
1.300,0.82222222,/
1.314,0.81944444,/
1.328,0.80000000,/
1.341,0.79722222,/
1.354,0.74722222,f
1.367,0.81388889,f
1.380,0.92222222,f
1.396,0.76944444,f
1.408,0.82777778,/
1.422,0.81388889,/
1.436,0.80555556,/
1.449,0.77222222,/
1.462,0.78055556,/
1.475,0.85277778,/
1.502,0.80277778,N
1.515,0.90277778,f
1.531,0.75833333,f
1.556,0.77222222,/
1.569,0.82777778,/
1.583,0.84444444,/
1.597,0.82222222,/
1.611,0.82500000,/
1.625,0.74444444,N
1.637,0.83888889,f
1.651,0.76944444,f
1.664,0.79722222,/
1.677,0.84444444,/
1.691,0.82777778,/
1.719,0.81666667,/
1.732,0.81111111,/
1.746,0.74444444,N
1.758,0.83611111,f
1.772,0.82222222,/
1.786,0.82777778,/
1.800,0.81388889,/
1.813,0.82500000,/
1.827,0.81111111,/
1.840,0.79166667,/
1.854,0.73055556,N
1.866,0.84722222,f
1.880,0.84166667,f
1.908,0.83611111,/
1.922,0.80833333,/
1.935,0.92777778,/
1.951,0.65555556,/
1.962,0.77500000,/
1.975,0.83611111,f
1.989,0.81111111,N
2.002,0.86666667,f
2.016,0.79722222,f
2.030,0.82500000,/
2.044,0.78055556,/
2.057,0.76944444,/
2.069,0.84444444,/
2.083,0.84444444,/
2.098,0.81666667,/
2.111,0.82500000,/
2.125,0.78611111,f
2.138,0.76666667,N
2.151,0.80277778,f
2.164,0.80000000,f
2.177,0.85277778,/
2.192,0.82222222,/
2.205,0.83888889,/
2.219,0.81666667,/
2.233,0.81666667,/
2.247,0.77777778,/
2.260,0.77500000,/
2.272,0.85000000,/
2.287,0.81388889,f
2.300,0.69444444,N
2.312,0.86944444,f
2.326,0.86111111,f
2.341,0.73055556,f
2.366,0.82500000,/
2.379,0.84166667,/
2.393,0.82500000,/
2.407,0.83611111,/
2.435,0.80000000,/
2.448,0.77500000,/
2.461,0.78333333,/
2.474,0.84166667,/
2.488,0.82222222,/
2.514,0.80277778,N
2.527,0.81944444,N
2.541,0.81666667,f
2.554,0.80833333,f
2.568,0.86666667,f
2.582,0.76111111,f
2.609,0.82222222,/
2.636,0.80000000,/
2.649,0.77222222,/
2.662,0.79722222,/
2.676,0.84166667,/
2.690,0.82500000,/
2.716,0.78333333,N
2.729,0.87222222,f
2.744,0.75277778,f
2.769,0.85000000,/
2.783,0.83055556,/
2.825,0.82222222,/
2.838,0.78333333,/
2.864,0.75277778,N
2.876,0.92222222,f
2.892,0.77500000,f
2.904,0.84166667,/
2.919,0.81388889,/
2.932,0.80555556,/
2.946,0.78333333,/
2.959,0.78611111,/
2.972,0.83055556,/
2.986,0.82777778,/
3.025,0.88055556,f
3.039,0.82777778,f
3.053,0.70833333,f
3.079,0.83333333,/
3.106,0.83055556,/
3.120,0.82500000,/
3.134,0.78888889,/
3.147,0.78055556,/
3.160,0.81111111,/
3.174,0.82222222,/
3.187,0.78611111,/
3.227,0.80555556,N
3.240,0.79166667,f
3.254,0.78611111,f
3.267,0.84722222,f
3.281,0.84166667,f
3.295,0.83888889,f
3.309,0.82777778,f
3.323,0.84166667,f
3.337,0.79722222,f
3.350,0.76388889,f
3.363,0.83055556,f
3.377,0.82500000,f
3.390,0.82222222,f
3.404,0.84166667,f
3.418,0.80555556,f
3.431,0.80277778,f
3.445,0.75277778,f
3.470,0.82777778,Q
3.484,0.81388889,f
3.525,0.78333333,N
3.538,0.75555556,N
3.551,0.74444444,N
3.563,0.80277778,N
3.577,0.80833333,N
3.604,0.81944444,N
3.617,0.81111111,N
3.631,0.78333333,N
3.644,0.76666667,N
3.657,0.76944444,N
3.683,0.80833333,N
3.697,0.80833333,N
3.710,0.81666667,N
3.724,0.80833333,N
3.737,0.77222222,N
3.750,0.74444444,N
3.762,0.79444444,N
3.776,0.81111111,N
3.789,0.80277778,N
3.803,0.52500000,V
3.826,0.81666667,/
3.839,0.76944444,/
3.852,0.77500000,/
3.865,0.83055556,/
3.879,0.81666667,/
3.893,0.82222222,/
3.906,0.83333333,/
3.920,0.83055556,/
3.934,0.78888889,/
3.947,0.76666667,/
3.960,0.81666667,/
3.974,0.82500000,/
3.987,0.82222222,/
4.001,0.82777778,/
4.015,0.83055556,f
4.029,0.80555556,f
4.042,0.76944444,f
4.055,0.79722222,f
4.068,0.82500000,f
4.082,0.88888889,f
4.097,0.83888889,f
4.111,0.81111111,f
4.124,0.81944444,f
4.138,0.76388889,f
4.151,0.75555556,f
4.177,0.81666667,f
4.204,0.83333333,f
4.218,0.83611111,f
4.232,0.79166667,f
4.245,0.76666667,f
4.258,0.82777778,f
4.272,0.66666667,N
4.283,0.86111111,f
4.297,0.83611111,f
4.311,0.82777778,/
4.339,0.78333333,/
4.352,0.76666667,/
4.364,0.82500000,/
4.378,0.81666667,/
4.392,0.83333333,/
4.406,0.83611111,/
4.420,0.83888889,/
4.434,0.78888889,/
4.447,0.76944444,/
4.459,0.82222222,/
4.473,0.81111111,/
4.487,0.80833333,/
4.500,0.83611111,/
4.528,0.80000000,/
4.541,0.76944444,/
4.568,0.83333333,/
4.582,0.79722222,/
4.609,0.83333333,/
4.635,0.64722222,N
4.646,0.76388889,N
4.659,0.77222222,N
4.671,0.79166667,N
4.685,0.80833333,N
4.698,0.79722222,N
4.711,0.82500000,N
4.725,0.79444444,N
4.738,0.74444444,N
4.751,0.76944444,N
4.764,0.78611111,N
4.777,0.79722222,N
4.803,0.80555556,N
4.817,0.82777778,N
4.831,0.75833333,N
4.843,0.74722222,N
4.856,0.80833333,N
4.869,0.76944444,N
4.882,0.81111111,N
4.895,0.82777778,N
4.909,0.80555556,N
4.923,0.82222222,f
4.936,0.75833333,f
4.949,0.76944444,N
4.962,0.82777778,f
4.976,0.80833333,f
4.989,0.81388889,N
5.003,0.84722222,f
5.017,0.84166667,f
5.031,0.77222222,f
5.044,0.77777778,f
5.057,0.81388889,f
5.070,0.81388889,f
5.084,0.82500000,f
5.098,0.81111111,f
5.111,0.84444444,f
5.125,0.81944444,f
5.139,0.75555556,Q
5.151,0.82500000,Q
5.165,0.80555556,Q
5.179,0.81666667,Q
5.192,0.85000000,f
5.206,0.83333333,f
5.220,0.80833333,f
5.234,0.77777778,Q
5.247,0.79166667,Q
5.260,0.82222222,Q
5.274,0.80000000,Q
5.287,0.85833333,Q
5.301,0.86388889,Q
5.316,0.84722222,Q
5.330,0.78888889,Q
5.343,0.70277778,Q
5.368,0.80833333,/
5.382,0.89166667,/
5.397,0.75833333,/
5.409,0.84444444,/
5.423,0.80277778,/
5.437,0.76944444,/
5.450,0.80277778,/
5.463,0.81111111,/
5.476,0.80833333,/
5.490,0.87777778,/
5.505,0.79722222,/
5.518,0.83888889,/
5.532,0.76666667,/
5.545,0.78888889,/
5.558,0.81666667,/
5.571,0.79444444,/
5.598,0.84166667,/
5.612,0.83888889,/
5.640,0.76666667,/
5.652,0.81944444,/
5.666,0.80277778,/
5.679,0.80277778,/
5.693,0.83055556,/
5.707,0.85277778,/
5.721,0.81666667,/
5.734,0.77777778,/
5.747,0.80555556,/
5.761,0.79722222,/
5.774,0.80555556,/
5.788,0.84166667,/
5.802,0.83333333,/
5.816,0.84166667,/
5.830,0.78055556,/
5.843,0.78055556,/
5.856,0.81388889,/
5.869,0.79722222,/
5.882,0.81666667,/
5.896,0.84166667,/
5.910,0.85555556,/
5.924,0.79444444,f
5.938,0.76944444,f
5.950,0.86111111,f
5.965,0.74444444,f
5.990,0.79722222,N
6.003,0.78888889,N
6.016,0.79444444,N
6.029,0.73888889,N
6.042,0.74444444,N
6.054,0.79444444,N
6.080,0.78055556,N
6.093,0.80555556,N
6.107,0.83333333,N
6.120,0.79444444,N
6.134,0.76111111,N
6.146,0.79444444,N
6.160,0.79722222,N
6.173,0.80277778,f
6.186,0.81944444,N
6.200,0.83333333,N
6.214,0.85555556,f
6.228,0.78055556,f
6.254,0.83055556,f
6.268,0.80833333,f
6.281,0.83055556,f
6.295,0.85555556,f
6.309,0.83888889,f
6.323,0.81666667,f
6.337,0.77500000,f
6.350,0.83055556,f
6.364,0.80000000,f
6.391,0.74722222,f
6.417,0.82777778,f
6.431,0.77777778,f
6.444,0.80000000,f
6.457,0.80555556,f
6.471,0.79444444,f
6.484,0.83611111,f
6.498,0.83888889,f
6.512,0.84444444,f
6.526,0.85833333,f
6.540,0.76944444,f
6.553,0.79722222,f
6.566,0.77777778,f
6.579,0.79166667,f
6.593,0.82500000,f
6.606,0.85277778,f
6.620,0.80277778,f
6.634,0.75277778,f
6.646,0.81666667,f
6.660,0.79722222,f
6.673,0.80555556,f
6.687,0.83333333,f
6.701,0.87222222,f
6.715,0.83333333,f
6.729,0.80000000,f
6.742,0.83888889,f
6.756,0.72222222,f
6.768,0.79722222,f
6.782,0.83333333,f
6.810,0.85000000,/
6.824,0.79166667,/
6.837,0.78333333,/
6.850,0.80833333,/
6.863,0.78611111,/
6.877,0.81388889,/
6.890,0.84166667,/
6.904,0.85555556,/
6.918,0.80277778,/
6.932,0.77500000,/
6.945,0.82222222,/
6.958,0.78888889,/
6.972,0.78888889,/
6.985,0.82500000,/
6.998,0.86111111,/
7.025,0.70833333,N
7.037,0.81111111,f
7.050,0.80555556,f
7.064,0.79444444,f
7.077,0.81666667,f
7.091,0.83333333,f
7.104,0.85833333,f
7.119,0.82500000,f
7.133,0.79444444,f
7.146,0.82222222,f
7.159,0.80833333,f
7.173,0.73888889,f
7.185,0.83055556,f
7.199,0.86944444,f
7.227,0.77500000,/
7.240,0.81944444,/
7.254,0.78888889,/
7.267,0.77500000,/
7.280,0.82222222,/
7.294,0.84444444,/
7.308,0.83888889,/
7.322,0.79722222,/
7.347,0.79444444,N
7.360,0.81111111,f
7.374,0.85833333,f
7.388,0.87777778,f
7.403,0.79166667,f
7.416,0.80555556,f
7.443,0.81111111,/
7.456,0.78611111,/
7.469,0.78611111,/
7.482,0.83055556,/
7.496,0.85833333,/
7.510,0.83611111,/
7.524,0.78333333,/
7.537,0.81111111,/
7.551,0.80277778,/
7.564,0.78055556,/
7.577,0.71944444,f
7.589,0.81388889,N
7.603,0.87500000,f
7.617,0.81111111,f
7.631,0.79444444,f
7.644,0.82500000,f
7.658,0.80277778,f
7.671,0.75000000,f
7.684,0.83055556,f
7.698,0.86111111,f
7.712,0.83333333,/
7.726,0.77500000,/
7.739,0.81944444,/
7.753,0.79166667,/
7.766,0.77777778,/
7.779,0.81944444,/
7.792,0.85000000,/
7.807,0.83888889,/
7.821,0.80000000,/
7.834,0.80000000,/
7.847,0.79444444,/
7.860,0.78055556,/
7.873,0.81944444,/
7.899,0.78611111,N
7.913,0.84444444,f
7.927,0.78888889,f
7.940,0.81111111,f
7.953,0.77777778,f
7.966,0.78888889,f
7.979,0.82500000,f
7.993,0.86111111,f
8.008,0.83888889,f
8.021,0.82500000,f
8.035,0.81666667,f
8.049,0.80555556,f
8.062,0.70000000,f
8.088,0.84444444,/
8.102,0.85277778,/
8.116,0.80555556,/
8.129,0.80000000,/
8.143,0.80000000,/
8.156,0.77500000,/
8.169,0.80833333,/
8.182,0.83333333,/
8.196,0.85833333,/
8.211,0.81666667,/
8.224,0.78888889,/
8.249,0.76944444,N
8.262,0.77500000,f
8.275,0.83611111,f
8.289,0.87500000,f
8.304,0.86111111,f
8.318,0.80000000,f
8.331,0.84166667,f
8.345,0.73333333,f
8.357,0.76944444,f
8.384,0.83333333,/
8.412,0.89166667,/
8.427,0.72500000,/
8.439,0.79722222,/
8.452,0.77500000,/
8.465,0.79722222,/
8.478,0.83055556,/
8.492,0.86111111,/
8.519,0.76111111,N
8.531,0.85000000,f
8.546,0.79722222,f
8.559,0.79444444,f
8.572,0.81388889,f
8.600,0.76944444,f
8.613,0.81388889,f
8.640,0.79444444,/
8.654,0.77500000,/
8.667,0.80555556,/
8.680,0.82777778,/
8.694,0.85277778,/
8.708,0.81944444,/
8.722,0.80000000,/
8.735,0.81111111,/
8.749,0.76944444,/
8.761,0.78611111,/
8.774,0.80833333,f
8.788,0.71388889,N
8.800,0.86388889,f
8.814,0.84444444,f
8.828,0.83888889,f
8.842,0.80277778,f
8.856,0.78888889,f
8.869,0.73333333,f
8.881,0.83611111,f
8.895,0.85555556,/
8.909,0.81666667,/
8.923,0.80833333,/
8.936,0.81111111,/
8.950,0.76388889,/
8.963,0.79722222,/
8.976,0.82777778,/
8.990,0.86111111,/
9.004,0.82500000,/
9.030,0.82500000,N
9.044,0.82222222,f
9.057,0.80277778,f
9.071,0.75555556,f
9.083,0.85277778,f
9.112,0.81111111,/
9.125,0.82500000,/
9.139,0.79166667,/
9.152,0.76944444,/
9.165,0.80277778,/
9.178,0.82777778,/
9.192,0.85277778,/
9.206,0.82777778,/
9.220,0.72500000,N
9.232,0.81944444,f
9.246,0.80555556,f
9.259,0.81666667,f
9.273,0.84444444,f
9.287,0.78888889,f
9.300,0.82777778,f
9.314,0.80833333,/
9.327,0.83333333,/
9.341,0.78055556,/
9.354,0.75833333,/
9.367,0.80000000,/
9.380,0.84722222,/
9.394,0.84444444,/
9.408,0.81388889,/
9.422,0.83055556,/
9.448,0.72500000,N
9.460,0.82222222,f
9.474,0.87222222,f
9.488,0.86388889,f
9.503,0.75555556,f
9.515,0.81944444,f
9.543,0.77222222,/
9.556,0.78888889,/
9.569,0.80833333,/
9.582,0.85555556,/
9.596,0.83611111,/
9.610,0.80555556,/
9.624,0.83611111,/
9.638,0.79166667,/
9.651,0.75277778,/
9.676,0.79166667,N
9.689,0.87777778,f
9.704,0.83611111,f
9.718,0.88333333,f
9.732,0.73888889,f
9.745,0.76944444,f
9.771,0.80833333,/
9.784,0.85000000,/
9.798,0.82500000,/
9.812,0.81666667,/
9.826,0.82500000,/
9.839,0.77222222,/
9.852,0.77222222,/
9.865,0.79722222,/
9.892,0.79722222,N
9.905,0.88055556,f
9.920,0.88611111,f
9.935,0.72222222,f
9.947,0.76388889,f
9.973,0.82222222,/
9.986,0.85277778,/
10.000,0.82500000,/
10.014,0.82777778,/
10.028,0.81111111,/
10.041,0.76388889,/
10.067,0.75277778,N
10.079,0.92500000,f
10.095,0.86388889,f
10.109,0.74166667,f
10.136,0.77777778,/
10.149,0.76944444,/
10.161,0.78888889,/
10.174,0.83888889,/
10.188,0.84722222,/
10.203,0.81388889,/
10.216,0.84722222,/
10.230,0.78333333,f
10.243,0.78611111,f
10.256,0.83611111,f
10.270,0.76111111,f
10.283,0.85000000,/
10.297,0.82777778,/
10.311,0.83611111,/
10.325,0.82222222,/
10.339,0.76944444,/
10.351,0.78611111,/
10.365,0.79722222,/
10.378,0.85277778,/
10.392,0.76388889,N
10.405,0.82222222,f
10.419,0.88888889,f
10.433,0.83888889,f
10.447,0.69166667,f
10.459,0.79444444,/
10.472,0.83055556,/
10.486,0.83888889,/
10.500,0.82222222,/
10.514,0.85000000,/
10.528,0.80277778,/
10.541,0.77222222,/
10.554,0.78333333,/
10.567,0.80000000,/
10.594,0.80833333,N
10.607,0.85833333,f
10.622,0.88055556,f
10.636,0.72500000,f
10.648,0.77500000,f
10.675,0.84444444,/
10.689,0.83611111,/
10.703,0.81944444,/
10.716,0.85000000,/
10.730,0.78888889,/
10.744,0.75277778,/
10.756,0.78333333,/
10.769,0.82500000,/
10.796,0.79444444,N
10.809,0.89166667,f
10.824,0.86111111,f
10.839,0.71388889,f
10.864,0.80000000,/
10.877,0.83333333,/
10.891,0.83055556,/
10.905,0.83888889,/
10.919,0.82222222,/
10.932,0.78055556,/
10.945,0.78611111,/
10.959,0.78611111,/
10.972,0.81111111,f
10.985,0.84722222,f
10.999,0.86666667,f
11.014,0.82222222,f
11.027,0.80000000,/
11.041,0.75555556,/
11.053,0.78611111,/
11.066,0.82500000,/
11.080,0.82777778,/
11.094,0.81944444,/
11.108,0.86388889,/
11.122,0.81666667,/
11.136,0.74444444,f
11.148,0.78611111,f
11.161,0.86111111,f
11.176,0.77222222,f
11.188,0.82500000,/
11.202,0.85000000,/
11.216,0.83611111,/
11.230,0.77500000,/
11.243,0.78888889,/
11.256,0.78888889,/
11.269,0.82777778,/
11.283,0.83055556,/
11.297,0.77222222,N
11.310,0.88055556,f
11.325,0.86666667,f
11.339,0.70000000,f
11.351,0.78611111,/
11.364,0.82500000,/
11.378,0.83333333,/
11.391,0.81944444,/
11.405,0.86944444,/
11.420,0.81666667,/
11.433,0.76111111,/
11.446,0.78055556,/
11.459,0.73333333,N
11.471,0.85000000,f
11.485,0.90277778,f
11.500,0.76666667,f
11.513,0.83888889,/
11.527,0.78333333,/
11.540,0.78611111,/
11.553,0.79166667,/
11.566,0.83055556,/
11.580,0.81944444,/
11.594,0.82222222,/
11.608,0.86388889,/
11.622,0.79444444,f
11.635,0.68611111,N
11.647,0.84722222,f
11.661,0.77222222,f
11.674,0.82500000,f
11.688,0.82500000,/
11.701,0.85555556,/
11.716,0.83611111,/
11.729,0.77777778,/
11.742,0.78333333,/
11.755,0.79444444,/
11.769,0.82500000,/
11.782,0.81388889,/
11.796,0.82222222,f
11.810,0.88055556,f
11.824,0.83611111,f
11.838,0.72222222,f
11.850,0.79166667,/
11.864,0.81111111,/
11.877,0.81944444,/
11.891,0.82222222,/
11.904,0.86944444,/
11.919,0.81666667,/
11.933,0.76388889,/
11.945,0.77222222,f
11.958,0.82500000,f
11.972,0.80555556,f
11.985,0.82500000,/
11.999,0.86666667,/
12.014,0.82777778,/
12.027,0.78333333,/
12.040,0.78055556,/
12.053,0.78055556,/
12.066,0.82500000,/
12.080,0.81666667,f
12.094,0.71944444,N
12.106,0.90000000,/
12.121,0.79722222,/
12.134,0.77777778,/
12.147,0.78888889,/
12.160,0.81388889,/
12.174,0.80833333,/
12.187,0.82222222,/
12.201,0.86388889,f
12.215,0.79722222,f
12.229,0.82500000,f
12.242,0.73888889,f
12.255,0.81111111,/
12.268,0.81388889,/
12.282,0.81388889,/
12.295,0.86388889,/
12.310,0.84444444,/
12.324,0.78888889,/
12.337,0.78333333,/
12.350,0.78611111,/
12.363,0.78888889,f
12.376,0.81388889,f
12.390,0.90000000,f
12.405,0.80833333,f
12.418,0.79722222,f
12.432,0.79444444,/
12.445,0.78333333,/
12.458,0.81666667,/
12.471,0.80277778,/
12.485,0.81666667,/
12.498,0.88055556,/
12.513,0.81944444,/
12.527,0.77222222,/
12.540,0.69722222,N
12.551,0.82777778,f
12.565,0.82500000,f
12.579,0.84722222,f
12.593,0.80833333,f
12.606,0.83611111,f
12.620,0.80000000,/
12.634,0.78333333,/
12.647,0.78055556,/
12.660,0.81111111,/
12.673,0.81388889,/
12.687,0.84166667,/
12.701,0.85555556,/
12.715,0.80833333,/
12.729,0.73055556,N
12.741,0.80555556,f
12.754,0.87500000,f
12.769,0.74444444,f
12.781,0.81944444,/
12.795,0.86944444,/
12.809,0.82222222,/
12.823,0.78055556,/
12.836,0.78333333,/
12.849,0.80277778,/
12.862,0.80000000,/
12.876,0.80000000,f
12.889,0.86666667,f
12.904,0.90833333,f
12.919,0.73611111,/
12.931,0.79444444,/
12.944,0.78611111,/
12.957,0.79722222,/
12.971,0.80000000,/
12.984,0.84166667,/
12.998,0.85555556,/
13.012,0.81111111,f
13.026,0.80277778,f
13.039,0.78611111,f
13.052,0.81388889,/
13.066,0.79722222,/
13.079,0.80833333,/
13.093,0.88055556,/
13.107,0.83333333,/
13.121,0.77500000,/
13.134,0.78611111,/
13.147,0.80555556,f
13.161,0.80000000,f
13.174,0.78888889,f
13.187,0.88055556,/
13.202,0.84444444,/
13.216,0.80555556,/
13.229,0.78888889,/
13.242,0.78611111,/
13.255,0.80000000,/
13.269,0.79166667,/
13.282,0.83333333,f
13.296,0.89166667,f
13.311,0.77777778,f
13.324,0.81111111,/
13.337,0.78611111,/
13.350,0.80000000,/
13.364,0.79166667,/
13.377,0.81111111,/
13.390,0.87500000,/
13.405,0.83055556,/
13.419,0.75833333,N
13.431,0.80000000,f
13.445,0.86388889,f
13.459,0.75277778,f
13.472,0.79444444,/
13.485,0.87222222,/
13.499,0.84722222,/
13.514,0.79444444,/
13.527,0.78611111,/
13.540,0.78888889,/
13.553,0.79444444,/
13.566,0.71944444,N
13.578,0.87777778,f
13.593,0.91388889,f
13.608,0.74444444,f
13.621,0.82222222,/
13.634,0.78333333,/
13.647,0.80277778,/
13.661,0.78055556,/
13.674,0.80555556,/
13.687,0.86944444,/
13.702,0.82500000,/
13.715,0.74444444,N
13.728,0.83611111,f
13.742,0.79166667,f
13.755,0.79444444,/
13.768,0.78611111,/
13.781,0.86666667,/
13.796,0.85277778,/
13.810,0.80277778,/
13.823,0.79166667,/
13.837,0.80000000,/
13.850,0.76666667,f
13.863,0.82500000,f
13.876,0.81666667,f
13.890,0.86111111,/
13.904,0.81666667,/
13.918,0.81666667,/
13.932,0.79166667,/
13.945,0.79722222,/
13.958,0.77777778,/
13.971,0.81388889,f
13.985,0.87500000,f
13.999,0.80000000,f
14.012,0.82500000,/
14.026,0.78888889,/
14.039,0.81111111,/
14.053,0.78333333,/
14.066,0.78611111,/
14.079,0.86666667,/
14.094,0.84444444,f
14.108,0.86944444,f
14.122,0.73333333,/
14.134,0.80555556,/
14.148,0.79444444,/
14.161,0.78055556,/
14.174,0.83888889,/
14.188,0.85277778,/
14.202,0.82222222,f
14.216,0.82500000,f
14.230,0.77222222,f
14.242,0.80555556,/
14.256,0.77500000,/
14.269,0.80833333,/
14.282,0.85555556,/
14.297,0.81944444,/
14.310,0.83333333,/
14.324,0.78055556,f
14.337,0.83888889,f
14.351,0.76944444,f
14.364,0.78611111,/
14.377,0.86111111,/
14.391,0.83888889,/
14.405,0.81111111,/
14.419,0.80277778,/
14.432,0.80833333,/
14.446,0.75000000,N
14.458,0.79722222,f
14.472,0.92500000,f
14.487,0.77777778,/
14.500,0.81666667,/
14.514,0.83055556,/
14.527,0.79722222,/
14.541,0.79722222,/
14.554,0.77222222,/
14.567,0.80833333,/
14.580,0.83333333,f
14.594,0.86388889,f
14.609,0.80000000,f
14.622,0.81111111,/
14.635,0.81111111,/
14.649,0.77222222,/
14.662,0.77777778,/
14.675,0.86388889,/
14.689,0.83611111,/
14.703,0.79166667,f
14.716,0.82222222,f
14.730,0.87777778,f
14.745,0.73333333,/
14.757,0.77500000,/
14.770,0.83055556,/
14.784,0.84722222,/
14.798,0.82222222,/
14.811,0.81666667,/
14.825,0.80277778,/
14.838,0.81666667,f
14.852,0.81666667,f
14.866,0.75000000,/
14.878,0.85000000,/
14.892,0.81944444,/
14.906,0.83333333,/
14.920,0.81111111,/
14.933,0.80555556,/
14.947,0.78333333,f
14.960,0.81388889,f
14.973,0.80000000,/
14.987,0.82777778,/
15.001,0.81944444,/
15.014,0.82222222,/
15.028,0.82222222,/
15.042,0.77777778,/
15.055,0.80555556,f
15.068,0.83333333,f
15.082,0.80555556,f
15.095,0.81944444,/
15.109,0.82222222,/
15.123,0.81944444,/
15.136,0.79722222,/
15.150,0.76666667,/
15.162,0.83611111,f
15.176,0.85000000,f
15.191,0.78333333,f
15.204,0.83611111,/
15.217,0.81388889,/
15.231,0.81111111,/
15.245,0.76666667,/
15.257,0.79166667,/
15.271,0.85000000,f
15.285,0.85833333,f
15.299,0.78055556,f
15.312,0.82777778,/
15.326,0.81666667,/
15.339,0.77777778,/
15.352,0.76666667,/
15.365,0.83611111,/
15.379,0.82222222,f
15.393,0.81944444,f
15.406,0.81944444,f
15.420,0.78611111,V
15.433,0.82500000,/
15.447,0.77222222,/
15.460,0.81944444,/
15.474,0.82500000,/
15.487,0.79722222,f
15.501,0.83888889,f
15.515,0.90000000,f
15.530,0.75000000,/
15.542,0.77222222,/
15.555,0.78611111,/
15.568,0.83055556,/
15.582,0.81666667,/
15.595,0.83333333,/
15.609,0.80833333,f
15.623,0.84444444,f
15.637,0.83333333,f
15.651,0.71666667,f
15.663,0.83055556,/
15.677,0.81666667,/
15.690,0.82222222,/
15.704,0.82777778,/
15.718,0.83611111,/
15.732,0.79166667,/
15.745,0.76666667,f
15.758,0.86944444,f
15.772,0.77777778,/
15.785,0.82222222,/
15.799,0.83611111,/
15.813,0.83333333,/
15.827,0.80833333,/
15.840,0.76944444,/
15.853,0.79722222,/
15.866,0.81111111,f
15.880,0.86944444,f
15.894,0.79444444,f
15.907,0.83333333,/
15.921,0.83333333,/
15.935,0.77500000,/
15.948,0.76666667,/
15.961,0.83611111,/
15.975,0.81944444,f
15.988,0.81944444,f
16.002,0.82777778,f
16.016,0.84166667,/
16.030,0.78611111,/
16.043,0.76666667,/
16.056,0.82222222,/
16.070,0.81388889,/
16.083,0.81666667,/
16.097,0.84722222,f
16.111,0.81111111,f
16.124,0.81944444,/
16.138,0.77777778,/
16.151,0.79166667,/
16.164,0.81666667,/
16.178,0.81666667,/
16.191,0.83611111,f
16.205,0.83611111,f
16.219,0.83333333,f
16.233,0.77777778,/
16.246,0.77777778,/
16.259,0.81666667,/
16.273,0.80277778,/
16.286,0.82222222,/
16.300,0.83055556,f
16.314,0.83888889,f
16.328,0.80000000,f
16.341,0.76388889,/
16.354,0.82500000,/
16.367,0.80833333,/
16.381,0.80000000,/
16.394,0.83611111,/
16.408,0.85277778,/
16.422,0.75000000,N
16.435,0.80833333,f
16.448,0.79722222,f
16.462,0.80555556,/
16.475,0.81111111,/
16.489,0.84166667,/
16.503,0.83055556,/
16.516,0.83888889,/
16.530,0.77777778,/
16.543,0.78055556,f
16.556,0.78333333,N
16.569,0.83611111,f
16.583,0.90000000,f
16.598,0.76666667,/
16.611,0.85000000,/
16.625,0.78333333,/
16.638,0.76944444,/
16.651,0.82222222,/
16.665,0.79166667,/
16.678,0.80833333,/
16.692,0.75555556,N
16.704,0.89444444,f
16.719,0.80277778,f
16.732,0.77222222,/
16.745,0.81388889,/
16.759,0.80277778,/
16.772,0.79166667,/
16.785,0.83333333,/
16.799,0.84166667,/
16.813,0.81111111,f
16.827,0.80833333,f
16.840,0.86111111,f
16.855,0.73333333,/
16.867,0.79722222,/
16.880,0.83333333,/
16.894,0.83888889,/
16.908,0.86111111,/
16.922,0.80000000,/
16.936,0.76666667,f
16.949,0.81388889,f
16.962,0.78888889,f
16.975,0.79722222,/
16.989,0.84444444,/
17.003,0.85277778,/
17.017,0.81388889,/
17.030,0.77777778,/
17.043,0.81666667,/
17.057,0.80277778,f
17.070,0.77500000,f
17.083,0.83611111,/
17.097,0.85000000,/
17.111,0.83611111,/
17.125,0.78888889,/
17.138,0.79444444,/
17.152,0.80000000,/
17.165,0.80000000,f
17.178,0.81666667,f
17.192,0.84722222,/
17.206,0.85000000,/
17.220,0.79722222,/
17.234,0.78055556,/
17.247,0.81388889,/
17.260,0.79166667,/
17.273,0.80833333,f
17.287,0.90000000,f
17.302,0.79444444,/
17.315,0.81388889,/
17.329,0.77222222,/
17.341,0.82500000,/
17.355,0.79166667,/
17.368,0.78055556,/
17.381,0.79166667,N
17.395,0.88611111,f
17.409,0.82500000,f
17.423,0.79722222,/
17.436,0.80833333,/
17.450,0.79444444,/
17.463,0.78888889,/
17.476,0.82500000,/
17.490,0.83611111,/
17.504,0.81111111,N
17.517,0.81944444,f
17.531,0.85555556,f
17.545,0.75555556,/
17.558,0.77222222,/
17.571,0.80833333,/
17.584,0.83611111,/
17.598,0.86388889,/
17.613,0.82222222,/
17.626,0.78055556,/
17.639,0.76388889,N
17.652,0.85277778,f
17.666,0.73888889,f
17.679,0.82500000,/
17.692,0.86111111,/
17.707,0.83333333,/
17.721,0.78611111,/
17.734,0.81666667,/
17.747,0.79166667,/
17.761,0.73055556,N
17.773,0.84166667,f
17.787,0.91666667,f
17.802,0.78055556,/
17.815,0.81111111,/
17.829,0.80277778,/
17.842,0.79722222,/
17.855,0.78055556,/
17.868,0.81388889,/
17.882,0.83055556,f
17.896,0.87500000,f
17.910,0.79444444,f
17.923,0.79166667,/
17.937,0.81666667,/
17.950,0.78055556,/
17.963,0.77500000,/
17.976,0.82777778,/
17.990,0.86388889,/
18.004,0.84444444,f
18.018,0.78055556,f
18.031,0.83055556,/
18.045,0.78888889,/
18.058,0.76666667,/
18.071,0.80000000,/
18.085,0.85000000,/
18.099,0.84722222,f
18.113,0.81666667,f
18.126,0.80000000,f
18.140,0.79722222,/
18.153,0.77222222,/
18.166,0.80833333,/
18.179,0.82777778,/
18.193,0.85555556,/
18.207,0.83333333,f
18.221,0.85277778,f
18.236,0.75277778,/
18.248,0.77500000,/
18.261,0.78888889,/
18.274,0.81666667,/
18.288,0.87222222,/
18.302,0.82777778,/
18.316,0.78333333,f
18.329,0.86388889,f
18.344,0.75555556,f
18.356,0.76388889,/
18.369,0.81111111,/
18.382,0.85000000,/
18.397,0.84166667,/
18.411,0.81666667,/
18.424,0.82777778,/
18.438,0.79722222,f
18.451,0.80833333,f
18.465,0.74444444,/
18.477,0.83055556,/
18.491,0.85277778,/
18.505,0.81944444,/
18.519,0.82500000,/
18.533,0.80555556,/
18.546,0.77222222,/
18.559,0.76388889,N
18.572,0.86388889,f
18.586,0.84444444,f
18.600,0.83333333,/
18.614,0.80277778,/
18.627,0.82777778,/
18.641,0.78611111,/
18.654,0.76111111,/
18.667,0.80000000,/
18.680,0.86111111,/
18.695,0.79166667,N
18.708,0.85000000,f
18.722,0.83888889,f
18.736,0.79444444,/
18.749,0.76111111,/
18.762,0.79444444,/
18.775,0.82777778,/
18.789,0.84444444,/
18.803,0.81944444,/
18.817,0.83055556,/
18.831,0.80277778,f
18.844,0.82500000,f
18.858,0.73611111,/
18.870,0.81111111,/
18.884,0.86111111,/
18.898,0.82500000,/
18.912,0.82500000,/
18.925,0.82500000,/
18.939,0.76388889,f
18.952,0.76944444,f
18.965,0.80833333,f
18.978,0.86111111,/
18.992,0.83888889,/
19.006,0.81111111,/
19.020,0.84444444,/
19.034,0.79166667,/
19.047,0.75277778,/
19.060,0.81388889,f
19.073,0.88055556,f
19.088,0.77500000,/
19.101,0.81388889,/
19.115,0.85277778,/
19.129,0.80000000,/
19.142,0.76388889,/
19.155,0.78888889,/
19.168,0.83611111,f
19.182,0.80833333,f
19.195,0.83333333,/
19.209,0.83333333,/
19.223,0.81666667,/
19.237,0.77500000,/
19.250,0.78888889,/
19.263,0.81111111,f
19.276,0.83611111,f
19.290,0.82777778,f
19.304,0.82500000,/
19.318,0.84722222,/
19.332,0.78333333,/
19.345,0.76388889,/
19.358,0.79166667,/
19.371,0.81944444,f
19.385,0.83055556,f
19.398,0.82777778,f
19.412,0.86944444,/
19.427,0.80277778,/
19.440,0.75833333,/
19.453,0.77777778,/
19.466,0.82222222,/
19.479,0.83333333,/
19.493,0.77500000,N
19.506,0.90000000,f
19.521,0.86666667,f
19.536,0.71111111,f
19.547,0.79166667,/
19.561,0.78611111,/
19.574,0.83611111,/
19.588,0.83611111,/
19.602,0.83055556,/
19.616,0.83888889,/
19.629,0.73333333,N
19.642,0.82500000,f
19.655,0.76944444,f
19.668,0.84444444,/
19.682,0.82777778,/
19.696,0.81944444,/
19.710,0.86666667,/
19.724,0.79166667,/
19.737,0.75833333,/
19.750,0.75000000,N
19.763,0.85277778,f
19.777,0.81666667,f
19.790,0.83055556,/
19.804,0.85555556,f
19.819,0.82500000,/
19.832,0.77222222,/
19.845,0.78333333,/
19.858,0.79722222,/
19.871,0.82777778,f
19.885,0.83055556,f
19.899,0.83611111,f
19.913,0.84444444,/
19.927,0.77777778,/
19.940,0.78888889,/
19.953,0.78888889,/
19.966,0.82500000,/
19.980,0.82500000,/
19.994,0.86666667,f
20.008,0.81666667,f
20.022,0.81388889,/
20.036,0.76111111,/
20.048,0.78333333,/
20.061,0.81944444,/
20.075,0.81666667,/
20.089,0.83611111,f
20.102,0.90000000,f
20.117,0.78055556,/
20.130,0.76944444,/
20.143,0.77777778,/
20.156,0.79444444,/
20.169,0.81944444,/
20.183,0.82222222,/
20.197,0.88055556,f
20.212,0.81388889,f
20.225,0.79722222,/
20.238,0.78333333,/
20.251,0.78333333,/
20.264,0.81944444,/
20.278,0.81388889,/
20.292,0.83888889,/
20.306,0.88333333,f
20.320,0.76388889,f
20.333,0.78611111,/
20.346,0.78055556,/
20.359,0.81944444,/
20.373,0.81666667,/
20.387,0.81944444,/
20.400,0.87222222,f
20.415,0.82222222,f
20.428,0.76111111,f
20.441,0.78055556,/
20.454,0.81111111,/
20.468,0.80277778,/
20.481,0.81388889,/
20.495,0.87222222,/
20.509,0.83333333,/
20.523,0.73611111,N
20.535,0.85833333,f
20.550,0.74166667,f
20.562,0.81388889,/
20.576,0.81388889,/
20.589,0.85000000,/
20.603,0.85000000,/
20.617,0.80555556,/
20.631,0.79166667,/
20.644,0.74444444,N
20.656,0.84722222,f
20.671,0.78611111,f
20.684,0.83055556,/
20.698,0.86944444,/
20.712,0.81666667,/
20.726,0.78611111,/
20.739,0.78333333,/
20.752,0.80555556,/
20.765,0.80000000,/
20.779,0.80277778,f
20.792,0.93333333,f
20.807,0.78333333,f
20.821,0.78611111,/
20.834,0.78055556,/
20.847,0.80000000,/
20.860,0.78888889,/
20.873,0.80000000,/
20.886,0.87222222,/
20.901,0.81111111,N
20.914,0.85000000,f
20.929,0.77777778,f
20.942,0.78611111,/
20.955,0.80277778,/
20.968,0.80277778,/
20.981,0.83333333,/
20.995,0.85833333,/
21.010,0.81666667,/
21.023,0.80555556,f
21.037,0.83333333,f
21.051,0.75833333,/
21.063,0.78611111,/
21.076,0.81388889,/
21.090,0.87777778,/
21.105,0.82222222,/
21.118,0.79444444,/
21.131,0.78888889,f
21.145,0.82777778,f
21.158,0.76666667,/
21.171,0.79444444,/
21.184,0.87222222,/
21.199,0.83611111,/
21.213,0.80000000,/
21.226,0.79166667,/
21.239,0.80555556,f
21.253,0.82222222,f
21.267,0.75277778,/
21.279,0.85277778,/
21.293,0.85277778,/
21.308,0.82222222,/
21.321,0.81666667,/
21.335,0.78333333,/
21.348,0.81666667,f
21.362,0.76388889,f
21.374,0.81666667,/
21.388,0.87500000,/
21.402,0.82500000,/
21.416,0.80277778,/
21.430,0.79166667,/
21.443,0.81111111,/
21.456,0.78333333,f
21.469,0.78611111,f
21.482,0.88611111,/
21.497,0.83888889,/
21.511,0.80277778,/
21.525,0.79444444,/
21.538,0.79444444,/
21.551,0.79166667,/
21.564,0.73055556,N
21.576,0.92500000,f
21.592,0.80833333,f
21.605,0.82222222,/
21.619,0.81111111,/
21.633,0.78888889,/
21.646,0.79444444,/
21.659,0.78611111,/
21.672,0.82222222,/
21.686,0.79444444,N
21.699,0.86111111,f
21.713,0.81111111,f
21.727,0.79722222,/
21.740,0.80833333,/
21.754,0.78055556,/
21.767,0.78888889,/
21.780,0.86666667,/
21.794,0.83055556,/
21.808,0.80000000,/
21.821,0.74444444,N
21.834,0.88055556,f
21.848,0.74166667,f
21.861,0.78055556,/
21.874,0.85833333,/
21.888,0.83611111,/
21.902,0.81388889,/
21.916,0.81111111,/
21.929,0.80277778,/
21.943,0.75555556,N
21.955,0.78611111,f
21.968,0.83888889,f
21.982,0.85277778,/
21.996,0.82777778,/
22.010,0.83055556,/
22.024,0.80000000,/
22.037,0.80277778,/
22.051,0.77222222,/
22.064,0.79166667,f
22.077,0.88611111,f
22.092,0.79722222,/
22.105,0.82777778,/
22.119,0.80833333,/
22.132,0.81111111,/
22.146,0.77777778,/
22.159,0.77222222,/
22.172,0.85833333,f
22.186,0.82777778,f
22.200,0.81111111,f
22.213,0.82777778,/
22.227,0.81666667,/
22.241,0.77777778,/
22.254,0.77222222,/
22.266,0.84166667,/
22.280,0.83333333,/
22.294,0.84722222,f
22.308,0.78888889,f
22.322,0.81388889,/
22.335,0.80000000,/
22.348,0.77500000,/
22.361,0.80555556,/
22.375,0.84166667,/
22.389,0.85000000,f
22.403,0.84166667,f
22.417,0.78888889,f
22.430,0.81388889,/
22.444,0.77222222,/
22.457,0.78611111,/
22.470,0.83333333,/
22.484,0.81944444,/
22.497,0.84166667,f
22.511,0.80555556,f
22.525,0.82500000,/
22.538,0.78333333,/
22.552,0.76666667,/
22.564,0.83888889,/
22.578,0.82777778,/
22.592,0.81388889,/
22.606,0.80833333,f
22.619,0.89722222,f
22.634,0.74722222,/
22.647,0.77222222,/
22.659,0.81944444,/
22.673,0.82500000,/
22.687,0.82500000,/
22.701,0.83611111,/
22.714,0.75277778,N
22.727,0.85277778,f
22.741,0.75833333,f
22.754,0.79166667,/
22.767,0.83888889,/
22.781,0.81388889,/
22.795,0.83611111,/
22.809,0.83333333,/
22.822,0.82777778,/
22.836,0.77222222,/
22.849,0.71388889,N
22.861,0.87777778,f
22.876,0.80833333,f
22.889,0.81944444,/
22.903,0.83055556,/
22.917,0.83055556,/
22.930,0.79722222,/
22.944,0.76388889,/
22.956,0.82500000,/
22.970,0.82222222,/
22.984,0.75555556,N
22.997,0.89444444,f
23.011,0.80277778,f
23.025,0.81388889,/
23.038,0.77777778,/
23.051,0.79166667,/
23.065,0.81111111,/
23.078,0.81666667,/
23.092,0.84166667,/
23.106,0.81111111,f
23.119,0.85000000,f
23.133,0.84166667,f
23.147,0.71388889,/
23.159,0.82222222,/
23.173,0.80833333,/
23.186,0.81944444,/
23.200,0.84166667,/
23.214,0.84444444,/
23.228,0.78333333,/
23.241,0.77777778,f
23.254,0.87222222,f
23.269,0.73888889,/
23.281,0.80833333,/
23.295,0.83611111,/
23.309,0.85277778,/
23.323,0.81111111,/
23.336,0.76944444,/
23.349,0.81666667,f
23.363,0.84722222,f
23.377,0.76111111,/
23.389,0.83333333,/
23.403,0.84166667,/
23.417,0.82500000,/
23.431,0.77500000,/
23.444,0.79444444,/
23.457,0.80277778,f
23.471,0.80555556,f
23.484,0.83611111,f
23.498,0.83611111,/
23.512,0.85277778,/
23.526,0.77777778,/
23.539,0.77500000,/
23.552,0.82222222,/
23.566,0.78888889,/
23.579,0.81666667,f
23.593,0.89722222,f
23.608,0.79444444,/
23.621,0.79722222,/
23.634,0.77222222,/
23.647,0.82222222,/
23.661,0.78888889,/
23.674,0.79722222,/
23.687,0.82777778,f
23.701,0.85833333,f
23.715,0.82500000,f
23.729,0.78333333,/
23.742,0.80555556,/
23.755,0.80555556,/
23.769,0.78888889,/
23.782,0.82777778,/
23.796,0.84444444,/
23.810,0.78055556,N
23.823,0.85277778,f
23.837,0.76388889,/
23.850,0.80000000,/
23.863,0.78333333,/
23.876,0.82777778,/
23.890,0.83888889,/
23.904,0.85555556,/
23.918,0.80555556,/
23.932,0.76388889,f
23.944,0.75833333,N
23.957,0.85277778,f
23.971,0.75000000,f
23.984,0.83611111,/
23.998,0.86666667,/
24.012,0.82222222,/
24.026,0.78333333,/
24.039,0.81666667,/
24.052,0.79166667,/
24.066,0.76388889,f
24.078,0.82777778,f
24.092,0.92222222,f
24.108,0.78888889,f
24.121,0.79722222,/
24.134,0.80000000,/
24.147,0.80277778,/
24.161,0.77777778,/
24.174,0.81944444,/
24.187,0.84444444,/
24.201,0.86111111,f
24.216,0.86111111,f
24.230,0.72500000,/
24.242,0.81388889,/
24.256,0.78055556,/
24.269,0.80000000,/
24.282,0.83055556,/
24.296,0.86388889,/
24.310,0.81388889,f
24.324,0.81666667,f
24.337,0.78888889,f
24.351,0.78888889,/
24.364,0.77222222,/
24.377,0.81944444,/
24.390,0.86111111,/
24.405,0.83611111,/
24.419,0.80555556,f
24.432,0.79166667,f
24.445,0.88055556,f
24.460,0.71111111,/
24.472,0.80555556,/
24.485,0.84166667,/
24.499,0.85833333,/
24.514,0.80833333,/
24.527,0.79722222,/
24.540,0.79722222,f
24.554,0.82222222,f
24.567,0.75833333,/
24.580,0.83611111,/
24.594,0.85277778,/
24.608,0.81666667,/
24.622,0.80833333,/
24.635,0.80555556,/
24.649,0.75555556,f
24.661,0.80000000,f
24.674,0.81944444,f
24.688,0.87222222,/
24.703,0.82777778,/
24.716,0.79444444,/
24.730,0.82222222,/
24.743,0.78611111,/
24.757,0.76666667,/
24.769,0.75277778,N
24.782,0.93333333,f
24.797,0.80000000,f
24.811,0.81111111,/
24.824,0.83055556,/
24.838,0.79166667,/
24.851,0.76944444,/
24.864,0.79166667,/
24.877,0.83055556,/
24.891,0.77222222,N
24.904,0.86944444,f
24.919,0.78055556,f
24.932,0.81666667,/
24.945,0.77222222,/
24.958,0.79166667,/
24.971,0.81944444,/
24.985,0.85555556,/
24.999,0.82500000,/
25.026,0.82500000,N
25.039,0.83888889,f
25.053,0.73333333,f
25.079,0.85277778,/
25.093,0.84444444,/
25.107,0.81111111,/
25.121,0.84444444,/
25.135,0.78888889,/
25.148,0.73055556,N
25.160,0.84722222,f
25.174,0.80555556,f
25.188,0.85277778,/
25.202,0.82222222,/
25.216,0.83611111,/
25.229,0.80277778,/
25.243,0.76388889,/
25.256,0.79166667,/
25.269,0.80277778,f
25.282,0.90833333,f
25.297,0.77222222,/
25.310,0.82777778,/
25.324,0.82222222,/
25.338,0.76944444,/
25.351,0.78611111,/
25.364,0.80833333,/
25.377,0.88333333,f
25.392,0.85000000,f
25.406,0.76388889,/
25.419,0.84444444,/
25.433,0.78611111,/
25.446,0.76388889,/
25.459,0.78333333,/
25.472,0.84166667,/
25.486,0.88055556,f
25.500,0.77500000,f
25.513,0.86111111,/
25.528,0.80833333,/
25.541,0.75833333,/
25.554,0.78333333,/
25.567,0.81944444,/
25.580,0.84444444,f
25.595,0.87500000,f
25.609,0.79166667,/
25.622,0.81666667,/
25.636,0.77222222,/
25.649,0.78888889,/
25.662,0.79166667,/
25.675,0.84444444,/
25.689,0.82222222,f
25.703,0.89166667,f
25.718,0.78611111,/
25.731,0.77777778,/
25.744,0.77777778,/
25.757,0.78888889,/
25.770,0.83611111,/
25.784,0.83055556,/
25.798,0.78333333,N
25.811,0.90833333,f
25.826,0.78333333,/
25.839,0.76388889,/
25.852,0.77222222,/
25.865,0.82222222,/
25.878,0.84444444,/
25.892,0.81944444,/
25.906,0.85833333,/
25.920,0.76111111,N
25.933,0.82222222,f
25.947,0.75277778,f
25.959,0.80000000,/
25.973,0.82222222,/
25.986,0.82777778,/
26.000,0.84722222,/
26.014,0.82777778,/
26.028,0.78055556,/
26.041,0.79166667,/
26.054,0.71666667,N
26.066,0.86666667,f
26.081,0.80833333,f
26.094,0.82777778,/
26.108,0.85833333,/
26.122,0.80000000,/
26.136,0.77500000,/
26.148,0.78333333,/
26.161,0.82222222,/
26.175,0.81666667,/
26.189,0.75833333,N
26.201,0.93888889,f
26.217,0.78888889,f
26.230,0.76388889,/
26.243,0.77500000,/
26.256,0.81111111,/
26.269,0.81666667,/
26.283,0.81388889,/
26.297,0.86666667,/
26.311,0.83888889,f
26.325,0.79166667,f
26.338,0.76666667,f
26.351,0.79166667,/
26.364,0.80555556,/
26.378,0.81388889,/
26.391,0.85000000,/
26.405,0.84166667,/
26.419,0.80000000,/
26.433,0.77777778,f
26.446,0.80833333,f
26.459,0.80277778,f
26.473,0.81666667,/
26.486,0.82500000,/
26.500,0.86944444,/
26.514,0.81111111,/
26.528,0.77777778,/
26.541,0.78333333,/
26.554,0.81111111,f
26.567,0.87500000,f
26.582,0.75000000,/
26.594,0.87777778,/
26.609,0.82500000,/
26.623,0.77777778,/
26.636,0.78333333,/
26.649,0.79722222,/
26.662,0.80000000,f
26.676,0.85555556,f
26.690,0.81666667,f
26.703,0.85000000,/
26.718,0.79444444,/
26.731,0.79166667,/
26.744,0.78888889,/
26.757,0.80000000,/
26.770,0.77500000,f
26.783,0.85000000,f
26.798,0.87500000,f
26.812,0.81944444,/
26.826,0.80555556,/
26.839,0.78333333,/
26.852,0.81388889,/
26.866,0.79444444,/
26.879,0.80833333,/
26.893,0.83888889,N
26.907,0.85833333,f
26.921,0.84166667,f
26.935,0.73055556,f
26.947,0.81666667,/
26.961,0.78888889,/
26.974,0.80277778,/
26.987,0.88333333,/
27.002,0.83888889,/
27.016,0.79722222,/
27.029,0.71388889,N
27.041,0.81666667,f
27.055,0.79166667,f
27.068,0.79722222,/
27.081,0.85000000,/
27.095,0.85277778,/
27.110,0.81388889,/
27.123,0.80555556,/
27.137,0.78888889,/
27.150,0.80000000,/
27.163,0.73611111,N
27.175,0.83611111,f
27.189,0.93611111,f
27.205,0.76388889,f
27.218,0.81388889,/
27.231,0.78888889,/
27.244,0.81111111,/
27.258,0.78611111,/
27.271,0.79166667,/
27.284,0.87500000,/
27.312,0.78333333,N
27.325,0.88888889,f
27.340,0.74166667,f
27.365,0.78333333,/
27.378,0.86944444,/
27.393,0.83888889,/
27.407,0.80555556,/
27.420,0.80555556,/
27.434,0.78611111,f
27.447,0.84444444,f
27.461,0.73055556,f
27.473,0.83888889,/
27.487,0.85555556,/
27.501,0.82500000,/
27.515,0.82222222,/
27.529,0.78888889,/
27.542,0.80277778,/
27.555,0.78333333,f
27.568,0.86111111,f
27.583,0.79722222,/
27.596,0.82500000,/
27.610,0.82777778,/
27.623,0.79722222,/
27.637,0.80833333,/
27.650,0.77500000,/
27.663,0.77222222,f
27.676,0.88888889,f
27.691,0.81666667,f
27.704,0.81111111,/
27.718,0.81388889,/
27.731,0.81666667,/
27.745,0.77777778,/
27.758,0.77500000,/
27.771,0.85277778,/
27.785,0.83333333,f
27.799,0.88611111,f
27.814,0.74444444,/
27.826,0.80555556,/
27.840,0.79444444,/
27.853,0.77777778,/
27.866,0.81944444,/
27.880,0.84722222,/
27.894,0.81666667,f
27.907,0.83055556,f
27.921,0.87500000,f
27.936,0.75000000,f
27.948,0.77222222,/
27.961,0.79722222,/
27.974,0.84166667,/
27.988,0.81944444,/
28.002,0.83611111,/
28.016,0.81666667,/
28.030,0.76388889,N
28.042,0.81666667,f
28.056,0.76388889,f
28.069,0.84722222,/
28.083,0.82777778,/
28.097,0.82222222,/
28.110,0.82777778,/
28.124,0.82777778,/
28.138,0.78055556,/
28.151,0.76944444,/
28.164,0.82222222,f
28.177,0.84444444,f
28.191,0.88333333,f
28.206,0.75833333,/
28.219,0.82500000,/
28.233,0.80000000,/
28.246,0.76944444,/
28.259,0.80555556,/
28.272,0.83888889,/
28.286,0.82500000,/
28.300,0.83888889,/
28.314,0.80277778,f
28.327,0.83333333,f
28.341,0.82777778,f
28.355,0.72777778,/
28.367,0.83055556,/
28.381,0.81388889,/
28.394,0.83611111,/
28.408,0.83333333,/
28.422,0.82500000,/
28.436,0.77777778,/
28.449,0.74722222,f
28.461,0.85000000,f
28.476,0.82222222,f
28.489,0.82222222,/
28.503,0.83055556,/
28.517,0.83888889,/
28.531,0.79166667,/
28.544,0.76666667,/
28.557,0.82500000,/
28.571,0.81388889,/
28.584,0.81944444,f
28.598,0.87500000,f
28.612,0.78611111,/
28.626,0.81388889,/
28.639,0.77222222,/
28.652,0.80000000,/
28.665,0.81944444,/
28.679,0.81388889,/
28.692,0.83055556,f
28.706,0.80833333,f
28.720,0.90277778,f
28.735,0.72222222,/
28.747,0.78611111,/
28.760,0.80833333,/
28.773,0.79722222,/
28.787,0.85000000,/
28.801,0.83888889,/
28.815,0.82777778,f
28.829,0.77500000,f
28.842,0.78611111,f
28.855,0.82222222,/
28.868,0.80277778,/
28.882,0.81944444,/
28.895,0.83888889,/
28.909,0.85833333,/
28.924,0.79722222,/
28.937,0.73055556,N
28.949,0.82500000,f
28.963,0.89722222,f
28.978,0.73055556,/
28.990,0.83333333,/
29.004,0.85555556,/
29.018,0.81666667,/
29.032,0.76944444,/
29.045,0.81111111,/
29.058,0.80555556,/
29.072,0.77500000,f
29.085,0.85277778,f
29.099,0.91388889,f
29.114,0.75555556,/
29.127,0.77777778,/
29.140,0.79722222,/
29.153,0.80000000,/
29.166,0.78888889,/
29.179,0.84166667,/
29.193,0.83611111,/
29.207,0.82222222,f
29.221,0.79444444,N
29.234,0.83055556,f
29.248,0.78055556,f
29.261,0.78888889,/
29.274,0.80833333,/
29.288,0.83888889,/
29.302,0.86388889,/
29.316,0.81388889,/
29.330,0.77500000,/
29.343,0.82222222,/
29.356,0.75277778,N
29.369,0.78611111,f
29.382,0.90000000,f
29.397,0.81111111,f
29.410,0.83611111,/
29.424,0.78888889,/
29.438,0.80833333,/
29.451,0.79166667,/
29.464,0.78055556,/
29.477,0.82222222,/
29.491,0.83333333,f
29.505,0.85833333,f
29.519,0.86944444,f
29.534,0.73055556,/
29.546,0.80000000,/
29.559,0.78055556,/
29.572,0.82500000,/
29.586,0.84166667,/
29.600,0.85555556,/
29.614,0.81111111,/
29.628,0.79444444,f
29.641,0.86666667,f
29.655,0.71666667,/
29.667,0.78888889,/
29.680,0.83055556,/
29.694,0.87222222,/
29.709,0.81944444,/
29.722,0.79166667,/
29.736,0.82222222,f
29.749,0.77777778,f
29.762,0.78055556,f
29.775,0.82222222,/
29.789,0.85555556,/
29.803,0.83611111,/
29.817,0.80000000,/
29.831,0.81666667,/
29.844,0.79166667,/
29.857,0.77222222,f
29.870,0.82777778,f
29.884,0.81388889,f
29.898,0.85833333,/
29.912,0.81666667,/
29.926,0.80833333,/
29.939,0.80000000,/
29.952,0.76944444,/
29.965,0.81111111,/
29.979,0.82500000,f
29.992,0.92500000,f
30.008,0.75833333,/
30.020,0.80000000,/
30.034,0.81111111,/
30.047,0.77222222,/
30.060,0.77777778,/
30.073,0.82222222,/
