Elapsedtime,sample,Type,Sub,Chan,Num
0:00.331,119,(,0,0,0
0:00.383,138,p,0,0,0
0:00.428,154,),0,0,0
0:00.494,178,(,0,0,1
0:00.542,195,N,0,0,0
0:00.608,219,),0,0,1
0:00.739,266,(,0,0,2
0:00.819,295,t,0,0,0
0:00.883,318,),0,0,2
0:01.064,383,(,0,0,0
0:01.117,402,p,0,0,0
0:01.158,417,),0,0,0
0:01.228,442,(,0,0,1
0:01.269,457,N,0,0,0
0:01.369,493,),0,0,1
0:01.464,527,(,0,0,2
0:01.539,554,t,0,0,0
0:01.617,582,),0,0,2
0:01.767,636,(,0,0,0
0:01.811,652,p,0,0,0
0:01.853,667,),0,0,0
0:01.922,692,(,0,0,1
0:01.964,707,N,0,0,0
0:02.017,726,),0,0,1
0:02.161,778,(,0,0,2
0:02.244,808,t,0,0,0
0:02.336,841,),0,0,2
0:02.478,892,(,0,0,0
0:02.528,910,p,0,0,0
0:02.567,924,),0,0,0
0:02.636,949,(,0,0,1
0:02.675,963,N,0,0,0
0:02.728,982,),0,0,1
0:02.872,1034,(,0,0,2
0:02.950,1062,t,0,0,0
0:03.028,1090,),0,0,2
0:03.194,1150,(,0,0,0
0:03.242,1167,p,0,0,0
0:03.283,1182,),0,0,0
0:03.322,1196,(,0,0,1
0:03.389,1220,N,0,0,0
0:03.442,1239,),0,0,1
0:03.583,1290,(,0,0,2
0:03.656,1316,t,0,0,0
0:03.736,1345,),0,0,2
0:03.903,1405,(,0,0,0
0:03.950,1422,p,0,0,0
0:03.994,1438,),0,0,0
0:04.033,1452,(,0,0,1
0:04.103,1477,N,0,0,0
0:04.158,1497,),0,0,1
0:04.303,1549,(,0,0,2
0:04.378,1576,t,0,0,0
0:04.453,1603,),0,0,2
0:04.628,1666,(,0,0,0
0:04.678,1684,p,0,0,0
0:04.719,1699,),0,0,0
0:04.792,1725,(,0,0,1
0:04.833,1740,N,0,0,0
0:04.900,1764,),0,0,1
0:04.967,1788,(,0,0,2
0:05.000,1800,t,0,0,4
0:05.119,1843,t,0,0,4
0:05.225,1881,),0,0,2
0:05.381,1937,(,0,0,0
0:05.433,1956,p,0,0,0
0:05.475,1971,),0,0,0
0:05.519,1987,(,0,0,1
0:05.594,2014,N,0,0,0
0:05.661,2038,),0,0,1
0:05.797,2087,(,0,0,2
0:05.886,2119,t,0,0,0
0:05.975,2151,),0,0,2
0:06.142,2211,(,0,0,0
0:06.197,2231,p,0,0,0
0:06.239,2246,),0,0,0
0:06.306,2270,(,0,0,1
0:06.347,2285,N,0,0,0
0:06.403,2305,),0,0,1
0:06.547,2357,(,0,0,2
0:06.625,2385,t,0,0,0
0:06.706,2414,),0,0,2
0:06.875,2475,(,0,0,0
0:06.925,2493,p,0,0,0
0:06.969,2509,),0,0,0
0:07.036,2533,(,0,0,1
0:07.081,2549,N,0,0,0
0:07.133,2568,),0,0,1
0:07.275,2619,(,0,0,2
0:07.350,2646,t,0,0,0
0:07.431,2675,),0,0,2
0:07.583,2730,(,0,0,0
0:07.636,2749,p,0,0,0
0:07.675,2763,),0,0,0
0:07.736,2785,(,0,0,1
0:07.781,2801,N,0,0,0
0:07.833,2820,),0,0,1
0:07.981,2873,(,0,0,2
0:08.050,2898,t,0,0,0
0:08.144,2932,),0,0,2
0:08.278,2980,(,0,0,0
0:08.328,2998,p,0,0,0
0:08.364,3011,),0,0,0
0:08.403,3025,(,0,0,1
0:08.475,3051,N,0,0,0
0:08.528,3070,),0,0,1
0:08.667,3120,(,0,0,2
0:08.747,3149,t,0,0,0
0:08.839,3182,),0,0,2
0:08.986,3235,(,0,0,0
0:09.028,3250,p,0,0,0
0:09.067,3264,),0,0,0
0:09.100,3276,(,0,0,1
0:09.169,3301,N,0,0,0
0:09.222,3320,),0,0,1
0:09.364,3371,(,0,0,2
0:09.444,3400,t,0,0,0
0:09.544,3436,),0,0,2
0:09.694,3490,(,0,0,0
0:09.744,3508,p,0,0,0
0:09.783,3522,),0,0,0
0:09.825,3537,(,0,0,1
0:09.894,3562,N,0,0,0
0:09.947,3581,),0,0,1
0:10.097,3635,(,0,0,2
0:10.178,3664,t,0,0,0
0:10.258,3693,),0,0,2
0:10.433,3756,(,0,0,0
0:10.489,3776,p,0,0,0
0:10.531,3791,),0,0,0
0:10.572,3806,(,0,0,1
0:10.650,3834,N,0,0,0
0:10.708,3855,),0,0,1
0:10.856,3908,(,0,0,2
0:10.936,3937,t,0,0,0
0:11.025,3969,),0,0,2
0:11.172,4022,(,0,0,0
0:11.231,4043,p,0,0,0
0:11.272,4058,),0,0,0
0:11.317,4074,(,0,0,1
0:11.392,4101,N,0,0,0
0:11.447,4121,),0,0,1
0:11.603,4177,(,0,0,2
0:11.681,4205,t,0,0,0
0:11.783,4242,),0,0,2
0:11.933,4296,(,0,0,0
0:11.981,4313,p,0,0,0
0:12.022,4328,),0,0,0
0:12.094,4354,(,0,0,1
0:12.136,4369,N,0,0,0
0:12.192,4389,),0,0,1
0:12.336,4441,(,0,0,2
0:12.414,4469,t,0,0,0
0:12.489,4496,),0,0,2
0:12.667,4560,(,0,0,0
0:12.719,4579,p,0,0,0
0:12.761,4594,),0,0,0
0:12.797,4607,(,0,0,1
0:12.872,4634,N,0,0,0
0:12.942,4659,),0,0,1
0:13.075,4707,(,0,0,2
0:13.156,4736,t,0,0,0
0:13.233,4764,),0,0,2
0:13.400,4824,(,0,0,0
0:13.453,4843,p,0,0,0
0:13.494,4858,),0,0,0
0:13.567,4884,(,0,0,1
0:13.608,4899,N,0,0,0
0:13.675,4923,),0,0,1
0:13.806,4970,(,0,0,2
0:13.878,4996,t,0,0,0
0:13.961,5026,),0,0,2
0:14.119,5083,(,0,0,0
0:14.164,5099,p,0,0,0
0:14.206,5114,),0,0,0
0:14.247,5129,(,0,0,1
0:14.314,5153,N,0,0,0
0:14.367,5172,),0,0,1
0:14.442,5199,(,0,0,2
0:14.478,5212,t,0,0,4
0:14.592,5253,t,0,0,4
0:14.672,5282,),0,0,2
0:14.831,5339,(,0,0,0
0:14.875,5355,p,0,0,0
0:14.914,5369,),0,0,0
0:14.975,5391,(,0,0,1
0:15.017,5406,N,0,0,0
0:15.069,5425,),0,0,1
0:15.175,5463,t,0,0,2
0:15.272,5498,),0,0,2
0:15.381,5537,(,0,0,1
0:15.444,5560,N,0,0,0
0:15.483,5574,),0,0,1
0:15.617,5622,t,0,0,2
0:15.725,5661,),0,0,2
0:16.244,5848,(,0,0,0
0:16.297,5867,p,0,0,0
0:16.339,5882,),0,0,0
0:16.378,5896,(,0,0,1
0:16.447,5921,N,0,0,0
0:16.503,5941,),0,0,1
0:16.636,5989,(,0,0,2
0:16.733,6024,t,0,0,0
0:16.839,6062,),0,0,2
0:16.989,6116,(,0,0,0
0:17.042,6135,p,0,0,0
0:17.086,6151,),0,0,0
0:17.161,6178,(,0,0,1
0:17.206,6194,N,0,0,0
0:17.261,6214,),0,0,1
0:17.419,6271,(,0,0,2
0:17.497,6299,t,0,0,0
0:17.553,6319,),0,0,2
0:17.753,6391,(,0,0,0
0:17.806,6410,p,0,0,0
0:17.847,6425,),0,0,0
0:17.922,6452,(,0,0,1
0:17.964,6467,N,0,0,0
0:18.022,6488,),0,0,1
0:18.175,6543,(,0,0,2
0:18.261,6574,t,0,0,0
0:18.339,6602,),0,0,2
0:18.506,6662,(,0,0,0
0:18.556,6680,p,0,0,0
0:18.597,6695,),0,0,0
0:18.667,6720,(,0,0,1
0:18.708,6735,N,0,0,0
0:18.772,6758,),0,0,1
0:18.908,6807,(,0,0,2
0:18.989,6836,t,0,0,0
0:19.083,6870,),0,0,2
0:19.239,6926,(,0,0,0
0:19.283,6942,p,0,0,0
0:19.322,6956,),0,0,0
0:19.389,6980,(,0,0,1
0:19.428,6994,N,0,0,0
0:19.478,7012,),0,0,1
0:19.625,7065,(,0,0,2
0:19.692,7089,t,0,0,0
0:19.767,7116,),0,0,2
0:19.925,7173,(,0,0,0
0:19.975,7191,p,0,0,0
0:20.017,7206,),0,0,0
0:20.050,7218,(,0,0,1
0:20.125,7245,N,0,0,0
0:20.186,7267,),0,0,1
0:20.319,7315,(,0,0,2
0:20.394,7342,t,0,0,0
0:20.497,7379,),0,0,2
0:20.644,7432,(,0,0,0
0:20.694,7450,p,0,0,0
0:20.733,7464,),0,0,0
0:20.781,7481,(,0,0,1
0:20.847,7505,N,0,0,0
0:20.897,7523,),0,0,1
0:21.047,7577,(,0,0,2
0:21.128,7606,t,0,0,0
0:21.197,7631,),0,0,2
0:21.369,7693,(,0,0,0
0:21.422,7712,p,0,0,0
0:21.464,7727,),0,0,0
0:21.497,7739,(,0,0,1
0:21.569,7765,N,0,0,0
0:21.664,7799,),0,0,1
0:21.742,7827,t,0,0,2
0:21.844,7864,),0,0,2
0:21.939,7898,(,0,0,1
0:22.003,7921,N,0,0,0
0:22.044,7936,),0,0,1
0:22.189,7988,t,0,0,2
0:22.303,8029,),0,0,2
0:22.817,8214,(,0,0,0
0:22.875,8235,p,0,0,0
0:22.919,8251,),0,0,0
0:22.981,8273,(,0,0,1
0:23.025,8289,N,0,0,0
0:23.081,8309,),0,0,1
0:23.211,8356,(,0,0,2
0:23.314,8393,t,0,0,0
0:23.425,8433,),0,0,2
0:23.575,8487,(,0,0,0
0:23.625,8505,p,0,0,0
0:23.664,8519,),0,0,0
0:23.739,8546,(,0,0,1
0:23.783,8562,N,0,0,0
0:23.853,8587,),0,0,1
0:23.997,8639,(,0,0,2
0:24.078,8668,t,0,0,0
0:24.128,8686,),0,0,2
0:24.322,8756,(,0,0,0
0:24.369,8773,p,0,0,0
0:24.408,8787,),0,0,0
0:24.481,8813,(,0,0,1
0:24.522,8828,N,0,0,0
0:24.589,8852,),0,0,1
0:24.725,8901,(,0,0,2
0:24.814,8933,t,0,0,0
0:24.900,8964,),0,0,2
0:25.050,9018,(,0,0,0
0:25.106,9038,p,0,0,0
0:25.144,9052,),0,0,0
0:25.214,9077,(,0,0,1
0:25.256,9092,N,0,0,0
0:25.361,9130,),0,0,1
0:25.456,9164,(,0,0,2
0:25.536,9193,t,0,0,0
0:25.592,9213,),0,0,2
0:25.778,9280,(,0,0,0
0:25.822,9296,p,0,0,0
0:25.864,9311,),0,0,0
0:25.908,9327,(,0,0,1
0:25.967,9348,N,0,0,0
0:26.019,9367,),0,0,1
0:26.156,9416,(,0,0,2
0:26.233,9444,t,0,0,0
0:26.286,9463,),0,0,2
0:26.478,9532,(,0,0,0
0:26.517,9546,p,0,0,0
0:26.553,9559,),0,0,0
0:26.592,9573,(,0,0,1
0:26.664,9599,N,0,0,0
0:26.728,9622,),0,0,1
0:26.869,9673,(,0,0,2
0:26.975,9711,t,0,0,0
0:27.094,9754,),0,0,2
0:27.164,9779,(,0,0,0
0:27.203,9793,p,0,0,0
0:27.242,9807,),0,0,0
0:27.303,9829,(,0,0,1
0:27.344,9844,N,0,0,0
0:27.397,9863,),0,0,1
0:27.486,9895,(,0,0,2
0:27.517,9906,t,0,0,4
0:27.617,9942,t,0,0,4
0:27.708,9975,),0,0,2
0:27.853,10027,(,0,0,0
0:27.908,10047,p,0,0,0
0:27.953,10063,),0,0,0
0:28.025,10089,(,0,0,1
0:28.067,10104,N,0,0,0
0:28.136,10129,),0,0,1
0:28.264,10175,(,0,0,2
0:28.358,10209,t,0,0,0
0:28.467,10248,),0,0,2
0:28.619,10303,(,0,0,0
0:28.669,10321,p,0,0,0
0:28.714,10337,),0,0,0
0:28.786,10363,(,0,0,1
0:28.831,10379,N,0,0,0
0:28.883,10398,),0,0,1
0:29.028,10450,(,0,0,2
0:29.106,10478,t,0,0,0
0:29.197,10511,),0,0,2
0:29.358,10569,(,0,0,0
0:29.408,10587,p,0,0,0
0:29.450,10602,),0,0,0
0:29.519,10627,(,0,0,1
0:29.567,10644,N,0,0,0
0:29.622,10664,),0,0,1
0:29.775,10719,(,0,0,2
0:29.847,10745,t,0,0,0
0:29.922,10772,),0,0,2
0:30.089,10832,(,0,0,0
0:30.142,10851,p,0,0,0
0:30.183,10866,),0,0,0
0:30.253,10891,(,0,0,1
0:30.294,10906,N,0,0,0
0:30.361,10930,),0,0,1
0:30.494,10978,(,0,0,2
0:30.578,11008,t,0,0,0
0:30.706,11054,),0,0,2
0:30.828,11098,(,0,0,0
0:30.872,11114,p,0,0,0
0:30.911,11128,),0,0,0
0:30.978,11152,(,0,0,1
0:31.019,11167,N,0,0,0
0:31.072,11186,),0,0,1
0:31.222,11240,(,0,0,2
0:31.297,11267,t,0,0,0
0:31.406,11306,),0,0,2
0:31.544,11356,(,0,0,0
0:31.592,11373,p,0,0,0
0:31.631,11387,),0,0,0
0:31.661,11398,(,0,0,1
0:31.731,11423,N,0,0,0
0:31.781,11441,),0,0,1
0:31.919,11491,(,0,0,2
0:31.992,11517,t,0,0,0
0:32.064,11543,),0,0,2
0:32.231,11603,(,0,0,0
0:32.281,11621,p,0,0,0
0:32.319,11635,),0,0,0
0:32.383,11658,(,0,0,1
0:32.428,11674,N,0,0,0
0:32.481,11693,),0,0,1
0:32.614,11741,(,0,0,2
0:32.692,11769,t,0,0,0
0:32.758,11793,),0,0,2
0:32.933,11856,(,0,0,0
0:32.986,11875,p,0,0,0
0:33.028,11890,),0,0,0
0:33.094,11914,(,0,0,1
0:33.136,11929,N,0,0,0
0:33.194,11950,),0,0,1
0:33.339,12002,(,0,0,2
0:33.417,12030,t,0,0,0
0:33.489,12056,),0,0,2
0:33.653,12115,(,0,0,0
0:33.700,12132,p,0,0,0
0:33.739,12146,),0,0,0
0:33.778,12160,(,0,0,1
0:33.847,12185,N,0,0,0
0:33.903,12205,),0,0,1
0:34.050,12258,(,0,0,2
0:34.131,12287,t,0,0,0
0:34.200,12312,),0,0,2
0:34.386,12379,(,0,0,0
0:34.431,12395,p,0,0,0
0:34.469,12409,),0,0,0
0:34.533,12432,(,0,0,1
0:34.578,12448,N,0,0,0
0:34.631,12467,),0,0,1
0:34.753,12511,t,0,0,2
0:34.853,12547,),0,0,2
0:34.997,12599,(,0,0,1
0:35.067,12624,N,0,0,0
0:35.108,12639,),0,0,1
0:35.136,12649,(,0,0,2
0:35.244,12688,t,0,0,1
0:35.372,12734,),0,0,2
0:35.856,12908,(,0,0,0
0:35.914,12929,p,0,0,0
0:35.958,12945,),0,0,0
0:36.025,12969,(,0,0,1
0:36.072,12986,N,0,0,0
0:36.144,13012,),0,0,1
0:36.281,13061,(,0,0,2
0:36.372,13094,t,0,0,0
0:36.456,13124,),0,0,2
0:36.606,13178,(,0,0,0
0:36.656,13196,p,0,0,0
0:36.697,13211,),0,0,0
0:36.736,13225,(,0,0,1
0:36.808,13251,N,0,0,0
0:36.861,13270,),0,0,1
0:37.019,13327,(,0,0,2
0:37.089,13352,t,0,0,0
0:37.136,13369,),0,0,2
0:37.319,13435,(,0,0,0
0:37.369,13453,p,0,0,0
0:37.408,13467,),0,0,0
0:37.444,13480,(,0,0,1
0:37.517,13506,N,0,0,0
0:37.567,13524,),0,0,1
0:37.697,13571,(,0,0,2
0:37.778,13600,t,0,0,0
0:37.836,13621,),0,0,2
0:38.008,13683,(,0,0,0
0:38.056,13700,p,0,0,0
0:38.097,13715,),0,0,0
0:38.164,13739,(,0,0,1
0:38.206,13754,N,0,0,0
0:38.269,13777,),0,0,1
0:38.392,13821,(,0,0,2
0:38.469,13849,t,0,0,0
0:38.553,13879,),0,0,2
0:38.711,13936,(,0,0,0
0:38.753,13951,p,0,0,0
0:38.794,13966,),0,0,0
0:38.861,13990,(,0,0,1
0:38.903,14005,N,0,0,0
0:38.967,14028,),0,0,1
0:39.089,14072,(,0,0,2
0:39.164,14099,t,0,0,0
0:39.228,14122,),0,0,2
0:39.400,14184,(,0,0,0
0:39.439,14198,p,0,0,0
0:39.481,14213,),0,0,0
0:39.517,14226,(,0,0,1
0:39.589,14252,N,0,0,0
0:39.656,14276,),0,0,1
0:39.803,14329,(,0,0,2
0:39.878,14356,t,0,0,0
0:39.942,14379,),0,0,2
0:40.117,14442,(,0,0,0
0:40.164,14459,p,0,0,0
0:40.206,14474,),0,0,0
0:40.250,14490,(,0,0,1
0:40.319,14515,N,0,0,0
0:40.389,14540,),0,0,1
0:40.511,14584,(,0,0,2
0:40.603,14617,t,0,0,0
0:40.739,14666,),0,0,2
0:40.883,14718,(,0,0,0
0:40.919,14731,p,0,0,0
0:40.961,14746,),0,0,0
0:41.028,14770,(,0,0,1
0:41.069,14785,N,0,0,0
0:41.169,14821,),0,0,1
0:41.264,14855,(,0,0,2
0:41.344,14884,t,0,0,0
0:41.453,14923,),0,0,2
0:41.617,14982,(,0,0,0
0:41.656,14996,p,0,0,0
0:41.697,15011,),0,0,0
0:41.742,15027,(,0,0,1
0:41.811,15052,N,0,0,0
0:41.864,15071,),0,0,1
0:42.022,15128,(,0,0,2
0:42.089,15152,t,0,0,0
0:42.181,15185,),0,0,2
0:42.328,15238,(,0,0,0
0:42.378,15256,p,0,0,0
0:42.419,15271,),0,0,0
0:42.464,15287,(,0,0,1
0:42.528,15310,N,0,0,0
0:42.583,15330,),0,0,1
0:42.739,15386,(,0,0,2
0:42.811,15412,t,0,0,0
0:42.872,15434,),0,0,2
0:43.053,15499,(,0,0,0
0:43.106,15518,p,0,0,0
0:43.147,15533,),0,0,0
0:43.214,15557,(,0,0,1
0:43.258,15573,N,0,0,0
0:43.317,15594,),0,0,1
0:43.461,15646,(,0,0,2
0:43.539,15674,t,0,0,0
0:43.600,15696,),0,0,2
0:43.781,15761,(,0,0,0
0:43.831,15779,p,0,0,0
0:43.872,15794,),0,0,0
0:43.936,15817,(,0,0,1
0:43.978,15832,N,0,0,0
0:44.031,15851,),0,0,1
0:44.156,15896,(,0,0,2
0:44.242,15927,t,0,0,0
0:44.342,15963,),0,0,2
0:44.478,16012,(,0,0,0
0:44.522,16028,p,0,0,0
0:44.564,16043,),0,0,0
0:44.600,16056,(,0,0,1
0:44.672,16082,N,0,0,0
0:44.725,16101,),0,0,1
0:44.861,16150,(,0,0,2
0:44.944,16180,t,0,0,0
0:45.014,16205,),0,0,2
0:45.181,16265,(,0,0,0
0:45.228,16282,p,0,0,0
0:45.267,16296,),0,0,0
0:45.303,16309,(,0,0,1
0:45.372,16334,N,0,0,0
0:45.425,16353,),0,0,1
0:45.564,16403,(,0,0,2
0:45.639,16430,t,0,0,0
0:45.697,16451,),0,0,2
0:45.881,16517,(,0,0,0
0:45.931,16535,p,0,0,0
0:45.969,16549,),0,0,0
0:46.033,16572,(,0,0,1
0:46.081,16589,N,0,0,0
0:46.133,16608,),0,0,1
0:46.283,16662,(,0,0,2
0:46.364,16691,t,0,0,0
0:46.428,16714,),0,0,2
0:46.603,16777,(,0,0,0
0:46.661,16798,p,0,0,0
0:46.700,16812,),0,0,0
0:46.772,16838,(,0,0,1
0:46.811,16852,N,0,0,0
0:46.881,16877,),0,0,1
0:47.017,16926,(,0,0,2
0:47.094,16954,t,0,0,0
0:47.172,16982,),0,0,2
0:47.358,17049,(,0,0,0
0:47.414,17069,p,0,0,0
0:47.458,17085,),0,0,0
0:47.531,17111,(,0,0,1
0:47.572,17126,N,0,0,0
0:47.639,17150,),0,0,1
0:47.775,17199,(,0,0,2
0:47.856,17228,t,0,0,0
0:47.917,17250,),0,0,2
0:48.111,17320,(,0,0,0
0:48.167,17340,p,0,0,0
0:48.208,17355,),0,0,0
0:48.283,17382,(,0,0,1
0:48.325,17397,N,0,0,0
0:48.381,17417,),0,0,1
0:48.528,17470,(,0,0,2
0:48.606,17498,t,0,0,0
0:48.658,17517,),0,0,2
0:48.856,17588,(,0,0,0
0:48.903,17605,p,0,0,0
0:48.942,17619,),0,0,0
0:49.011,17644,(,0,0,1
0:49.050,17658,N,0,0,0
0:49.119,17683,),0,0,1
0:49.256,17732,(,0,0,2
0:49.331,17759,t,0,0,0
0:49.397,17783,),0,0,2
0:49.575,17847,(,0,0,0
0:49.619,17863,p,0,0,0
0:49.661,17878,),0,0,0
0:49.694,17890,(,0,0,1
0:49.764,17915,N,0,0,0
0:49.817,17934,),0,0,1
0:49.953,17983,(,0,0,2
0:50.031,18011,t,0,0,0
0:50.119,18043,),0,0,2
0:50.267,18096,(,0,0,0
0:50.317,18114,p,0,0,0
0:50.356,18128,),0,0,0
0:50.394,18142,(,0,0,1
0:50.464,18167,N,0,0,0
0:50.528,18190,),0,0,1
0:50.653,18235,(,0,0,2
0:50.736,18265,t,0,0,0
0:50.844,18304,),0,0,2
0:50.983,18354,(,0,0,0
0:51.028,18370,p,0,0,0
0:51.069,18385,),0,0,0
0:51.106,18398,(,0,0,1
0:51.181,18425,N,0,0,0
0:51.233,18444,),0,0,1
0:51.381,18497,(,0,0,2
0:51.458,18525,t,0,0,0
0:51.522,18548,),0,0,2
0:51.689,18608,(,0,0,0
0:51.742,18627,p,0,0,0
0:51.781,18641,),0,0,0
0:51.847,18665,(,0,0,1
0:51.892,18681,N,0,0,0
0:51.961,18706,),0,0,1
0:52.097,18755,(,0,0,2
0:52.178,18784,t,0,0,0
0:52.286,18823,),0,0,2
0:52.422,18872,(,0,0,0
0:52.475,18891,p,0,0,0
0:52.514,18905,),0,0,0
0:52.583,18930,(,0,0,1
0:52.625,18945,N,0,0,0
0:52.681,18965,),0,0,1
0:52.822,19016,(,0,0,2
0:52.903,19045,t,0,0,0
0:53.006,19082,),0,0,2
0:53.158,19137,(,0,0,0
0:53.211,19156,p,0,0,0
0:53.253,19171,),0,0,0
0:53.294,19186,(,0,0,1
0:53.364,19211,N,0,0,0
0:53.433,19236,),0,0,1
0:53.567,19284,(,0,0,2
0:53.644,19312,t,0,0,0
0:53.733,19344,),0,0,2
0:53.906,19406,(,0,0,0
0:53.958,19425,p,0,0,0
0:54.000,19440,),0,0,0
0:54.075,19467,(,0,0,1
0:54.117,19482,N,0,0,0
0:54.186,19507,),0,0,1
0:54.317,19554,(,0,0,2
0:54.392,19581,t,0,0,0
0:54.500,19620,),0,0,2
0:54.636,19669,(,0,0,0
0:54.692,19689,p,0,0,0
0:54.733,19704,),0,0,0
0:54.806,19730,(,0,0,1
0:54.847,19745,N,0,0,0
0:54.919,19771,),0,0,1
0:55.050,19818,(,0,0,2
0:55.133,19848,t,0,0,0
0:55.222,19880,),0,0,2
0:55.369,19933,(,0,0,0
0:55.419,19951,p,0,0,0
0:55.461,19966,),0,0,0
0:55.500,19980,(,0,0,1
0:55.575,20007,N,0,0,0
0:55.631,20027,),0,0,1
0:55.769,20077,(,0,0,2
0:55.847,20105,t,0,0,0
0:55.944,20140,),0,0,2
0:56.089,20192,(,0,0,0
0:56.136,20209,p,0,0,0
0:56.178,20224,),0,0,0
0:56.239,20246,(,0,0,1
0:56.278,20260,N,0,0,0
0:56.333,20280,),0,0,1
0:56.467,20328,(,0,0,2
0:56.542,20355,t,0,0,0
0:56.619,20383,),0,0,2
0:56.786,20443,(,0,0,0
0:56.833,20460,p,0,0,0
0:56.872,20474,),0,0,0
0:56.939,20498,(,0,0,1
0:56.981,20513,N,0,0,0
0:57.033,20532,),0,0,1
0:57.164,20579,(,0,0,2
0:57.239,20606,t,0,0,0
0:57.325,20637,),0,0,2
0:57.483,20694,(,0,0,0
0:57.525,20709,p,0,0,0
0:57.569,20725,),0,0,0
0:57.603,20737,(,0,0,1
0:57.675,20763,N,0,0,0
0:57.722,20780,),0,0,1
0:57.872,20834,(,0,0,2
0:57.950,20862,t,0,0,0
0:58.003,20881,),0,0,2
0:58.211,20956,(,0,0,0
0:58.258,20973,p,0,0,0
0:58.300,20988,),0,0,0
0:58.369,21013,(,0,0,1
0:58.414,21029,N,0,0,0
0:58.472,21050,),0,0,1
0:58.586,21091,t,0,0,2
0:58.703,21133,),0,0,2
0:58.825,21177,(,0,0,1
0:58.892,21201,N,0,0,0
0:58.931,21215,),0,0,1
0:59.119,21283,(,0,0,2
0:59.256,21332,t,0,0,0
0:59.286,21343,),0,0,2
0:59.731,21503,(,0,0,0
0:59.775,21519,p,0,0,0
0:59.844,21544,),0,0,0
0:59.886,21559,(,0,0,1
0:59.931,21575,N,0,0,0
1:00.003,21601,),0,0,1
1:00.125,21645,(,0,0,2
1:00.217,21678,t,0,0,0
1:00.306,21710,),0,0,2
1:00.447,21761,(,0,0,0
1:00.500,21780,p,0,0,0
1:00.542,21795,),0,0,0
1:00.603,21817,(,0,0,1
1:00.656,21836,N,0,0,0
1:00.783,21882,),0,0,1
1:00.858,21909,(,0,0,2
1:00.936,21937,t,0,0,0
1:00.978,21952,),0,0,2
1:01.186,22027,(,0,0,0
1:01.233,22044,p,0,0,0
1:01.275,22059,),0,0,0
1:01.342,22083,(,0,0,1
1:01.386,22099,N,0,0,0
1:01.467,22128,),0,0,1
1:01.586,22171,(,0,0,2
1:01.661,22198,t,0,0,0
1:01.714,22217,),0,0,2
1:01.906,22286,(,0,0,0
1:01.939,22298,p,0,0,0
1:01.975,22311,),0,0,0
1:01.992,22317,(,0,0,1
1:02.083,22350,N,0,0,0
1:02.164,22379,),0,0,1
1:02.250,22410,(,0,0,2
1:02.353,22447,t,0,0,0
1:02.453,22483,),0,0,2
1:02.592,22533,(,0,0,0
1:02.639,22550,p,0,0,0
1:02.678,22564,),0,0,0
1:02.717,22578,(,0,0,1
1:02.783,22602,N,0,0,0
1:02.889,22640,),0,0,1
1:02.986,22675,(,0,0,2
1:03.047,22697,t,0,0,0
1:03.083,22710,),0,0,2
1:03.289,22784,(,0,0,0
1:03.342,22803,p,0,0,0
1:03.381,22817,),0,0,0
1:03.453,22843,(,0,0,1
1:03.494,22858,N,0,0,0
1:03.611,22900,),0,0,1
1:03.694,22930,(,0,0,2
1:03.767,22956,t,0,0,0
1:03.867,22992,),0,0,2
1:04.019,23047,(,0,0,0
1:04.053,23059,p,0,0,0
1:04.089,23072,),0,0,0
1:04.158,23097,(,0,0,1
1:04.203,23113,N,0,0,0
1:04.311,23152,),0,0,1
1:04.403,23185,(,0,0,2
1:04.486,23215,t,0,0,0
1:04.564,23243,),0,0,2
1:04.731,23303,(,0,0,0
1:04.778,23320,p,0,0,0
1:04.819,23335,),0,0,0
1:04.883,23358,(,0,0,1
1:04.928,23374,N,0,0,0
1:04.992,23397,),0,0,1
1:05.125,23445,(,0,0,2
1:05.214,23477,t,0,0,0
1:05.308,23511,),0,0,2
1:05.461,23566,(,0,0,0
1:05.508,23583,p,0,0,0
1:05.550,23598,),0,0,0
1:05.597,23615,(,0,0,1
1:05.667,23640,N,0,0,0
1:05.764,23675,),0,0,1
1:05.883,23718,(,0,0,2
1:05.961,23746,t,0,0,0
1:06.083,23790,),0,0,2
1:06.217,23838,(,0,0,0
1:06.272,23858,p,0,0,0
1:06.314,23873,),0,0,0
1:06.358,23889,(,0,0,1
1:06.431,23915,N,0,0,0
1:06.528,23950,),0,0,1
1:06.639,23990,(,0,0,2
1:06.714,24017,t,0,0,0
1:06.836,24061,),0,0,2
1:06.958,24105,(,0,0,0
1:07.011,24124,p,0,0,0
1:07.053,24139,),0,0,0
1:07.119,24163,(,0,0,1
1:07.164,24179,N,0,0,0
1:07.258,24213,),0,0,1
1:07.361,24250,(,0,0,2
1:07.436,24277,t,0,0,0
1:07.525,24309,),0,0,2
1:07.667,24360,(,0,0,0
1:07.714,24377,p,0,0,0
1:07.756,24392,),0,0,0
1:07.781,24401,(,0,0,1
1:07.856,24428,N,0,0,0
1:07.908,24447,),0,0,1
1:08.039,24494,(,0,0,2
1:08.114,24521,t,0,0,0
1:08.194,24550,),0,0,2
1:08.358,24609,(,0,0,0
1:08.397,24623,p,0,0,0
1:08.436,24637,),0,0,0
1:08.503,24661,(,0,0,1
1:08.542,24675,N,0,0,0
1:08.597,24695,),0,0,1
1:08.675,24723,t,0,0,2
1:08.806,24770,),0,0,2
1:08.933,24816,(,0,0,1
1:09.003,24841,N,0,0,0
1:09.039,24854,),0,0,1
1:09.122,24884,(,0,0,2
1:09.172,24902,t,0,0,4
1:09.294,24946,t,0,0,4
1:09.325,24957,),0,0,2
1:09.775,25119,(,0,0,0
1:09.819,25135,p,0,0,0
1:09.864,25151,),0,0,0
1:09.931,25175,(,0,0,1
1:09.972,25190,N,0,0,0
1:10.039,25214,),0,0,1
1:10.169,25261,(,0,0,2
1:10.267,25296,t,0,0,0
1:10.369,25333,),0,0,2
1:10.508,25383,(,0,0,0
1:10.564,25403,p,0,0,0
1:10.606,25418,),0,0,0
1:10.678,25444,(,0,0,1
1:10.725,25461,N,0,0,0
1:10.828,25498,),0,0,1
1:10.942,25539,(,0,0,2
1:11.022,25568,t,0,0,0
1:11.106,25598,),0,0,2
1:11.272,25658,(,0,0,0
1:11.319,25675,p,0,0,0
1:11.358,25689,),0,0,0
1:11.433,25716,(,0,0,1
1:11.475,25731,N,0,0,0
1:11.531,25751,),0,0,1
1:11.681,25805,(,0,0,2
1:11.761,25834,t,0,0,0
1:11.814,25853,),0,0,2
1:12.003,25921,(,0,0,0
1:12.061,25942,p,0,0,0
1:12.100,25956,),0,0,0
1:12.147,25973,(,0,0,1
1:12.211,25996,N,0,0,0
1:12.275,26019,),0,0,1
1:12.403,26065,(,0,0,2
1:12.481,26093,t,0,0,0
1:12.572,26126,),0,0,2
1:12.731,26183,(,0,0,0
1:12.775,26199,p,0,0,0
1:12.811,26212,),0,0,0
1:12.853,26227,(,0,0,1
1:12.922,26252,N,0,0,0
1:13.019,26287,),0,0,1
1:13.133,26328,(,0,0,2
1:13.206,26354,t,0,0,0
1:13.272,26378,),0,0,2
1:13.444,26440,(,0,0,0
1:13.500,26460,p,0,0,0
1:13.539,26474,),0,0,0
1:13.611,26500,(,0,0,1
1:13.653,26515,N,0,0,0
1:13.717,26538,),0,0,1
1:13.853,26587,(,0,0,2
1:13.933,26616,t,0,0,0
1:14.044,26656,),0,0,2
1:14.164,26699,(,0,0,0
1:14.217,26718,p,0,0,0
1:14.256,26732,),0,0,0
1:14.317,26754,(,0,0,1
1:14.361,26770,N,0,0,0
1:14.411,26788,),0,0,1
1:14.542,26835,(,0,0,2
1:14.619,26863,t,0,0,0
1:14.708,26895,),0,0,2
1:14.867,26952,(,0,0,0
1:14.908,26967,p,0,0,0
1:14.947,26981,),0,0,0
1:15.014,27005,(,0,0,1
1:15.053,27019,N,0,0,0
1:15.117,27042,),0,0,1
1:15.242,27087,(,0,0,2
1:15.314,27113,t,0,0,0
1:15.372,27134,),0,0,2
1:15.550,27198,(,0,0,0
1:15.600,27216,p,0,0,0
1:15.642,27231,),0,0,0
1:15.717,27258,(,0,0,1
1:15.753,27271,N,0,0,0
1:15.858,27309,),0,0,1
1:15.942,27339,(,0,0,2
1:16.028,27370,t,0,0,0
1:16.117,27402,),0,0,2
1:16.261,27454,(,0,0,0
1:16.311,27472,p,0,0,0
1:16.356,27488,),0,0,0
1:16.397,27503,(,0,0,1
1:16.467,27528,N,0,0,0
1:16.522,27548,),0,0,1
1:16.681,27605,(,0,0,2
1:16.758,27633,t,0,0,0
1:16.797,27647,),0,0,2
1:17.003,27721,(,0,0,0
1:17.050,27738,p,0,0,0
1:17.092,27753,),0,0,0
1:17.131,27767,(,0,0,1
1:17.203,27793,N,0,0,0
1:17.272,27818,),0,0,1
1:17.414,27869,(,0,0,2
1:17.497,27899,t,0,0,0
1:17.564,27923,),0,0,2
1:17.747,27989,(,0,0,0
1:17.803,28009,p,0,0,0
1:17.844,28024,),0,0,0
1:17.881,28037,(,0,0,1
1:17.956,28064,N,0,0,0
1:18.022,28088,),0,0,1
1:18.153,28135,(,0,0,2
1:18.244,28168,t,0,0,0
1:18.325,28197,),0,0,2
1:18.503,28261,(,0,0,0
1:18.550,28278,p,0,0,0
1:18.589,28292,),0,0,0
1:18.658,28317,(,0,0,1
1:18.703,28333,N,0,0,0
1:18.806,28370,),0,0,1
1:18.897,28403,(,0,0,2
1:18.975,28431,t,0,0,0
1:19.078,28468,),0,0,2
1:19.211,28516,(,0,0,0
1:19.258,28533,p,0,0,0
1:19.303,28549,),0,0,0
1:19.350,28566,(,0,0,1
1:19.411,28588,N,0,0,0
1:19.467,28608,),0,0,1
1:19.597,28655,(,0,0,2
1:19.681,28685,t,0,0,0
1:19.786,28723,),0,0,2
1:19.908,28767,(,0,0,0
1:19.947,28781,p,0,0,0
1:19.992,28797,),0,0,0
1:20.031,28811,(,0,0,1
1:20.094,28834,N,0,0,0
1:20.189,28868,),0,0,1
1:20.289,28904,(,0,0,2
1:20.361,28930,t,0,0,0
1:20.428,28954,),0,0,2
1:20.594,29014,(,0,0,0
1:20.644,29032,p,0,0,0
1:20.689,29048,),0,0,0
1:20.753,29071,(,0,0,1
1:20.800,29088,N,0,0,0
1:20.864,29111,),0,0,1
1:20.994,29158,(,0,0,2
1:21.072,29186,t,0,0,0
1:21.175,29223,),0,0,2
1:21.311,29272,(,0,0,0
1:21.369,29293,p,0,0,0
1:21.411,29308,),0,0,0
1:21.458,29325,(,0,0,1
1:21.519,29347,N,0,0,0
1:21.589,29372,),0,0,1
1:21.706,29414,(,0,0,2
1:21.792,29445,t,0,0,0
1:21.842,29463,),0,0,2
1:22.022,29528,(,0,0,0
1:22.075,29547,p,0,0,0
1:22.117,29562,),0,0,0
1:22.183,29586,(,0,0,1
1:22.231,29603,N,0,0,0
1:22.300,29628,),0,0,1
1:22.444,29680,(,0,0,2
1:22.517,29706,t,0,0,0
1:22.619,29743,),0,0,2
1:22.761,29794,(,0,0,0
1:22.814,29813,p,0,0,0
1:22.856,29828,),0,0,0
1:22.894,29842,(,0,0,1
1:22.967,29868,N,0,0,0
1:23.033,29892,),0,0,1
1:23.161,29938,(,0,0,2
1:23.256,29972,t,0,0,0
1:23.333,30000,),0,0,2
1:23.508,30063,(,0,0,0
1:23.556,30080,p,0,0,0
1:23.597,30095,),0,0,0
1:23.644,30112,(,0,0,1
1:23.708,30135,N,0,0,0
1:23.814,30173,),0,0,1
1:23.903,30205,(,0,0,2
1:23.992,30237,t,0,0,0
1:24.064,30263,),0,0,2
1:24.239,30326,(,0,0,0
1:24.292,30345,p,0,0,0
1:24.333,30360,),0,0,0
1:24.381,30377,(,0,0,1
1:24.444,30400,N,0,0,0
1:24.494,30418,),0,0,1
1:24.636,30469,(,0,0,2
1:24.714,30497,t,0,0,0
1:24.775,30519,),0,0,2
1:24.964,30587,(,0,0,0
1:25.011,30604,p,0,0,0
1:25.053,30619,),0,0,0
1:25.128,30646,(,0,0,1
1:25.167,30660,N,0,0,0
1:25.258,30693,),0,0,1
1:25.361,30730,(,0,0,2
1:25.442,30759,t,0,0,0
1:25.525,30789,),0,0,2
1:25.669,30841,(,0,0,0
1:25.722,30860,p,0,0,0
1:25.767,30876,),0,0,0
1:25.836,30901,(,0,0,1
1:25.875,30915,N,0,0,0
1:25.939,30938,),0,0,1
1:26.067,30984,(,0,0,2
1:26.158,31017,t,0,0,0
1:26.200,31032,),0,0,2
1:26.372,31094,(,0,0,0
1:26.408,31107,p,0,0,0
1:26.464,31127,),0,0,0
1:26.528,31150,(,0,0,1
1:26.567,31164,N,0,0,0
1:26.625,31185,),0,0,1
1:26.672,31202,(,0,0,2
1:26.722,31220,t,0,0,4
1:26.831,31259,t,0,0,4
1:26.917,31290,),0,0,2
1:27.072,31346,(,0,0,0
1:27.117,31362,p,0,0,0
1:27.156,31376,),0,0,0
1:27.189,31388,(,0,0,1
1:27.261,31414,N,0,0,0
1:27.317,31434,),0,0,1
1:27.453,31483,(,0,0,2
1:27.528,31510,t,0,0,0
1:27.600,31536,),0,0,2
1:27.758,31593,(,0,0,0
1:27.814,31613,p,0,0,0
1:27.856,31628,),0,0,0
1:27.917,31650,(,0,0,1
1:27.964,31667,N,0,0,0
1:28.031,31691,),0,0,1
1:28.164,31739,(,0,0,2
1:28.244,31768,t,0,0,0
1:28.331,31799,),0,0,2
1:28.492,31857,(,0,0,0
1:28.542,31875,p,0,0,0
1:28.586,31891,),0,0,0
1:28.658,31917,(,0,0,1
1:28.703,31933,N,0,0,0
1:28.772,31958,),0,0,1
1:28.917,32010,(,0,0,2
1:28.997,32039,t,0,0,0
1:29.106,32078,),0,0,2
1:29.253,32131,(,0,0,0
1:29.303,32149,p,0,0,0
1:29.347,32165,),0,0,0
1:29.386,32179,(,0,0,1
1:29.461,32206,N,0,0,0
1:29.517,32226,),0,0,1
1:29.656,32276,(,0,0,2
1:29.742,32307,t,0,0,0
1:29.831,32339,),0,0,2
1:29.997,32399,(,0,0,0
1:30.053,32419,p,0,0,0
1:30.094,32434,),0,0,0
1:30.142,32451,(,0,0,1
1:30.208,32475,N,0,0,0
1:30.275,32499,),0,0,1
1:30.403,32545,(,0,0,2
1:30.475,32571,t,0,0,0
1:30.544,32596,),0,0,2
1:30.722,32660,(,0,0,0
1:30.772,32678,p,0,0,0
1:30.814,32693,),0,0,0
1:30.883,32718,(,0,0,1
1:30.928,32734,N,0,0,0
1:30.981,32753,),0,0,1
1:31.119,32803,(,0,0,2
1:31.194,32830,t,0,0,0
1:31.272,32858,),0,0,2
1:31.417,32910,(,0,0,0
1:31.472,32930,p,0,0,0
1:31.517,32946,),0,0,0
1:31.553,32959,(,0,0,1
1:31.622,32984,N,0,0,0
1:31.686,33007,),0,0,1
1:31.811,33052,(,0,0,2
1:31.894,33082,t,0,0,0
1:31.953,33103,),0,0,2
1:32.117,33162,(,0,0,0
1:32.164,33179,p,0,0,0
1:32.206,33194,),0,0,0
1:32.272,33218,(,0,0,1
1:32.314,33233,N,0,0,0
1:32.367,33252,),0,0,1
1:32.503,33301,(,0,0,2
1:32.589,33332,t,0,0,0
1:32.686,33367,),0,0,2
1:32.836,33421,(,0,0,0
1:32.881,33437,p,0,0,0
1:32.919,33451,),0,0,0
1:32.983,33474,(,0,0,1
1:33.025,33489,N,0,0,0
1:33.075,33507,),0,0,1
1:33.211,33556,(,0,0,2
1:33.297,33587,t,0,0,0
1:33.375,33615,),0,0,2
1:33.547,33677,(,0,0,0
1:33.594,33694,p,0,0,0
1:33.636,33709,),0,0,0
1:33.703,33733,(,0,0,1
1:33.742,33747,N,0,0,0
1:33.797,33767,),0,0,1
1:33.939,33818,(,0,0,2
1:34.014,33845,t,0,0,0
1:34.086,33871,),0,0,2
1:34.261,33934,(,0,0,0
1:34.314,33953,p,0,0,0
1:34.356,33968,),0,0,0
1:34.392,33981,(,0,0,1
1:34.469,34009,N,0,0,0
1:34.536,34033,),0,0,1
1:34.672,34082,(,0,0,2
1:34.756,34112,t,0,0,0
1:34.850,34146,),0,0,2
1:35.003,34201,(,0,0,0
1:35.050,34218,p,0,0,0
1:35.089,34232,),0,0,0
1:35.125,34245,(,0,0,1
1:35.203,34273,N,0,0,0
1:35.269,34297,),0,0,1
1:35.406,34346,(,0,0,2
1:35.486,34375,t,0,0,0
1:35.575,34407,),0,0,2
1:35.742,34467,(,0,0,0
1:35.789,34484,p,0,0,0
1:35.831,34499,),0,0,0
1:35.903,34525,(,0,0,1
1:35.947,34541,N,0,0,0
1:36.050,34578,),0,0,1
1:36.158,34617,(,0,0,2
1:36.239,34646,t,0,0,0
1:36.303,34669,),0,0,2
1:36.503,34741,(,0,0,0
1:36.556,34760,p,0,0,0
1:36.597,34775,),0,0,0
1:36.669,34801,(,0,0,1
1:36.714,34817,N,0,0,0
1:36.767,34836,),0,0,1
1:36.917,34890,(,0,0,2
1:36.992,34917,t,0,0,0
1:37.061,34942,),0,0,2
1:37.222,35000,(,0,0,0
1:37.275,35019,p,0,0,0
1:37.317,35034,),0,0,0
1:37.356,35048,(,0,0,1
1:37.431,35075,N,0,0,0
1:37.483,35094,),0,0,1
1:37.628,35146,(,0,0,2
1:37.703,35173,t,0,0,0
1:37.783,35202,),0,0,2
1:37.922,35252,(,0,0,0
1:37.969,35269,p,0,0,0
1:38.011,35284,),0,0,0
1:38.042,35295,(,0,0,1
1:38.111,35320,N,0,0,0
1:38.164,35339,),0,0,1
1:38.306,35390,(,0,0,2
1:38.381,35417,t,0,0,0
1:38.469,35449,),0,0,2
1:38.608,35499,(,0,0,0
1:38.658,35517,p,0,0,0
1:38.697,35531,),0,0,0
1:38.733,35544,(,0,0,1
1:38.806,35570,N,0,0,0
1:38.917,35610,),0,0,1
1:39.003,35641,(,0,0,2
1:39.075,35667,t,0,0,0
1:39.136,35689,),0,0,2
1:39.331,35759,(,0,0,0
1:39.381,35777,p,0,0,0
1:39.419,35791,),0,0,0
1:39.458,35805,(,0,0,1
1:39.525,35829,N,0,0,0
1:39.586,35851,),0,0,1
1:39.711,35896,(,0,0,2
1:39.794,35926,t,0,0,0
1:39.861,35950,),0,0,2
1:40.044,36016,(,0,0,0
1:40.100,36036,p,0,0,0
1:40.142,36051,),0,0,0
1:40.214,36077,(,0,0,1
1:40.256,36092,N,0,0,0
1:40.314,36113,),0,0,1
1:40.450,36162,(,0,0,2
1:40.536,36193,t,0,0,0
1:40.653,36235,),0,0,2
1:40.794,36286,(,0,0,0
1:40.856,36308,p,0,0,0
1:40.897,36323,),0,0,0
1:40.969,36349,(,0,0,1
1:41.011,36364,N,0,0,0
1:41.081,36389,),0,0,1
1:41.211,36436,(,0,0,2
1:41.297,36467,t,0,0,0
1:41.378,36496,),0,0,2
1:41.556,36560,(,0,0,0
1:41.603,36577,p,0,0,0
1:41.644,36592,),0,0,0
1:41.711,36616,(,0,0,1
1:41.753,36631,N,0,0,0
1:41.861,36670,),0,0,1
1:41.981,36713,(,0,0,0
1:42.042,36735,p,0,0,0
1:42.119,36763,),0,0,0
1:42.139,36770,(,0,0,1
1:42.200,36792,N,0,0,0
1:42.242,36807,),0,0,1
1:42.369,36853,t,0,0,2
1:42.489,36896,),0,0,2
1:43.006,37082,(,0,0,0
1:43.056,37100,p,0,0,0
1:43.094,37114,),0,0,0
1:43.150,37134,(,0,0,1
1:43.194,37150,N,0,0,0
1:43.250,37170,),0,0,1
1:43.383,37218,(,0,0,2
1:43.478,37252,t,0,0,0
1:43.583,37290,),0,0,2
1:43.728,37342,(,0,0,0
1:43.772,37358,p,0,0,0
1:43.814,37373,),0,0,0
1:43.858,37389,(,0,0,1
1:43.922,37412,N,0,0,0
1:44.025,37449,),0,0,1
1:44.122,37484,(,0,0,2
1:44.203,37513,t,0,0,0
1:44.253,37531,),0,0,2
1:44.436,37597,(,0,0,0
1:44.481,37613,p,0,0,0
1:44.519,37627,),0,0,0
1:44.556,37640,(,0,0,1
1:44.622,37664,N,0,0,0
1:44.678,37684,),0,0,1
1:44.819,37735,(,0,0,2
1:44.897,37763,t,0,0,0
1:44.975,37791,),0,0,2
1:45.119,37843,(,0,0,0
1:45.172,37862,p,0,0,0
1:45.211,37876,),0,0,0
1:45.275,37899,(,0,0,1
1:45.314,37913,N,0,0,0
1:45.367,37932,),0,0,1
1:45.506,37982,(,0,0,2
1:45.578,38008,t,0,0,0
1:45.675,38043,),0,0,2
1:45.825,38097,(,0,0,0
1:45.864,38111,p,0,0,0
1:45.903,38125,),0,0,0
1:45.972,38150,(,0,0,1
1:46.011,38164,N,0,0,0
1:46.067,38184,),0,0,1
1:46.208,38235,(,0,0,2
1:46.289,38264,t,0,0,0
1:46.378,38296,),0,0,2
1:46.531,38351,(,0,0,0
1:46.589,38372,p,0,0,0
1:46.631,38387,),0,0,0
1:46.672,38402,(,0,0,1
1:46.744,38428,N,0,0,0
1:46.814,38453,),0,0,1
1:46.950,38502,(,0,0,2
1:47.031,38531,t,0,0,0
1:47.103,38557,),0,0,2
1:47.264,38615,(,0,0,0
1:47.317,38634,p,0,0,0
1:47.361,38650,),0,0,0
1:47.433,38676,(,0,0,1
1:47.472,38690,N,0,0,0
1:47.542,38715,),0,0,1
1:47.683,38766,(,0,0,2
1:47.769,38797,t,0,0,0
1:47.842,38823,),0,0,2
1:48.008,38883,(,0,0,0
1:48.061,38902,p,0,0,0
1:48.106,38918,),0,0,0
1:48.172,38942,(,0,0,1
1:48.217,38958,N,0,0,0
1:48.275,38979,),0,0,1
1:48.417,39030,(,0,0,2
1:48.511,39064,t,0,0,0
1:48.561,39082,),0,0,2
1:48.758,39153,(,0,0,0
1:48.808,39171,p,0,0,0
1:48.850,39186,),0,0,0
1:48.886,39199,(,0,0,1
1:48.956,39224,N,0,0,0
1:49.022,39248,),0,0,1
1:49.139,39290,(,0,0,2
1:49.233,39324,t,0,0,0
1:49.297,39347,),0,0,2
1:49.458,39405,(,0,0,0
1:49.508,39423,p,0,0,0
1:49.553,39439,),0,0,0
1:49.617,39462,(,0,0,1
1:49.656,39476,N,0,0,0
1:49.719,39499,),0,0,1
1:49.844,39544,(,0,0,2
1:49.914,39569,t,0,0,0
1:50.006,39602,),0,0,2
1:50.156,39656,(,0,0,0
1:50.192,39669,p,0,0,0
1:50.231,39683,),0,0,0
1:50.272,39698,(,0,0,1
1:50.331,39719,N,0,0,0
1:50.383,39738,),0,0,1
1:50.492,39777,(,0,0,2
1:50.594,39814,t,0,0,0
1:50.656,39836,),0,0,2
1:50.839,39902,(,0,0,0
1:50.889,39920,p,0,0,0
1:50.931,39935,),0,0,0
1:50.994,39958,(,0,0,1
1:51.039,39974,N,0,0,0
1:51.106,39998,),0,0,1
1:51.233,40044,(,0,0,2
1:51.314,40073,t,0,0,0
1:51.422,40112,),0,0,2
1:51.558,40161,(,0,0,0
1:51.603,40177,p,0,0,0
1:51.644,40192,),0,0,0
1:51.708,40215,(,0,0,1
1:51.750,40230,N,0,0,0
1:51.803,40249,),0,0,1
1:51.944,40300,(,0,0,2
1:52.019,40327,t,0,0,0
1:52.108,40359,),0,0,2
1:52.264,40415,(,0,0,0
1:52.314,40433,p,0,0,0
1:52.350,40446,),0,0,0
1:52.397,40463,(,0,0,1
1:52.464,40487,N,0,0,0
1:52.531,40511,),0,0,1
1:52.672,40562,(,0,0,2
1:52.747,40589,t,0,0,0
1:52.869,40633,),0,0,2
1:52.969,40669,(,0,0,0
1:53.022,40688,p,0,0,0
1:53.064,40703,),0,0,0
1:53.136,40729,(,0,0,1
1:53.178,40744,N,0,0,0
1:53.236,40765,),0,0,1
1:53.389,40820,(,0,0,2
1:53.472,40850,t,0,0,0
1:53.533,40872,),0,0,2
1:53.703,40933,(,0,0,0
1:53.761,40954,p,0,0,0
1:53.803,40969,),0,0,0
1:53.867,40992,(,0,0,1
1:53.911,41008,N,0,0,0
1:53.964,41027,),0,0,1
1:54.125,41085,(,0,0,2
1:54.203,41113,t,0,0,0
1:54.297,41147,),0,0,2
1:54.453,41203,(,0,0,0
1:54.500,41220,p,0,0,0
1:54.539,41234,),0,0,0
1:54.567,41244,(,0,0,1
1:54.639,41270,N,0,0,0
1:54.692,41289,),0,0,1
1:54.869,41353,(,0,0,2
1:54.983,41394,t,0,0,0
1:55.064,41423,),0,0,2
1:55.150,41454,(,0,0,0
1:55.197,41471,p,0,0,0
1:55.242,41487,),0,0,0
1:55.292,41505,(,0,0,1
1:55.350,41526,N,0,0,0
1:55.411,41548,),0,0,1
1:55.533,41592,(,0,0,2
1:55.622,41624,t,0,0,0
1:55.672,41642,),0,0,2
1:55.858,41709,(,0,0,0
1:55.908,41727,p,0,0,0
1:55.947,41741,),0,0,0
1:56.017,41766,(,0,0,1
1:56.056,41780,N,0,0,0
1:56.122,41804,),0,0,1
1:56.253,41851,(,0,0,2
1:56.331,41879,t,0,0,0
1:56.469,41929,),0,0,2
1:56.542,41955,(,0,0,0
1:56.597,41975,p,0,0,0
1:56.636,41989,),0,0,0
1:56.672,42002,(,0,0,1
1:56.736,42025,N,0,0,0
1:56.792,42045,),0,0,1
1:56.933,42096,(,0,0,2
1:57.014,42125,t,0,0,0
1:57.089,42152,),0,0,2
1:57.233,42204,(,0,0,0
1:57.286,42223,p,0,0,0
1:57.325,42237,),0,0,0
1:57.358,42249,(,0,0,1
1:57.422,42272,N,0,0,0
1:57.475,42291,),0,0,1
1:57.625,42345,(,0,0,2
1:57.689,42368,t,0,0,0
1:57.747,42389,),0,0,2
1:57.922,42452,(,0,0,0
1:57.964,42467,p,0,0,0
1:58.006,42482,),0,0,0
1:58.078,42508,(,0,0,1
1:58.117,42522,N,0,0,0
1:58.186,42547,),0,0,1
1:58.311,42592,(,0,0,2
1:58.397,42623,t,0,0,0
1:58.481,42653,),0,0,2
1:58.656,42716,(,0,0,0
1:58.708,42735,p,0,0,0
1:58.750,42750,),0,0,0
1:58.792,42765,(,0,0,1
1:58.864,42791,N,0,0,0
1:58.936,42817,),0,0,1
1:59.083,42870,(,0,0,2
1:59.161,42898,t,0,0,0
1:59.236,42925,),0,0,2
1:59.397,42983,(,0,0,0
1:59.450,43002,p,0,0,0
1:59.492,43017,),0,0,0
1:59.536,43033,(,0,0,1
1:59.603,43057,N,0,0,0
1:59.708,43095,),0,0,1
1:59.803,43129,(,0,0,2
1:59.886,43159,t,0,0,0
1:59.953,43183,),0,0,2
2:00.133,43248,(,0,0,0
2:00.186,43267,p,0,0,0
2:00.231,43283,),0,0,0
2:00.292,43305,(,0,0,1
2:00.336,43321,N,0,0,0
2:00.386,43339,),0,0,1
2:00.525,43389,(,0,0,2
2:00.606,43418,t,0,0,0
2:00.694,43450,),0,0,2
2:00.825,43497,(,0,0,0
2:00.886,43519,p,0,0,0
2:00.928,43534,),0,0,0
2:00.961,43546,(,0,0,1
2:01.033,43572,N,0,0,0
2:01.089,43592,),0,0,1
2:01.222,43640,(,0,0,2
2:01.297,43667,t,0,0,0
2:01.372,43694,),0,0,2
2:01.525,43749,(,0,0,0
2:01.572,43766,p,0,0,0
2:01.611,43780,),0,0,0
2:01.678,43804,(,0,0,1
2:01.717,43818,N,0,0,0
2:01.783,43842,),0,0,1
2:01.908,43887,(,0,0,2
2:01.983,43914,t,0,0,0
2:02.050,43938,),0,0,2
2:02.194,43990,(,0,0,0
2:02.250,44010,p,0,0,0
2:02.289,44024,),0,0,0
2:02.347,44045,(,0,0,1
2:02.389,44060,N,0,0,0
2:02.442,44079,),0,0,1
2:02.586,44131,(,0,0,2
2:02.664,44159,t,0,0,0
2:02.742,44187,),0,0,2
2:02.900,44244,(,0,0,0
2:02.947,44261,p,0,0,0
2:02.986,44275,),0,0,0
2:03.022,44288,(,0,0,1
2:03.086,44311,N,0,0,0
2:03.153,44335,),0,0,1
2:03.292,44385,(,0,0,2
2:03.364,44411,t,0,0,0
2:03.450,44442,),0,0,2
2:03.592,44493,(,0,0,0
2:03.650,44514,p,0,0,0
2:03.689,44528,),0,0,0
2:03.753,44551,(,0,0,1
2:03.794,44566,N,0,0,0
2:03.847,44585,),0,0,1
2:03.981,44633,(,0,0,2
2:04.061,44662,t,0,0,0
2:04.169,44701,),0,0,2
2:04.286,44743,(,0,0,0
2:04.336,44761,p,0,0,0
2:04.375,44775,),0,0,0
2:04.419,44791,(,0,0,1
2:04.483,44814,N,0,0,0
2:04.553,44839,),0,0,1
2:04.689,44888,(,0,0,2
2:04.769,44917,t,0,0,0
2:04.878,44956,),0,0,2
2:05.014,45005,(,0,0,0
2:05.056,45020,p,0,0,0
2:05.100,45036,),0,0,0
2:05.161,45058,(,0,0,1
2:05.206,45074,N,0,0,0
2:05.261,45094,),0,0,1
2:05.411,45148,(,0,0,2
2:05.486,45175,t,0,0,0
2:05.594,45214,),0,0,2
2:05.731,45263,(,0,0,0
2:05.786,45283,p,0,0,0
2:05.828,45298,),0,0,0
2:05.894,45322,(,0,0,1
2:05.939,45338,N,0,0,0
2:06.006,45362,),0,0,1
2:06.150,45414,(,0,0,2
2:06.228,45442,t,0,0,0
2:06.356,45488,),0,0,2
2:06.472,45530,(,0,0,0
2:06.531,45551,p,0,0,0
2:06.575,45567,),0,0,0
2:06.642,45591,(,0,0,1
2:06.686,45607,N,0,0,0
2:06.756,45632,),0,0,1
2:06.906,45686,(,0,0,0
2:06.964,45707,p,0,0,0
2:07.031,45731,),0,0,0
2:07.056,45740,(,0,0,1
2:07.117,45762,N,0,0,0
2:07.153,45775,),0,0,1
2:07.281,45821,t,0,0,2
2:07.400,45864,),0,0,2
2:07.881,46037,(,0,0,0
2:07.928,46054,p,0,0,0
2:07.967,46068,),0,0,0
2:07.989,46076,(,0,0,1
2:08.058,46101,N,0,0,0
2:08.111,46120,),0,0,1
2:08.242,46167,(,0,0,2
2:08.328,46198,t,0,0,0
2:08.444,46240,),0,0,2
2:08.556,46280,(,0,0,0
2:08.600,46296,p,0,0,0
2:08.639,46310,),0,0,0
2:08.697,46331,(,0,0,1
2:08.736,46345,N,0,0,0
2:08.789,46364,),0,0,1
2:08.925,46413,(,0,0,2
2:09.000,46440,t,0,0,0
2:09.097,46475,),0,0,2
2:09.219,46519,(,0,0,0
2:09.278,46540,p,0,0,0
2:09.317,46554,),0,0,0
2:09.350,46566,(,0,0,1
2:09.425,46593,N,0,0,0
2:09.489,46616,),0,0,1
2:09.611,46660,(,0,0,2
2:09.683,46686,t,0,0,0
2:09.747,46709,),0,0,2
2:09.908,46767,(,0,0,0
2:09.964,46787,p,0,0,0
2:10.006,46802,),0,0,0
2:10.044,46816,(,0,0,1
2:10.119,46843,N,0,0,0
2:10.189,46868,),0,0,1
2:10.328,46918,(,0,0,2
2:10.406,46946,t,0,0,0
2:10.497,46979,),0,0,2
2:10.647,47033,(,0,0,0
2:10.694,47050,p,0,0,0
2:10.736,47065,),0,0,0
2:10.806,47090,(,0,0,1
2:10.847,47105,N,0,0,0
2:10.917,47130,),0,0,1
2:11.061,47182,(,0,0,2
2:11.136,47209,t,0,0,0
2:11.214,47237,),0,0,2
2:11.381,47297,(,0,0,0
2:11.436,47317,p,0,0,0
2:11.475,47331,),0,0,0
2:11.542,47355,(,0,0,1
2:11.583,47370,N,0,0,0
2:11.650,47394,),0,0,1
2:11.781,47441,(,0,0,2
2:11.864,47471,t,0,0,0
2:11.964,47507,),0,0,2
2:12.108,47559,(,0,0,0
2:12.161,47578,p,0,0,0
2:12.203,47593,),0,0,0
2:12.242,47607,(,0,0,1
2:12.317,47634,N,0,0,0
2:12.369,47653,),0,0,1
2:12.508,47703,(,0,0,2
2:12.583,47730,t,0,0,0
2:12.656,47756,),0,0,2
2:12.825,47817,(,0,0,0
2:12.872,47834,p,0,0,0
2:12.914,47849,),0,0,0
2:12.978,47872,(,0,0,1
2:13.019,47887,N,0,0,0
2:13.083,47910,),0,0,1
2:13.217,47958,(,0,0,2
2:13.292,47985,t,0,0,0
2:13.383,48018,),0,0,2
2:13.517,48066,(,0,0,0
2:13.572,48086,p,0,0,0
2:13.614,48101,),0,0,0
2:13.658,48117,(,0,0,1
2:13.719,48139,N,0,0,0
2:13.783,48162,),0,0,1
2:13.911,48208,(,0,0,2
2:13.989,48236,t,0,0,0
2:14.081,48269,),0,0,2
2:14.228,48322,(,0,0,0
2:14.281,48341,p,0,0,0
2:14.319,48355,),0,0,0
2:14.381,48377,(,0,0,1
2:14.422,48392,N,0,0,0
2:14.475,48411,),0,0,1
2:14.606,48458,(,0,0,2
2:14.681,48485,t,0,0,0
2:14.750,48510,),0,0,2
2:14.919,48571,(,0,0,0
2:14.967,48588,p,0,0,0
2:15.008,48603,),0,0,0
2:15.042,48615,(,0,0,1
2:15.114,48641,N,0,0,0
2:15.169,48661,),0,0,1
2:15.308,48711,(,0,0,2
2:15.378,48736,t,0,0,0
2:15.428,48754,),0,0,2
2:15.606,48818,(,0,0,0
2:15.650,48834,p,0,0,0
2:15.692,48849,),0,0,0
2:15.756,48872,(,0,0,1
2:15.797,48887,N,0,0,0
2:15.850,48906,),0,0,1
2:16.000,48960,(,0,0,2
2:16.072,48986,t,0,0,0
2:16.189,49028,),0,0,2
2:16.311,49072,(,0,0,0
2:16.356,49088,p,0,0,0
2:16.394,49102,),0,0,0
2:16.464,49127,(,0,0,1
2:16.508,49143,N,0,0,0
2:16.578,49168,),0,0,1
2:16.717,49218,(,0,0,2
2:16.800,49248,t,0,0,0
2:16.883,49278,),0,0,2
2:17.053,49339,(,0,0,0
2:17.100,49356,p,0,0,0
2:17.139,49370,),0,0,0
2:17.206,49394,(,0,0,1
2:17.247,49409,N,0,0,0
2:17.300,49428,),0,0,1
2:17.447,49481,(,0,0,2
2:17.533,49512,t,0,0,0
2:17.611,49540,),0,0,2
2:17.783,49602,(,0,0,0
2:17.836,49621,p,0,0,0
2:17.878,49636,),0,0,0
2:17.950,49662,(,0,0,1
2:17.992,49677,N,0,0,0
2:18.047,49697,),0,0,1
2:18.186,49747,(,0,0,2
2:18.275,49779,t,0,0,0
2:18.339,49802,),0,0,2
2:18.514,49865,(,0,0,0
2:18.564,49883,p,0,0,0
2:18.611,49900,),0,0,0
2:18.653,49915,(,0,0,1
2:18.725,49941,N,0,0,0
2:18.794,49966,),0,0,1
2:18.925,50013,(,0,0,2
2:19.006,50042,t,0,0,0
2:19.044,50056,),0,0,2
2:19.236,50125,(,0,0,0
2:19.286,50143,p,0,0,0
2:19.328,50158,),0,0,0
2:19.394,50182,(,0,0,1
2:19.436,50197,N,0,0,0
2:19.536,50233,),0,0,1
2:19.628,50266,(,0,0,2
2:19.703,50293,t,0,0,0
2:19.772,50318,),0,0,2
2:19.944,50380,(,0,0,0
2:19.989,50396,p,0,0,0
2:20.028,50410,),0,0,0
2:20.089,50432,(,0,0,1
2:20.131,50447,N,0,0,0
2:20.183,50466,),0,0,1
2:20.317,50514,(,0,0,2
2:20.386,50539,t,0,0,0
2:20.464,50567,),0,0,2
2:20.606,50618,(,0,0,0
2:20.658,50637,p,0,0,0
2:20.700,50652,),0,0,0
2:20.736,50665,(,0,0,1
2:20.806,50690,N,0,0,0
2:20.858,50709,),0,0,1
2:20.989,50756,(,0,0,2
2:21.072,50786,t,0,0,0
2:21.169,50821,),0,0,2
2:21.319,50875,(,0,0,0
2:21.367,50892,p,0,0,0
2:21.408,50907,),0,0,0
2:21.478,50932,(,0,0,1
2:21.522,50948,N,0,0,0
2:21.578,50968,),0,0,1
2:21.725,51021,(,0,0,2
2:21.803,51049,t,0,0,0
2:21.864,51071,),0,0,2
2:22.036,51133,(,0,0,0
2:22.089,51152,p,0,0,0
2:22.128,51166,),0,0,0
2:22.167,51180,(,0,0,1
2:22.239,51206,N,0,0,0
2:22.306,51230,),0,0,1
2:22.439,51278,(,0,0,2
2:22.519,51307,t,0,0,0
2:22.608,51339,),0,0,2
2:22.772,51398,(,0,0,0
2:22.825,51417,p,0,0,0
2:22.864,51431,),0,0,0
2:22.933,51456,(,0,0,1
2:22.975,51471,N,0,0,0
2:23.039,51494,),0,0,1
2:23.167,51540,(,0,0,2
2:23.242,51567,t,0,0,0
2:23.317,51594,),0,0,2
2:23.506,51662,(,0,0,0
2:23.556,51680,p,0,0,0
2:23.597,51695,),0,0,0
2:23.633,51708,(,0,0,1
2:23.706,51734,N,0,0,0
2:23.775,51759,),0,0,1
2:23.911,51808,(,0,0,2
2:23.983,51834,t,0,0,0
2:24.069,51865,),0,0,2
2:24.231,51923,(,0,0,0
2:24.289,51944,p,0,0,0
2:24.331,51959,),0,0,0
2:24.403,51985,(,0,0,1
2:24.444,52000,N,0,0,0
2:24.511,52024,),0,0,1
2:24.642,52071,(,0,0,2
2:24.717,52098,t,0,0,0
2:24.803,52129,),0,0,2
2:24.956,52184,(,0,0,0
2:25.006,52202,p,0,0,0
2:25.047,52217,),0,0,0
2:25.083,52230,(,0,0,1
2:25.153,52255,N,0,0,0
2:25.222,52280,),0,0,1
2:25.353,52327,(,0,0,2
2:25.431,52355,t,0,0,0
2:25.494,52378,),0,0,2
2:25.669,52441,(,0,0,0
2:25.719,52459,p,0,0,0
2:25.758,52473,),0,0,0
2:25.794,52486,(,0,0,1
2:25.864,52511,N,0,0,0
2:25.931,52535,),0,0,1
2:26.064,52583,(,0,0,2
2:26.139,52610,t,0,0,0
2:26.236,52645,),0,0,2
2:26.386,52699,(,0,0,0
2:26.436,52717,p,0,0,0
2:26.475,52731,),0,0,0
2:26.536,52753,(,0,0,1
2:26.578,52768,N,0,0,0
2:26.642,52791,),0,0,1
2:26.758,52833,(,0,0,2
2:26.839,52862,t,0,0,0
2:26.925,52893,),0,0,2
2:27.081,52949,(,0,0,0
2:27.128,52966,p,0,0,0
2:27.169,52981,),0,0,0
2:27.208,52995,(,0,0,1
2:27.275,53019,N,0,0,0
2:27.328,53038,),0,0,1
2:27.464,53087,(,0,0,2
2:27.542,53115,t,0,0,0
2:27.625,53145,),0,0,2
2:27.775,53199,(,0,0,0
2:27.825,53217,p,0,0,0
2:27.867,53232,),0,0,0
2:27.928,53254,(,0,0,1
2:27.972,53270,N,0,0,0
2:28.028,53290,),0,0,1
2:28.175,53343,(,0,0,2
2:28.253,53371,t,0,0,0
2:28.367,53412,),0,0,2
2:28.503,53461,(,0,0,0
2:28.556,53480,p,0,0,0
2:28.597,53495,),0,0,0
2:28.636,53509,(,0,0,1
2:28.711,53536,N,0,0,0
2:28.781,53561,),0,0,1
2:28.922,53612,(,0,0,2
2:29.008,53643,t,0,0,0
2:29.103,53677,),0,0,2
2:29.269,53737,(,0,0,0
2:29.325,53757,p,0,0,0
2:29.367,53772,),0,0,0
2:29.411,53788,(,0,0,1
2:29.481,53813,N,0,0,0
2:29.547,53837,),0,0,1
2:29.675,53883,(,0,0,2
2:29.756,53912,t,0,0,0
2:29.836,53941,),0,0,2
2:30.017,54006,(,0,0,0
2:30.061,54022,p,0,0,0
2:30.103,54037,),0,0,0
2:30.172,54062,(,0,0,1
2:30.214,54077,N,0,0,0
2:30.278,54100,),0,0,1
2:30.417,54150,(,0,0,2
2:30.489,54176,t,0,0,0
2:30.561,54202,),0,0,2
2:30.725,54261,(,0,0,0
2:30.772,54278,p,0,0,0
2:30.814,54293,),0,0,0
2:30.878,54316,(,0,0,1
2:30.919,54331,N,0,0,0
2:30.986,54355,),0,0,1
2:31.117,54402,(,0,0,2
2:31.197,54431,t,0,0,0
2:31.272,54458,),0,0,2
2:31.433,54516,(,0,0,0
2:31.483,54534,p,0,0,0
2:31.522,54548,),0,0,0
2:31.589,54572,(,0,0,1
2:31.628,54586,N,0,0,0
2:31.694,54610,),0,0,1
2:31.822,54656,(,0,0,2
2:31.900,54684,t,0,0,0
2:31.983,54714,),0,0,2
2:32.136,54769,(,0,0,0
2:32.183,54786,p,0,0,0
2:32.222,54800,),0,0,0
2:32.281,54821,(,0,0,1
2:32.322,54836,N,0,0,0
2:32.375,54855,),0,0,1
2:32.506,54902,(,0,0,2
2:32.583,54930,t,0,0,0
2:32.681,54965,),0,0,2
2:32.833,55020,(,0,0,0
2:32.878,55036,p,0,0,0
2:32.919,55051,),0,0,0
2:32.953,55063,(,0,0,1
2:33.025,55089,N,0,0,0
2:33.078,55108,),0,0,1
2:33.217,55158,(,0,0,2
2:33.292,55185,t,0,0,0
2:33.394,55222,),0,0,2
2:33.542,55275,(,0,0,0
2:33.592,55293,p,0,0,0
2:33.633,55308,),0,0,0
2:33.669,55321,(,0,0,1
2:33.742,55347,N,0,0,0
2:33.797,55367,),0,0,1
2:33.944,55420,(,0,0,2
2:34.019,55447,t,0,0,0
2:34.103,55477,),0,0,2
2:34.253,55531,(,0,0,0
2:34.308,55551,p,0,0,0
2:34.350,55566,),0,0,0
2:34.417,55590,(,0,0,1
2:34.461,55606,N,0,0,0
2:34.531,55631,),0,0,1
2:34.667,55680,(,0,0,2
2:34.744,55708,t,0,0,0
2:34.858,55749,),0,0,2
2:34.994,55798,(,0,0,0
2:35.047,55817,p,0,0,0
2:35.089,55832,),0,0,0
2:35.156,55856,(,0,0,1
2:35.197,55871,N,0,0,0
2:35.267,55896,),0,0,1
2:35.392,55941,(,0,0,2
2:35.478,55972,t,0,0,0
2:35.583,56010,),0,0,2
2:35.731,56063,(,0,0,0
2:35.783,56082,p,0,0,0
2:35.825,56097,),0,0,0
2:35.897,56123,(,0,0,1
2:35.939,56138,N,0,0,0
2:35.994,56158,),0,0,1
2:36.136,56209,(,0,0,2
2:36.222,56240,t,0,0,0
2:36.278,56260,),0,0,2
2:36.486,56335,(,0,0,0
2:36.542,56355,p,0,0,0
2:36.583,56370,),0,0,0
2:36.633,56388,(,0,0,1
2:36.700,56412,N,0,0,0
2:36.753,56431,),0,0,1
2:36.894,56482,(,0,0,2
2:36.975,56511,t,0,0,0
2:37.067,56544,),0,0,2
2:37.206,56594,(,0,0,0
2:37.258,56613,p,0,0,0
2:37.300,56628,),0,0,0
2:37.364,56651,(,0,0,1
2:37.406,56666,N,0,0,0
2:37.472,56690,),0,0,1
2:37.603,56737,(,0,0,2
2:37.672,56762,t,0,0,0
2:37.778,56800,),0,0,2
2:37.917,56850,(,0,0,0
2:37.961,56866,p,0,0,0
2:38.006,56882,),0,0,0
2:38.036,56893,(,0,0,1
2:38.103,56917,N,0,0,0
2:38.153,56935,),0,0,1
2:38.278,56980,(,0,0,2
2:38.358,57009,t,0,0,0
2:38.414,57029,),0,0,2
2:38.594,57094,(,0,0,0
2:38.644,57112,p,0,0,0
2:38.686,57127,),0,0,0
2:38.747,57149,(,0,0,1
2:38.789,57164,N,0,0,0
2:38.842,57183,),0,0,1
2:38.983,57234,(,0,0,0
2:39.053,57259,p,0,0,0
2:39.117,57282,),0,0,0
2:39.136,57289,(,0,0,1
2:39.203,57313,N,0,0,0
2:39.242,57327,),0,0,1
2:39.414,57389,(,0,0,2
2:39.528,57430,t,0,0,0
2:39.681,57485,),0,0,2
2:39.997,57599,(,0,0,0
2:40.036,57613,p,0,0,0
2:40.078,57628,),0,0,0
2:40.103,57637,(,0,0,1
2:40.181,57665,N,0,0,0
2:40.244,57688,),0,0,1
2:40.392,57741,(,0,0,2
2:40.483,57774,t,0,0,0
2:40.586,57811,),0,0,2
2:40.728,57862,(,0,0,0
2:40.786,57883,p,0,0,0
2:40.828,57898,),0,0,0
2:40.900,57924,(,0,0,1
2:40.942,57939,N,0,0,0
2:41.011,57964,),0,0,1
2:41.158,58017,(,0,0,2
2:41.236,58045,t,0,0,0
2:41.322,58076,),0,0,2
2:41.486,58135,(,0,0,0
2:41.544,58156,p,0,0,0
2:41.583,58170,),0,0,0
2:41.650,58194,(,0,0,1
2:41.689,58208,N,0,0,0
2:41.742,58227,),0,0,1
2:41.889,58280,(,0,0,2
2:41.967,58308,t,0,0,0
2:42.047,58337,),0,0,2
2:42.214,58397,(,0,0,0
2:42.267,58416,p,0,0,0
2:42.311,58432,),0,0,0
2:42.344,58444,(,0,0,1
2:42.419,58471,N,0,0,0
2:42.489,58496,),0,0,1
2:42.619,58543,(,0,0,2
2:42.697,58571,t,0,0,0
2:42.794,58606,),0,0,2
2:42.933,58656,(,0,0,0
2:42.986,58675,p,0,0,0
2:43.025,58689,),0,0,0
2:43.094,58714,(,0,0,1
2:43.133,58728,N,0,0,0
2:43.189,58748,),0,0,1
2:43.328,58798,(,0,0,2
2:43.406,58826,t,0,0,0
2:43.503,58861,),0,0,2
2:43.647,58913,(,0,0,0
2:43.697,58931,p,0,0,0
2:43.736,58945,),0,0,0
2:43.803,58969,(,0,0,1
2:43.842,58983,N,0,0,0
2:43.908,59007,),0,0,1
2:44.036,59053,(,0,0,2
2:44.117,59082,t,0,0,0
2:44.211,59116,),0,0,2
2:44.364,59171,(,0,0,0
2:44.408,59187,p,0,0,0
2:44.447,59201,),0,0,0
2:44.511,59224,(,0,0,1
2:44.550,59238,N,0,0,0
2:44.603,59257,),0,0,1
2:44.739,59306,(,0,0,2
2:44.814,59333,t,0,0,0
2:44.914,59369,),0,0,2
2:45.058,59421,(,0,0,0
2:45.108,59439,p,0,0,0
2:45.150,59454,),0,0,0
2:45.214,59477,(,0,0,1
2:45.256,59492,N,0,0,0
2:45.308,59511,),0,0,1
2:45.450,59562,(,0,0,2
2:45.525,59589,t,0,0,0
2:45.619,59623,),0,0,2
2:45.753,59671,(,0,0,0
2:45.797,59687,p,0,0,0
2:45.836,59701,),0,0,0
2:45.906,59726,(,0,0,1
2:45.947,59741,N,0,0,0
2:46.011,59764,),0,0,1
2:46.144,59812,(,0,0,2
2:46.228,59842,t,0,0,0
2:46.331,59879,),0,0,2
2:46.464,59927,(,0,0,0
2:46.519,59947,p,0,0,0
2:46.561,59962,),0,0,0
2:46.592,59973,(,0,0,1
2:46.669,60001,N,0,0,0
2:46.742,60027,),0,0,1
2:46.869,60073,(,0,0,2
2:46.958,60105,t,0,0,0
2:47.072,60146,),0,0,2
2:47.206,60194,(,0,0,0
2:47.264,60215,p,0,0,0
2:47.306,60230,),0,0,0
2:47.369,60253,(,0,0,1
2:47.414,60269,N,0,0,0
2:47.478,60292,),0,0,1
2:47.617,60342,(,0,0,2
2:47.694,60370,t,0,0,0
2:47.775,60399,),0,0,2
2:47.958,60465,(,0,0,0
2:48.017,60486,p,0,0,0
2:48.056,60500,),0,0,0
2:48.097,60515,(,0,0,1
2:48.172,60542,N,0,0,0
2:48.228,60562,),0,0,1
2:48.375,60615,(,0,0,2
2:48.450,60642,t,0,0,0
2:48.525,60669,),0,0,2
2:48.703,60733,(,0,0,0
2:48.756,60752,p,0,0,0
2:48.797,60767,),0,0,0
2:48.864,60791,(,0,0,1
2:48.908,60807,N,0,0,0
2:48.978,60832,),0,0,1
2:49.100,60876,(,0,0,2
2:49.181,60905,t,0,0,0
2:49.275,60939,),0,0,2
2:49.417,60990,(,0,0,0
2:49.464,61007,p,0,0,0
2:49.506,61022,),0,0,0
2:49.572,61046,(,0,0,1
2:49.611,61060,N,0,0,0
2:49.681,61085,),0,0,1
2:49.806,61130,(,0,0,2
2:49.881,61157,t,0,0,0
2:49.956,61184,),0,0,2
2:50.119,61243,(,0,0,0
2:50.164,61259,p,0,0,0
2:50.203,61273,),0,0,0
2:50.264,61295,(,0,0,1
2:50.303,61309,N,0,0,0
2:50.356,61328,),0,0,1
2:50.489,61376,(,0,0,2
2:50.561,61402,t,0,0,0
2:50.625,61425,),0,0,2
2:50.806,61490,(,0,0,0
2:50.847,61505,p,0,0,0
2:50.886,61519,),0,0,0
2:50.931,61535,(,0,0,1
2:50.992,61557,N,0,0,0
2:51.044,61576,),0,0,1
2:51.186,61627,(,0,0,2
2:51.264,61655,t,0,0,0
2:51.353,61687,),0,0,2
2:51.503,61741,(,0,0,0
2:51.561,61762,p,0,0,0
2:51.603,61777,),0,0,0
2:51.639,61790,(,0,0,1
2:51.714,61817,N,0,0,0
2:51.783,61842,),0,0,1
2:51.911,61888,(,0,0,2
2:51.992,61917,t,0,0,0
2:52.078,61948,),0,0,2
2:52.236,62005,(,0,0,0
2:52.292,62025,p,0,0,0
2:52.331,62039,),0,0,0
2:52.400,62064,(,0,0,1
2:52.444,62080,N,0,0,0
2:52.511,62104,),0,0,1
2:52.647,62153,(,0,0,2
2:52.728,62182,t,0,0,0
2:52.833,62220,),0,0,2
2:52.981,62273,(,0,0,0
2:53.039,62294,p,0,0,0
2:53.078,62308,),0,0,0
2:53.144,62332,(,0,0,1
2:53.186,62347,N,0,0,0
2:53.253,62371,),0,0,1
2:53.375,62415,(,0,0,2
2:53.456,62444,t,0,0,0
2:53.536,62473,),0,0,2
2:53.725,62541,(,0,0,0
2:53.764,62555,p,0,0,0
2:53.803,62569,),0,0,0
2:53.867,62592,(,0,0,1
2:53.911,62608,N,0,0,0
2:53.978,62632,),0,0,1
2:54.108,62679,(,0,0,2
2:54.189,62708,t,0,0,0
2:54.242,62727,),0,0,2
2:54.436,62797,(,0,0,0
2:54.492,62817,p,0,0,0
2:54.536,62833,),0,0,0
2:54.608,62859,(,0,0,1
2:54.653,62875,N,0,0,0
2:54.714,62897,),0,0,1
2:54.844,62944,(,0,0,2
2:54.922,62972,t,0,0,0
2:54.992,62997,),0,0,2
2:55.153,63055,(,0,0,0
2:55.203,63073,p,0,0,0
2:55.247,63089,),0,0,0
2:55.314,63113,(,0,0,1
2:55.356,63128,N,0,0,0
2:55.478,63172,),0,0,1
2:55.539,63194,(,0,0,2
2:55.625,63225,t,0,0,0
2:55.667,63240,),0,0,2
2:55.861,63310,(,0,0,0
2:55.911,63328,p,0,0,0
2:55.950,63342,),0,0,0
2:56.017,63366,(,0,0,1
2:56.058,63381,N,0,0,0
2:56.122,63404,),0,0,1
2:56.250,63450,(,0,0,2
2:56.328,63478,t,0,0,0
2:56.408,63507,),0,0,2
2:56.575,63567,(,0,0,0
2:56.619,63583,p,0,0,0
2:56.658,63597,),0,0,0
2:56.722,63620,(,0,0,1
2:56.761,63634,N,0,0,0
2:56.811,63652,),0,0,1
2:56.942,63699,(,0,0,2
2:57.022,63728,t,0,0,0
2:57.067,63744,),0,0,2
2:57.272,63818,(,0,0,0
2:57.314,63833,p,0,0,0
2:57.353,63847,),0,0,0
2:57.419,63871,(,0,0,1
2:57.458,63885,N,0,0,0
2:57.508,63903,),0,0,1
2:57.589,63932,(,0,0,2
2:57.628,63946,t,0,0,4
2:57.728,63982,t,0,0,4
2:57.786,64003,),0,0,2
2:57.950,64062,(,0,0,0
2:58.000,64080,p,0,0,0
2:58.042,64095,),0,0,0
2:58.108,64119,(,0,0,1
2:58.147,64133,N,0,0,0
2:58.203,64153,),0,0,1
2:58.344,64204,(,0,0,2
2:58.428,64234,t,0,0,0
2:58.494,64258,),0,0,2
2:58.667,64320,(,0,0,0
2:58.725,64341,p,0,0,0
2:58.769,64357,),0,0,0
2:58.844,64384,(,0,0,1
2:58.883,64398,N,0,0,0
2:58.953,64423,),0,0,1
2:59.106,64478,(,0,0,2
2:59.181,64505,t,0,0,0
2:59.278,64540,),0,0,2
2:59.439,64598,(,0,0,0
2:59.492,64617,p,0,0,0
2:59.533,64632,),0,0,0
2:59.583,64650,(,0,0,1
2:59.647,64673,N,0,0,0
2:59.703,64693,),0,0,1
2:59.839,64742,(,0,0,2
2:59.925,64773,t,0,0,0
2:59.997,64799,),0,0,2
3:00.169,64861,(,0,0,0
3:00.225,64881,p,0,0,0
3:00.267,64896,),0,0,0
3:00.333,64920,(,0,0,1
3:00.375,64935,N,0,0,0
3:00.439,64958,),0,0,1
3:00.569,65005,(,0,0,2
3:00.656,65036,t,0,0,0
3:00.731,65063,),0,0,2
3:00.886,65119,(,0,0,0
3:00.931,65135,p,0,0,0
3:00.967,65148,),0,0,0
3:01.031,65171,(,0,0,1
3:01.072,65186,N,0,0,0
3:01.128,65206,),0,0,1
3:01.275,65259,(,0,0,2
3:01.350,65286,t,0,0,0
3:01.400,65304,),0,0,2
3:01.575,65367,(,0,0,0
3:01.622,65384,p,0,0,0
3:01.661,65398,),0,0,0
3:01.722,65420,(,0,0,1
3:01.767,65436,N,0,0,0
3:01.833,65460,),0,0,1
3:01.956,65504,(,0,0,2
3:02.033,65532,t,0,0,0
3:02.097,65555,),0,0,2
3:02.269,65617,(,0,0,0
3:02.319,65635,p,0,0,0
3:02.356,65648,),0,0,0
3:02.417,65670,(,0,0,1
3:02.456,65684,N,0,0,0
3:02.508,65703,),0,0,1
3:02.639,65750,(,0,0,2
3:02.717,65778,t,0,0,0
3:02.786,65803,),0,0,2
3:02.950,65862,(,0,0,0
3:03.000,65880,p,0,0,0
3:03.039,65894,),0,0,0
3:03.106,65918,(,0,0,1
3:03.144,65932,N,0,0,0
3:03.242,65967,),0,0,1
3:03.333,66000,(,0,0,2
3:03.414,66029,t,0,0,0
3:03.436,66037,),0,0,2
3:03.653,66115,(,0,0,0
3:03.703,66133,p,0,0,0
3:03.747,66149,),0,0,0
3:03.814,66173,(,0,0,1
3:03.856,66188,N,0,0,0
3:03.911,66208,),0,0,1
3:04.053,66259,(,0,0,2
3:04.144,66292,t,0,0,0
3:04.183,66306,),0,0,2
3:04.378,66376,(,0,0,0
3:04.417,66390,p,0,0,0
3:04.456,66404,),0,0,0
3:04.522,66428,(,0,0,1
3:04.564,66443,N,0,0,0
3:04.631,66467,),0,0,1
3:04.794,66526,(,0,0,2
3:04.861,66550,t,0,0,0
3:04.950,66582,),0,0,2
3:05.094,66634,(,0,0,0
3:05.144,66652,p,0,0,0
3:05.183,66666,),0,0,0
3:05.247,66689,(,0,0,1
3:05.289,66704,N,0,0,0
3:05.344,66724,),0,0,1
3:05.428,66754,(,0,0,2
3:05.456,66764,t,0,0,1
3:05.564,66803,),0,0,2
3:05.675,66843,(,0,0,1
3:05.739,66866,N,0,0,0
3:05.778,66880,),0,0,1
3:05.919,66931,t,0,0,2
3:06.025,66969,),0,0,2
3:06.539,67154,(,0,0,0
3:06.600,67176,p,0,0,0
3:06.642,67191,),0,0,0
3:06.667,67200,(,0,0,1
3:06.742,67227,N,0,0,0
3:06.817,67254,),0,0,1
3:06.944,67300,(,0,0,2
3:07.039,67334,t,0,0,0
3:07.108,67359,),0,0,2
3:07.278,67420,(,0,0,0
3:07.317,67434,p,0,0,0
3:07.353,67447,),0,0,0
3:07.419,67471,(,0,0,1
3:07.461,67486,N,0,0,0
3:07.561,67522,),0,0,1
3:07.653,67555,(,0,0,2
3:07.783,67602,t,0,0,0
3:07.906,67646,),0,0,2
3:07.967,67668,(,0,0,0
3:08.008,67683,p,0,0,0
3:08.050,67698,),0,0,0
3:08.081,67709,(,0,0,1
3:08.150,67734,N,0,0,0
3:08.203,67753,),0,0,1
3:08.328,67798,(,0,0,2
3:08.411,67828,t,0,0,0
3:08.525,67869,),0,0,2
3:08.625,67905,(,0,0,0
3:08.675,67923,p,0,0,0
3:08.717,67938,),0,0,0
3:08.783,67962,(,0,0,1
3:08.825,67977,N,0,0,0
3:08.889,68000,),0,0,1
3:09.011,68044,(,0,0,2
3:09.086,68071,t,0,0,0
3:09.133,68088,),0,0,2
3:09.317,68154,(,0,0,0
3:09.364,68171,p,0,0,0
3:09.403,68185,),0,0,0
3:09.469,68209,(,0,0,1
3:09.511,68224,N,0,0,0
3:09.567,68244,),0,0,1
3:09.711,68296,(,0,0,2
3:09.789,68324,t,0,0,0
3:09.872,68354,),0,0,2
3:10.006,68402,(,0,0,0
3:10.056,68420,p,0,0,0
3:10.103,68437,),0,0,0
3:10.142,68451,(,0,0,1
3:10.206,68474,N,0,0,0
3:10.261,68494,),0,0,1
3:10.350,68526,(,0,0,2
3:10.400,68544,t,0,0,4
3:10.497,68579,t,0,0,4
3:10.536,68593,),0,0,2
3:10.800,68688,(,0,0,0
3:10.839,68702,p,0,0,0
3:10.881,68717,),0,0,0
3:10.900,68724,(,0,0,1
3:10.942,68739,N,0,0,0
3:11.008,68763,),0,0,1
3:11.142,68811,(,0,0,2
3:11.231,68843,t,0,0,0
3:11.297,68867,),0,0,2
3:11.478,68932,(,0,0,0
3:11.536,68953,p,0,0,0
3:11.575,68967,),0,0,0
3:11.644,68992,(,0,0,1
3:11.686,69007,N,0,0,0
3:11.758,69033,),0,0,1
3:11.881,69077,(,0,0,2
3:11.964,69107,t,0,0,0
3:12.064,69143,),0,0,2
3:12.208,69195,(,0,0,0
3:12.258,69213,p,0,0,0
3:12.297,69227,),0,0,0
3:12.364,69251,(,0,0,1
3:12.411,69268,N,0,0,0
3:12.478,69292,),0,0,1
3:12.606,69338,(,0,0,2
3:12.683,69366,t,0,0,0
3:12.772,69398,),0,0,2
3:12.919,69451,(,0,0,0
3:12.969,69469,p,0,0,0
3:13.011,69484,),0,0,0
3:13.075,69507,(,0,0,1
3:13.114,69521,N,0,0,0
3:13.178,69544,),0,0,1
3:13.300,69588,(,0,0,2
3:13.383,69618,t,0,0,0
3:13.497,69659,),0,0,2
3:13.611,69700,(,0,0,0
3:13.661,69718,p,0,0,0
3:13.700,69732,),0,0,0
3:13.764,69755,(,0,0,1
3:13.808,69771,N,0,0,0
3:13.858,69789,),0,0,1
3:14.003,69841,(,0,0,2
3:14.075,69867,t,0,0,0
3:14.161,69898,),0,0,2
3:14.333,69960,(,0,0,0
3:14.372,69974,p,0,0,0
3:14.414,69989,),0,0,0
3:14.475,70011,(,0,0,1
3:14.517,70026,N,0,0,0
3:14.581,70049,),0,0,1
3:14.706,70094,(,0,0,2
3:14.781,70121,t,0,0,0
3:14.869,70153,),0,0,2
3:15.008,70203,(,0,0,0
3:15.056,70220,p,0,0,0
3:15.097,70235,),0,0,0
3:15.158,70257,(,0,0,1
3:15.197,70271,N,0,0,0
3:15.253,70291,),0,0,1
3:15.392,70341,(,0,0,2
3:15.475,70371,t,0,0,0
3:15.519,70387,),0,0,2
3:15.703,70453,(,0,0,0
3:15.750,70470,p,0,0,0
3:15.792,70485,),0,0,0
3:15.853,70507,(,0,0,1
3:15.894,70522,N,0,0,0
3:15.947,70541,),0,0,1
3:16.083,70590,(,0,0,2
3:16.167,70620,t,0,0,0
3:16.275,70659,),0,0,2
3:16.406,70706,(,0,0,0
3:16.461,70726,p,0,0,0
3:16.500,70740,),0,0,0
3:16.567,70764,(,0,0,1
3:16.608,70779,N,0,0,0
3:16.661,70798,),0,0,1
3:16.803,70849,(,0,0,2
3:16.886,70879,t,0,0,0
3:16.972,70910,),0,0,2
3:17.136,70969,(,0,0,0
3:17.194,70990,p,0,0,0
3:17.236,71005,),0,0,0
3:17.303,71029,(,0,0,1
3:17.347,71045,N,0,0,0
3:17.414,71069,),0,0,1
3:17.539,71114,(,0,0,2
3:17.617,71142,t,0,0,0
3:17.697,71171,),0,0,2
3:17.867,71232,(,0,0,0
3:17.922,71252,p,0,0,0
3:17.967,71268,),0,0,0
3:18.033,71292,(,0,0,1
3:18.081,71309,N,0,0,0
3:18.136,71329,),0,0,1
3:18.286,71383,(,0,0,2
3:18.361,71410,t,0,0,0
3:18.467,71448,),0,0,2
3:18.617,71502,(,0,0,0
3:18.669,71521,p,0,0,0
3:18.714,71537,),0,0,0
3:18.756,71552,(,0,0,1
3:18.828,71578,N,0,0,0
3:18.931,71615,),0,0,1
3:19.033,71652,(,0,0,2
3:19.108,71679,t,0,0,0
3:19.206,71714,),0,0,2
3:19.333,71760,(,0,0,0
3:19.383,71778,p,0,0,0
3:19.425,71793,),0,0,0
3:19.489,71816,(,0,0,1
3:19.528,71830,N,0,0,0
3:19.578,71848,),0,0,1
3:19.714,71897,(,0,0,2
3:19.786,71923,t,0,0,0
3:19.850,71946,),0,0,2
3:20.019,72007,(,0,0,0
3:20.072,72026,p,0,0,0
3:20.114,72041,),0,0,0
3:20.175,72063,(,0,0,1
3:20.214,72077,N,0,0,0
3:20.269,72097,),0,0,1
3:20.400,72144,(,0,0,2
3:20.472,72170,t,0,0,0
3:20.542,72195,),0,0,2
3:20.711,72256,(,0,0,0
3:20.758,72273,p,0,0,0
3:20.797,72287,),0,0,0
3:20.833,72300,(,0,0,1
3:20.903,72325,N,0,0,0
3:20.958,72345,),0,0,1
3:21.056,72380,t,0,0,2
3:21.164,72419,),0,0,2
3:21.281,72461,(,0,0,1
3:21.344,72484,N,0,0,0
3:21.381,72497,),0,0,1
3:21.508,72543,t,0,0,2
3:21.631,72587,),0,0,2
3:22.164,72779,(,0,0,0
3:22.203,72793,p,0,0,0
3:22.244,72808,),0,0,0
3:22.303,72829,(,0,0,1
3:22.347,72845,N,0,0,0
3:22.406,72866,),0,0,1
3:22.544,72916,(,0,0,2
3:22.633,72948,t,0,0,0
3:22.742,72987,),0,0,2
3:22.892,73041,(,0,0,0
3:22.947,73061,p,0,0,0
3:22.989,73076,),0,0,0
3:23.056,73100,(,0,0,1
3:23.100,73116,N,0,0,0
3:23.192,73149,),0,0,1
3:23.294,73186,(,0,0,2
3:23.372,73214,t,0,0,0
3:23.531,73271,),0,0,2
3:23.614,73301,(,0,0,0
3:23.669,73321,p,0,0,0
3:23.711,73336,),0,0,0
3:23.750,73350,(,0,0,1
3:23.825,73377,N,0,0,0
3:23.897,73403,),0,0,1
3:24.031,73451,(,0,0,2
3:24.103,73477,t,0,0,0
3:24.183,73506,),0,0,2
3:24.353,73567,(,0,0,0
3:24.406,73586,p,0,0,0
3:24.450,73602,),0,0,0
3:24.517,73626,(,0,0,1
3:24.561,73642,N,0,0,0
3:24.628,73666,),0,0,1
3:24.769,73717,(,0,0,2
3:24.842,73743,t,0,0,0
3:24.942,73779,),0,0,2
3:25.089,73832,(,0,0,0
3:25.136,73849,p,0,0,0
3:25.175,73863,),0,0,0
3:25.208,73875,(,0,0,1
3:25.281,73901,N,0,0,0
3:25.342,73923,),0,0,1
3:25.486,73975,(,0,0,2
3:25.561,74002,t,0,0,0
3:25.656,74036,),0,0,2
3:25.803,74089,(,0,0,0
3:25.850,74106,p,0,0,0
3:25.889,74120,),0,0,0
3:25.922,74132,(,0,0,1
3:25.994,74158,N,0,0,0
3:26.053,74179,),0,0,1
3:26.200,74232,(,0,0,0
3:26.264,74255,p,0,0,0
3:26.308,74271,),0,0,0
3:26.325,74277,(,0,0,1
3:26.383,74298,N,0,0,0
3:26.422,74312,),0,0,1
3:26.494,74338,(,0,0,2
3:26.622,74384,t,0,0,0
3:26.850,74466,),0,0,2
3:27.194,74590,(,0,0,0
3:27.242,74607,p,0,0,0
3:27.281,74621,),0,0,0
3:27.308,74631,(,0,0,1
3:27.383,74658,N,0,0,0
3:27.453,74683,),0,0,1
3:27.575,74727,(,0,0,2
3:27.664,74759,t,0,0,0
3:27.769,74797,),0,0,2
3:27.903,74845,(,0,0,0
3:27.953,74863,p,0,0,0
3:27.992,74877,),0,0,0
3:28.058,74901,(,0,0,1
3:28.097,74915,N,0,0,0
3:28.156,74936,),0,0,1
3:28.294,74986,(,0,0,2
3:28.372,75014,t,0,0,0
3:28.467,75048,),0,0,2
3:28.622,75104,(,0,0,0
3:28.681,75125,p,0,0,0
3:28.722,75140,),0,0,0
3:28.769,75157,(,0,0,1
3:28.839,75182,N,0,0,0
3:28.911,75208,),0,0,1
3:29.044,75256,(,0,0,2
3:29.128,75286,t,0,0,0
3:29.236,75325,),0,0,2
3:29.403,75385,(,0,0,0
3:29.447,75401,p,0,0,0
3:29.492,75417,),0,0,0
3:29.561,75442,(,0,0,1
3:29.606,75458,N,0,0,0
3:29.672,75482,),0,0,1
3:29.808,75531,(,0,0,2
3:29.883,75558,t,0,0,0
3:29.986,75595,),0,0,2
3:30.136,75649,(,0,0,0
3:30.192,75669,p,0,0,0
3:30.236,75685,),0,0,0
3:30.308,75711,(,0,0,1
3:30.350,75726,N,0,0,0
3:30.439,75758,),0,0,1
3:30.556,75800,(,0,0,2
3:30.631,75827,t,0,0,0
3:30.700,75852,),0,0,2
3:30.864,75911,(,0,0,0
3:30.914,75929,p,0,0,0
3:30.956,75944,),0,0,0
3:30.989,75956,(,0,0,1
3:31.058,75981,N,0,0,0
3:31.114,76001,),0,0,1
3:31.247,76049,(,0,0,2
3:31.328,76078,t,0,0,0
3:31.411,76108,),0,0,2
3:31.564,76163,(,0,0,0
3:31.611,76180,p,0,0,0
3:31.650,76194,),0,0,0
3:31.711,76216,(,0,0,1
3:31.753,76231,N,0,0,0
3:31.806,76250,),0,0,1
3:31.942,76299,(,0,0,2
3:32.025,76329,t,0,0,0
3:32.089,76352,),0,0,2
3:32.264,76415,(,0,0,0
3:32.314,76433,p,0,0,0
3:32.353,76447,),0,0,0
3:32.381,76457,(,0,0,1
3:32.453,76483,N,0,0,0
3:32.503,76501,),0,0,1
3:32.628,76546,(,0,0,2
3:32.711,76576,t,0,0,0
3:32.800,76608,),0,0,2
3:32.953,76663,(,0,0,0
3:33.008,76683,p,0,0,0
3:33.047,76697,),0,0,0
3:33.114,76721,(,0,0,1
3:33.153,76735,N,0,0,0
3:33.214,76757,),0,0,1
3:33.350,76806,(,0,0,2
3:33.419,76831,t,0,0,0
3:33.481,76853,),0,0,2
3:33.689,76928,(,0,0,0
3:33.728,76942,p,0,0,0
3:33.767,76956,),0,0,0
3:33.831,76979,(,0,0,1
3:33.875,76995,N,0,0,0
3:33.931,77015,),0,0,1
3:34.072,77066,(,0,0,2
3:34.158,77097,t,0,0,0
3:34.208,77115,),0,0,2
3:34.411,77188,(,0,0,0
3:34.450,77202,p,0,0,0
3:34.489,77216,),0,0,0
3:34.525,77229,(,0,0,1
3:34.600,77256,N,0,0,0
3:34.656,77276,),0,0,1
3:34.814,77333,(,0,0,2
3:34.894,77362,t,0,0,0
3:34.922,77372,),0,0,2
3:35.144,77452,(,0,0,0
3:35.197,77471,p,0,0,0
3:35.236,77485,),0,0,0
3:35.306,77510,(,0,0,1
3:35.347,77525,N,0,0,0
3:35.400,77544,),0,0,1
3:35.547,77597,(,0,0,2
3:35.628,77626,t,0,0,0
3:35.694,77650,),0,0,2
3:35.856,77708,(,0,0,0
3:35.917,77730,p,0,0,0
3:35.961,77746,),0,0,0
3:36.031,77771,(,0,0,1
3:36.072,77786,N,0,0,0
3:36.142,77811,),0,0,1
3:36.278,77860,(,0,0,2
3:36.358,77889,t,0,0,0
3:36.450,77922,),0,0,2
3:36.608,77979,(,0,0,0
3:36.664,77999,p,0,0,0
3:36.706,78014,),0,0,0
3:36.742,78027,(,0,0,1
3:36.817,78054,N,0,0,0
3:36.889,78080,),0,0,1
3:37.006,78122,(,0,0,2
3:37.097,78155,t,0,0,0
3:37.247,78209,),0,0,2
3:37.317,78234,(,0,0,0
3:37.389,78260,p,0,0,0
3:37.425,78273,),0,0,0
3:37.464,78287,(,0,0,1
3:37.531,78311,N,0,0,0
3:37.597,78335,),0,0,1
3:37.722,78380,(,0,0,2
3:37.803,78409,t,0,0,0
3:37.872,78434,),0,0,2
3:38.050,78498,(,0,0,0
3:38.086,78511,p,0,0,0
3:38.122,78524,),0,0,0
3:38.150,78534,(,0,0,1
3:38.222,78560,N,0,0,0
3:38.272,78578,),0,0,1
3:38.417,78630,(,0,0,2
3:38.478,78652,t,0,0,0
3:38.561,78682,),0,0,2
3:38.714,78737,(,0,0,0
3:38.767,78756,p,0,0,0
3:38.806,78770,),0,0,0
3:38.864,78791,(,0,0,1
3:38.906,78806,N,0,0,0
3:38.958,78825,),0,0,1
3:39.097,78875,(,0,0,2
3:39.169,78901,t,0,0,0
3:39.239,78926,),0,0,2
3:39.406,78986,(,0,0,0
3:39.461,79006,p,0,0,0
3:39.503,79021,),0,0,0
3:39.572,79046,(,0,0,1
3:39.614,79061,N,0,0,0
3:39.667,79080,),0,0,1
3:39.808,79131,(,0,0,2
3:39.883,79158,t,0,0,0
3:39.936,79177,),0,0,2
3:40.117,79242,(,0,0,0
3:40.167,79260,p,0,0,0
3:40.208,79275,),0,0,0
3:40.247,79289,(,0,0,1
3:40.319,79315,N,0,0,0
3:40.383,79338,),0,0,1
3:40.528,79390,(,0,0,2
3:40.611,79420,t,0,0,0
3:40.706,79454,),0,0,2
3:40.856,79508,(,0,0,0
3:40.906,79526,p,0,0,0
3:40.947,79541,),0,0,0
3:40.989,79556,(,0,0,1
3:41.061,79582,N,0,0,0
3:41.217,79638,),0,0,1
3:41.264,79655,(,0,0,2
3:41.358,79689,t,0,0,0
3:41.506,79742,),0,0,2
3:41.619,79783,(,0,0,0
3:41.667,79800,p,0,0,0
3:41.708,79815,),0,0,0
3:41.758,79833,(,0,0,1
3:41.819,79855,N,0,0,0
3:41.889,79880,),0,0,1
3:42.031,79931,(,0,0,2
3:42.092,79953,t,0,0,0
3:42.156,79976,),0,0,2
3:42.358,80049,(,0,0,0
3:42.386,80059,p,0,0,0
3:42.442,80079,),0,0,0
3:42.492,80097,(,0,0,1
3:42.553,80119,N,0,0,0
3:42.653,80155,),0,0,1
3:42.731,80183,(,0,0,2
3:42.814,80213,t,0,0,0
3:42.892,80241,),0,0,2
3:43.067,80304,(,0,0,0
3:43.103,80317,p,0,0,0
3:43.142,80331,),0,0,0
3:43.206,80354,(,0,0,1
3:43.244,80368,N,0,0,0
3:43.308,80391,),0,0,1
3:43.439,80438,(,0,0,2
3:43.567,80484,t,0,0,0
3:43.669,80521,),0,0,2
3:43.750,80550,(,0,0,0
3:43.806,80570,p,0,0,0
3:43.847,80585,),0,0,0
3:43.889,80600,(,0,0,1
3:43.953,80623,N,0,0,0
3:44.058,80661,),0,0,1
3:44.158,80697,(,0,0,2
3:44.231,80723,t,0,0,0
3:44.283,80742,),0,0,2
3:44.481,80813,(,0,0,0
3:44.522,80828,p,0,0,0
3:44.561,80842,),0,0,0
3:44.597,80855,(,0,0,1
3:44.667,80880,N,0,0,0
3:44.722,80900,),0,0,1
3:44.856,80948,(,0,0,2
3:44.928,80974,t,0,0,0
3:44.992,80997,),0,0,2
3:45.167,81060,(,0,0,0
3:45.211,81076,p,0,0,0
3:45.253,81091,),0,0,0
3:45.294,81106,(,0,0,1
3:45.358,81129,N,0,0,0
3:45.414,81149,),0,0,1
3:45.556,81200,(,0,0,2
3:45.631,81227,t,0,0,0
3:45.692,81249,),0,0,2
3:45.853,81307,(,0,0,0
3:45.903,81325,p,0,0,0
3:45.942,81339,),0,0,0
3:46.006,81362,(,0,0,1
3:46.050,81378,N,0,0,0
3:46.106,81398,),0,0,1
3:46.253,81451,(,0,0,2
3:46.328,81478,t,0,0,0
3:46.414,81509,),0,0,2
3:46.569,81565,(,0,0,0
3:46.622,81584,p,0,0,0
3:46.664,81599,),0,0,0
3:46.706,81614,(,0,0,1
3:46.778,81640,N,0,0,0
3:46.833,81660,),0,0,1
3:46.967,81708,(,0,0,2
3:47.067,81744,t,0,0,0
3:47.158,81777,),0,0,2
3:47.317,81834,(,0,0,0
3:47.367,81852,p,0,0,0
3:47.406,81866,),0,0,0
3:47.469,81889,(,0,0,1
3:47.514,81905,N,0,0,0
3:47.578,81928,),0,0,1
3:47.717,81978,(,0,0,2
3:47.789,82004,t,0,0,0
3:47.864,82031,),0,0,2
3:48.039,82094,(,0,0,0
3:48.092,82113,p,0,0,0
3:48.139,82130,),0,0,0
3:48.214,82157,(,0,0,1
3:48.250,82170,N,0,0,0
3:48.317,82194,),0,0,1
3:48.436,82237,(,0,0,2
3:48.528,82270,t,0,0,0
3:48.678,82324,),0,0,2
3:48.781,82361,(,0,0,0
3:48.833,82380,p,0,0,0
3:48.872,82394,),0,0,0
3:48.944,82420,(,0,0,1
3:48.986,82435,N,0,0,0
3:49.042,82455,),0,0,1
3:49.175,82503,(,0,0,2
3:49.275,82539,t,0,0,0
3:49.358,82569,),0,0,2
3:49.497,82619,(,0,0,0
3:49.550,82638,p,0,0,0
3:49.589,82652,),0,0,0
3:49.647,82673,(,0,0,1
3:49.689,82688,N,0,0,0
3:49.742,82707,),0,0,1
3:49.881,82757,(,0,0,2
3:49.953,82783,t,0,0,0
3:50.047,82817,),0,0,2
3:50.189,82868,(,0,0,0
3:50.231,82883,p,0,0,0
3:50.269,82897,),0,0,0
3:50.331,82919,(,0,0,1
3:50.369,82933,N,0,0,0
3:50.419,82951,),0,0,1
3:50.553,82999,(,0,0,2
3:50.625,83025,t,0,0,0
3:50.683,83046,),0,0,2
3:50.869,83113,(,0,0,0
3:50.908,83127,p,0,0,0
3:50.947,83141,),0,0,0
3:50.958,83145,(,0,0,1
3:51.056,83180,N,0,0,0
3:51.111,83200,),0,0,1
3:51.158,83217,(,0,0,2
3:51.200,83232,t,0,0,4
3:51.333,83280,t,0,0,4
3:51.547,83357,),0,0,2
3:51.581,83369,(,0,0,0
3:51.631,83387,p,0,0,0
3:51.672,83402,),0,0,0
3:51.742,83427,(,0,0,1
3:51.786,83443,N,0,0,0
3:51.856,83468,),0,0,1
3:51.989,83516,(,0,0,2
3:52.067,83544,t,0,0,0
3:52.153,83575,),0,0,2
3:52.314,83633,(,0,0,0
3:52.361,83650,p,0,0,0
3:52.397,83663,),0,0,0
3:52.461,83686,(,0,0,1
3:52.503,83701,N,0,0,0
3:52.561,83722,),0,0,1
3:52.714,83777,(,0,0,2
3:52.794,83806,t,0,0,0
3:52.875,83835,),0,0,2
3:53.039,83894,(,0,0,0
3:53.094,83914,p,0,0,0
3:53.139,83930,),0,0,0
3:53.172,83942,(,0,0,1
3:53.247,83969,N,0,0,0
3:53.300,83988,),0,0,1
3:53.442,84039,(,0,0,2
3:53.517,84066,t,0,0,0
3:53.631,84107,),0,0,2
3:53.775,84159,(,0,0,0
3:53.819,84175,p,0,0,0
3:53.858,84189,),0,0,0
3:53.931,84215,(,0,0,1
3:53.972,84230,N,0,0,0
3:54.086,84271,),0,0,1
3:54.178,84304,(,0,0,2
3:54.250,84330,t,0,0,0
3:54.308,84351,),0,0,2
3:54.486,84415,(,0,0,0
3:54.542,84435,p,0,0,0
3:54.586,84451,),0,0,0
3:54.656,84476,(,0,0,1
3:54.697,84491,N,0,0,0
3:54.764,84515,),0,0,1
3:54.897,84563,(,0,0,2
3:54.972,84590,t,0,0,0
3:55.078,84628,),0,0,2
3:55.197,84671,(,0,0,0
3:55.253,84691,p,0,0,0
3:55.292,84705,),0,0,0
3:55.336,84721,(,0,0,1
3:55.403,84745,N,0,0,0
3:55.456,84764,),0,0,1
3:55.600,84816,(,0,0,2
3:55.681,84845,t,0,0,0
3:55.733,84864,),0,0,2
3:55.917,84930,(,0,0,0
3:55.967,84948,p,0,0,0
3:56.008,84963,),0,0,0
3:56.075,84987,(,0,0,1
3:56.117,85002,N,0,0,0
3:56.169,85021,),0,0,1
3:56.317,85074,(,0,0,2
3:56.389,85100,t,0,0,0
3:56.458,85125,),0,0,2
3:56.628,85186,(,0,0,0
3:56.672,85202,p,0,0,0
3:56.717,85218,),0,0,0
3:56.767,85236,(,0,0,1
3:56.822,85256,N,0,0,0
3:56.872,85274,),0,0,1
3:57.003,85321,(,0,0,2
3:57.078,85348,t,0,0,0
3:57.144,85372,),0,0,2
3:57.319,85435,(,0,0,0
3:57.364,85451,p,0,0,0
3:57.403,85465,),0,0,0
3:57.469,85489,(,0,0,1
3:57.511,85504,N,0,0,0
3:57.625,85545,),0,0,1
3:57.711,85576,(,0,0,2
3:57.803,85609,t,0,0,0
3:57.975,85671,),0,0,2
3:58.033,85692,(,0,0,0
3:58.075,85707,p,0,0,0
3:58.111,85720,),0,0,0
3:58.178,85744,(,0,0,1
3:58.219,85759,N,0,0,0
3:58.289,85784,),0,0,1
3:58.403,85825,(,0,0,2
3:58.500,85860,t,0,0,0
3:58.606,85898,),0,0,2
3:58.789,85964,(,0,0,0
3:58.817,85974,p,0,0,0
3:58.856,85988,),0,0,0
3:58.892,86001,(,0,0,1
3:58.972,86030,N,0,0,0
3:59.078,86068,),0,0,1
3:59.139,86090,(,0,0,2
3:59.261,86134,t,0,0,0
3:59.333,86160,),0,0,2
3:59.531,86231,(,0,0,0
3:59.572,86246,p,0,0,0
3:59.611,86260,),0,0,0
3:59.683,86286,(,0,0,1
3:59.733,86304,N,0,0,0
3:59.819,86335,),0,0,1
3:59.875,86355,(,0,0,2
4:00.003,86401,t,0,0,0
4:00.089,86432,),0,0,2
4:00.267,86496,(,0,0,0
4:00.311,86512,p,0,0,0
4:00.353,86527,),0,0,0
4:00.425,86553,(,0,0,1
4:00.469,86569,N,0,0,0
4:00.536,86593,),0,0,1
4:00.669,86641,(,0,0,2
4:00.744,86668,t,0,0,0
4:00.825,86697,),0,0,2
4:00.975,86751,(,0,0,0
4:01.019,86767,p,0,0,0
4:01.058,86781,),0,0,0
4:01.125,86805,(,0,0,1
4:01.167,86820,N,0,0,0
4:01.219,86839,),0,0,1
4:01.364,86891,(,0,0,2
4:01.444,86920,t,0,0,0
4:01.506,86942,),0,0,2
4:01.667,87000,(,0,0,0
4:01.719,87019,p,0,0,0
4:01.758,87033,),0,0,0
4:01.817,87054,(,0,0,1
4:01.861,87070,N,0,0,0
4:01.917,87090,),0,0,1
4:02.058,87141,(,0,0,2
4:02.131,87167,t,0,0,0
4:02.217,87198,),0,0,2
4:02.361,87250,(,0,0,0
4:02.408,87267,p,0,0,0
4:02.447,87281,),0,0,0
4:02.506,87302,(,0,0,1
4:02.547,87317,N,0,0,0
4:02.597,87335,),0,0,1
4:02.733,87384,(,0,0,2
4:02.808,87411,t,0,0,0
4:02.875,87435,),0,0,2
4:03.050,87498,(,0,0,0
4:03.103,87517,p,0,0,0
4:03.144,87532,),0,0,0
4:03.206,87554,(,0,0,1
4:03.253,87571,N,0,0,0
4:03.306,87590,),0,0,1
4:03.444,87640,(,0,0,2
4:03.519,87667,t,0,0,0
4:03.644,87712,),0,0,2
4:03.772,87758,(,0,0,0
4:03.822,87776,p,0,0,0
4:03.867,87792,),0,0,0
4:03.931,87815,(,0,0,1
4:03.975,87831,N,0,0,0
4:04.092,87873,),0,0,1
4:04.122,87884,(,0,0,2
4:04.167,87900,t,0,0,4
4:04.319,87955,t,0,0,4
4:04.428,87994,),0,0,2
4:04.503,88021,(,0,0,0
4:04.550,88038,p,0,0,0
4:04.589,88052,),0,0,0
4:04.625,88065,(,0,0,1
4:04.700,88092,N,0,0,0
4:04.756,88112,),0,0,1
4:04.906,88166,(,0,0,2
4:04.989,88196,t,0,0,0
4:05.058,88221,),0,0,2
4:05.167,88260,(,0,0,0
4:05.253,88291,p,0,0,0
4:05.344,88324,),0,0,0
4:05.378,88336,(,0,0,1
4:05.456,88364,N,0,0,0
4:05.511,88384,),0,0,1
4:05.664,88439,(,0,0,2
4:05.733,88464,t,0,0,0
4:05.806,88490,),0,0,2
4:05.981,88553,(,0,0,0
4:06.036,88573,p,0,0,0
4:06.078,88588,),0,0,0
4:06.131,88607,(,0,0,1
4:06.192,88629,N,0,0,0
4:06.247,88649,),0,0,1
4:06.392,88701,(,0,0,2
4:06.478,88732,t,0,0,0
4:06.586,88771,),0,0,2
4:06.722,88820,(,0,0,0
4:06.789,88844,p,0,0,0
4:06.828,88858,),0,0,0
4:06.900,88884,(,0,0,1
4:06.944,88900,N,0,0,0
4:07.003,88921,),0,0,1
4:07.047,88937,(,0,0,2
4:07.075,88947,t,0,0,4
4:07.336,89041,t,0,0,4
4:07.378,89056,),0,0,2
4:07.442,89079,(,0,0,0
4:07.517,89106,p,0,0,0
4:07.547,89117,),0,0,0
4:07.611,89140,(,0,0,1
4:07.656,89156,N,0,0,0
4:07.725,89181,),0,0,1
4:07.869,89233,(,0,0,2
4:07.933,89256,t,0,0,0
4:08.039,89294,),0,0,2
4:08.175,89343,(,0,0,0
4:08.214,89357,p,0,0,0
4:08.253,89371,),0,0,0
4:08.311,89392,(,0,0,1
4:08.353,89407,N,0,0,0
4:08.419,89431,),0,0,1
4:08.692,89529,(,0,0,2
4:08.733,89544,t,0,0,1
4:08.792,89565,),0,0,2
4:08.861,89590,(,0,0,0
4:08.900,89604,p,0,0,0
4:08.944,89620,),0,0,0
4:08.997,89639,(,0,0,1
4:09.092,89673,N,0,0,0
4:09.136,89689,),0,0,1
4:09.214,89717,(,0,0,2
4:09.339,89762,t,0,0,0
4:09.464,89807,),0,0,2
4:09.547,89837,(,0,0,0
4:09.581,89849,p,0,0,0
4:09.633,89868,),0,0,0
4:09.647,89873,(,0,0,1
4:09.753,89911,N,0,0,0
4:09.817,89934,),0,0,1
4:09.931,89975,(,0,0,2
4:10.019,90007,t,0,0,0
4:10.072,90026,),0,0,2
4:10.292,90105,(,0,0,0
4:10.319,90115,p,0,0,0
4:10.361,90130,),0,0,0
4:10.397,90143,(,0,0,1
4:10.475,90171,N,0,0,0
4:10.544,90196,),0,0,1
4:10.686,90247,(,0,0,2
4:10.781,90281,t,0,0,0
4:10.861,90310,),0,0,2
4:11.014,90365,(,0,0,0
4:11.072,90386,p,0,0,0
4:11.117,90402,),0,0,0
4:11.183,90426,(,0,0,1
4:11.231,90443,N,0,0,0
4:11.300,90468,),0,0,1
4:11.442,90519,(,0,0,2
4:11.531,90551,t,0,0,0
4:11.622,90584,),0,0,2
4:11.786,90643,(,0,0,0
4:11.831,90659,p,0,0,0
4:11.869,90673,),0,0,0
4:11.908,90687,(,0,0,1
4:11.981,90713,N,0,0,0
4:12.050,90738,),0,0,1
4:12.142,90771,(,0,0,2
4:12.172,90782,t,0,0,4
4:12.267,90816,t,0,0,4
4:12.344,90844,),0,0,2
4:12.514,90905,(,0,0,0
4:12.564,90923,p,0,0,0
4:12.606,90938,),0,0,0
4:12.647,90953,(,0,0,1
4:12.719,90979,N,0,0,0
4:12.789,91004,),0,0,1
4:12.925,91053,(,0,0,2
4:12.992,91077,t,0,0,0
4:13.069,91105,),0,0,2
4:13.222,91160,(,0,0,0
4:13.272,91178,p,0,0,0
4:13.314,91193,),0,0,0
4:13.353,91207,(,0,0,1
4:13.422,91232,N,0,0,0
4:13.486,91255,),0,0,1
4:13.608,91299,(,0,0,2
4:13.694,91330,t,0,0,0
4:13.753,91351,),0,0,2
4:13.936,91417,(,0,0,0
4:13.972,91430,p,0,0,0
4:14.017,91446,),0,0,0
4:14.047,91457,(,0,0,1
4:14.125,91485,N,0,0,0
4:14.178,91504,),0,0,1
4:14.325,91557,(,0,0,2
4:14.406,91586,t,0,0,0
4:14.497,91619,),0,0,2
4:14.647,91673,(,0,0,0
4:14.700,91692,p,0,0,0
4:14.742,91707,),0,0,0
4:14.806,91730,(,0,0,1
4:14.844,91744,N,0,0,0
4:14.911,91768,),0,0,1
4:15.025,91809,(,0,0,2
4:15.108,91839,t,0,0,0
4:15.272,91898,),0,0,2
4:15.367,91932,(,0,0,0
4:15.408,91947,p,0,0,0
4:15.442,91959,),0,0,0
4:15.453,91963,(,0,0,1
4:15.553,91999,N,0,0,0
4:15.614,92021,),0,0,1
4:15.658,92037,(,0,0,2
4:15.725,92061,t,0,0,4
4:15.814,92093,t,0,0,4
4:15.869,92113,),0,0,2
4:16.047,92177,(,0,0,0
4:16.111,92200,p,0,0,0
4:16.156,92216,),0,0,0
4:16.172,92222,(,0,0,1
4:16.328,92278,N,0,0,0
4:16.428,92314,),0,0,1
4:16.453,92323,(,0,0,2
4:16.492,92337,t,0,0,5
4:16.544,92356,t,0,0,5
4:16.619,92383,),0,0,2
4:16.761,92434,(,0,0,0
4:16.825,92457,p,0,0,0
4:16.878,92476,),0,0,0
4:16.925,92493,(,0,0,1
4:17.000,92520,N,0,0,0
4:17.100,92556,),0,0,1
4:17.197,92591,(,0,0,2
4:17.225,92601,t,0,0,4
4:17.297,92627,t,0,0,4
4:17.397,92663,),0,0,2
4:17.564,92723,(,0,0,0
4:17.611,92740,p,0,0,0
4:17.678,92764,),0,0,0
4:17.681,92765,(,0,0,1
4:17.750,92790,N,0,0,0
4:17.844,92824,),0,0,1
4:17.981,92873,(,0,0,2
4:18.036,92893,t,0,0,0
4:18.092,92913,),0,0,2
4:18.267,92976,(,0,0,0
4:18.344,93004,p,0,0,0
4:18.425,93033,),0,0,0
4:18.456,93044,(,0,0,1
4:18.497,93059,N,0,0,0
4:18.606,93098,),0,0,1
4:18.692,93129,(,0,0,2
4:18.836,93181,t,0,0,0
4:18.961,93226,),0,0,2
4:19.061,93262,(,0,0,0
4:19.103,93277,p,0,0,0
4:19.144,93292,),0,0,0
4:19.167,93300,(,0,0,1
4:19.247,93329,N,0,0,0
4:19.300,93348,),0,0,1
4:19.447,93401,(,0,0,2
4:19.517,93426,t,0,0,5
4:19.653,93475,t,0,0,5
4:19.731,93503,),0,0,2
4:19.761,93514,(,0,0,0
4:19.800,93528,p,0,0,0
4:19.842,93543,),0,0,0
4:19.908,93567,(,0,0,1
4:19.950,93582,N,0,0,0
4:20.056,93620,),0,0,1
4:20.142,93651,(,0,0,2
4:20.217,93678,t,0,0,0
4:20.322,93716,),0,0,2
4:20.600,93816,(,0,0,0
4:20.633,93828,p,0,0,0
4:20.681,93845,),0,0,0
4:20.686,93847,(,0,0,1
4:20.714,93857,N,0,0,0
4:20.892,93921,),0,0,1
4:20.903,93925,(,0,0,2
4:21.058,93981,t,0,0,1
4:21.111,94000,),0,0,2
4:21.153,94015,(,0,0,0
4:21.194,94030,p,0,0,0
4:21.233,94044,),0,0,0
4:21.300,94068,(,0,0,1
4:21.339,94082,N,0,0,0
4:21.444,94120,),0,0,1
4:21.542,94155,(,0,0,2
4:21.625,94185,t,0,0,0
4:21.742,94227,),0,0,2
4:21.889,94280,(,0,0,0
4:21.933,94296,p,0,0,0
4:21.975,94311,),0,0,0
4:22.047,94337,(,0,0,1
4:22.092,94353,N,0,0,0
4:22.203,94393,),0,0,1
4:22.292,94425,(,0,0,2
4:22.353,94447,t,0,0,0
4:22.411,94468,),0,0,2
4:22.625,94545,(,0,0,0
4:22.667,94560,p,0,0,0
4:22.708,94575,),0,0,0
4:22.783,94602,(,0,0,1
4:22.828,94618,N,0,0,0
4:22.897,94643,),0,0,1
4:23.022,94688,(,0,0,2
4:23.114,94721,t,0,0,0
4:23.189,94748,),0,0,2
4:23.364,94811,(,0,0,0
4:23.414,94829,p,0,0,0
4:23.453,94843,),0,0,0
4:23.522,94868,(,0,0,1
4:23.564,94883,N,0,0,0
4:23.686,94927,),0,0,1
4:23.781,94961,(,0,0,2
4:23.839,94982,t,0,0,0
4:23.889,95000,),0,0,2
4:24.125,95085,(,0,0,0
4:24.164,95099,p,0,0,0
4:24.208,95115,),0,0,0
4:24.239,95126,(,0,0,1
4:24.317,95154,N,0,0,0
4:24.433,95196,),0,0,1
4:24.489,95216,(,0,0,2
4:24.597,95255,t,0,0,1
4:24.847,95345,),0,0,2
4:24.864,95351,(,0,0,0
4:24.944,95380,p,0,0,0
4:24.978,95392,),0,0,0
4:24.994,95398,(,0,0,1
4:25.131,95447,N,0,0,0
4:25.164,95459,),0,0,1
4:25.183,95466,(,0,0,2
4:25.228,95482,t,0,0,4
4:25.419,95551,t,0,0,4
4:25.456,95564,),0,0,2
4:25.569,95605,(,0,0,0
4:25.628,95626,p,0,0,0
4:25.664,95639,),0,0,0
4:25.706,95654,(,0,0,1
4:25.778,95680,N,0,0,0
4:25.864,95711,),0,0,1
4:25.975,95751,(,0,0,2
4:26.036,95773,t,0,0,0
4:26.133,95808,),0,0,2
4:26.283,95862,(,0,0,0
4:26.333,95880,p,0,0,0
4:26.372,95894,),0,0,0
4:26.417,95910,(,0,0,1
4:26.486,95935,N,0,0,0
4:26.553,95959,),0,0,1
4:26.689,96008,(,0,0,2
4:26.761,96034,t,0,0,0
4:26.869,96073,),0,0,2
4:27.000,96120,(,0,0,0
4:27.042,96135,p,0,0,0
4:27.083,96150,),0,0,0
4:27.144,96172,(,0,0,1
4:27.189,96188,N,0,0,0
4:27.253,96211,),0,0,1
4:27.314,96233,(,0,0,2
4:27.350,96246,t,0,0,4
4:27.456,96284,t,0,0,4
4:27.533,96312,),0,0,2
4:27.694,96370,(,0,0,0
4:27.753,96391,p,0,0,0
4:27.794,96406,),0,0,0
4:27.858,96429,(,0,0,1
4:27.900,96444,N,0,0,0
4:27.961,96466,),0,0,1
4:28.092,96513,(,0,0,2
4:28.169,96541,t,0,0,0
4:28.242,96567,),0,0,2
4:28.483,96654,(,0,0,0
4:28.525,96669,p,0,0,0
4:28.619,96703,),0,0,0
4:28.628,96706,(,0,0,1
4:28.778,96760,N,0,0,0
4:28.836,96781,),0,0,1
4:28.914,96809,(,0,0,2
4:29.119,96883,t,0,0,1
4:29.186,96907,),0,0,2
4:29.256,96932,(,0,0,0
4:29.283,96942,p,0,0,0
4:29.328,96958,),0,0,0
4:29.350,96966,(,0,0,1
4:29.400,96984,N,0,0,0
4:29.469,97009,),0,0,1
4:29.614,97061,(,0,0,2
4:29.692,97089,t,0,0,0
4:29.786,97123,),0,0,2
4:29.964,97187,(,0,0,0
4:29.997,97199,p,0,0,0
4:30.039,97214,),0,0,0
4:30.108,97239,(,0,0,1
4:30.153,97255,N,0,0,0
4:30.239,97286,),0,0,1
4:30.286,97303,(,0,0,2
4:30.342,97323,t,0,0,4
4:30.431,97355,t,0,0,4
4:30.550,97398,),0,0,2
4:30.694,97450,(,0,0,0
4:30.744,97468,p,0,0,0
4:30.783,97482,),0,0,0
4:30.842,97503,(,0,0,1
4:30.892,97521,N,0,0,0
4:30.947,97541,),0,0,1
4:31.086,97591,(,0,0,2
4:31.156,97616,t,0,0,0
4:31.253,97651,),0,0,2
4:31.392,97701,(,0,0,0
4:31.450,97722,p,0,0,0
4:31.489,97736,),0,0,0
4:31.531,97751,(,0,0,1
4:31.600,97776,N,0,0,0
4:31.653,97795,),0,0,1
4:31.789,97844,(,0,0,2
4:31.858,97869,t,0,0,0
4:31.972,97910,),0,0,2
4:32.092,97953,(,0,0,0
4:32.153,97975,p,0,0,0
4:32.192,97989,),0,0,0
4:32.258,98013,(,0,0,1
4:32.300,98028,N,0,0,0
4:32.356,98048,),0,0,1
4:32.481,98093,(,0,0,2
4:32.556,98120,t,0,0,0
4:32.639,98150,),0,0,2
4:32.797,98207,(,0,0,0
4:32.842,98223,p,0,0,0
4:32.881,98237,),0,0,0
4:32.944,98260,(,0,0,1
4:32.989,98276,N,0,0,0
4:33.075,98307,),0,0,1
4:33.183,98346,(,0,0,2
4:33.269,98377,t,0,0,0
4:33.372,98414,),0,0,2
4:33.519,98467,(,0,0,0
4:33.569,98485,p,0,0,0
4:33.611,98500,),0,0,0
4:33.681,98525,(,0,0,1
4:33.722,98540,N,0,0,0
4:33.789,98564,),0,0,1
4:33.908,98607,(,0,0,2
4:34.000,98640,t,0,0,0
4:34.111,98680,),0,0,2
4:34.261,98734,(,0,0,0
4:34.311,98752,p,0,0,0
4:34.356,98768,),0,0,0
4:34.400,98784,(,0,0,1
4:34.464,98807,N,0,0,0
4:34.519,98827,),0,0,1
4:34.658,98877,(,0,0,2
4:34.742,98907,t,0,0,0
4:34.819,98935,),0,0,2
4:34.997,98999,(,0,0,0
4:35.056,99020,p,0,0,0
4:35.094,99034,),0,0,0
4:35.136,99049,(,0,0,1
4:35.211,99076,N,0,0,0
4:35.281,99101,),0,0,1
4:35.414,99149,(,0,0,2
4:35.489,99176,t,0,0,0
4:35.586,99211,),0,0,2
4:35.906,99326,(,0,0,1
4:35.950,99342,N,0,0,0
4:36.042,99375,),0,0,1
4:36.156,99416,(,0,0,2
4:36.242,99447,t,0,0,0
4:36.322,99476,),0,0,2
4:36.661,99598,(,0,0,1
4:36.708,99615,N,0,0,0
4:36.794,99646,),0,0,1
4:36.922,99692,(,0,0,2
4:36.994,99718,t,0,0,0
4:37.078,99748,),0,0,2
4:37.406,99866,(,0,0,1
4:37.444,99880,N,0,0,0
4:37.525,99909,),0,0,1
4:37.633,99948,(,0,0,2
4:37.708,99975,t,0,0,0
4:37.806   100010,),0,0,2
4:38.111   100120,(,0,0,1
4:38.150   100134,N,0,0,0
4:38.225   100161,),0,0,1
4:38.339   100202,(,0,0,2
4:38.417   100230,t,0,0,0
4:38.503   100261,),0,0,2
4:38.794   100366,(,0,0,1
4:38.839   100382,N,0,0,0
4:38.925   100413,),0,0,1
4:39.036   100453,(,0,0,2
4:39.106   100478,t,0,0,0
4:39.183   100506,),0,0,2
4:39.492   100617,(,0,0,1
4:39.539   100634,N,0,0,0
4:39.625   100665,),0,0,1
4:39.739   100706,(,0,0,2
4:39.811   100732,t,0,0,0
4:39.903   100765,),0,0,2
4:40.211   100876,(,0,0,1
4:40.258   100893,N,0,0,0
4:40.358   100929,),0,0,1
4:40.453   100963,(,0,0,2
4:40.539   100994,t,0,0,0
4:40.633   101028,),0,0,2
4:40.961   101146,(,0,0,1
4:41.011   101164,N,0,0,0
4:41.106   101198,),0,0,1
4:41.217   101238,(,0,0,2
4:41.300   101268,t,0,0,0
4:41.392   101301,),0,0,2
4:41.725   101421,(,0,0,1
4:41.775   101439,N,0,0,0
4:41.858   101469,),0,0,1
4:41.969   101509,(,0,0,2
4:42.050   101538,t,0,0,0
4:42.169   101581,),0,0,2
4:42.456   101684,(,0,0,1
4:42.497   101699,N,0,0,0
4:42.592   101733,),0,0,1
4:42.700   101772,(,0,0,2
4:42.781   101801,t,0,0,0
4:42.883   101838,),0,0,2
4:43.175   101943,(,0,0,1
4:43.214   101957,N,0,0,0
4:43.311   101992,),0,0,1
4:43.600   102096,(,0,0,2
4:43.644   102112,t,0,0,0
4:43.692   102129,),0,0,2
4:44.592   102453,(,0,0,1
4:44.633   102468,N,0,0,0
4:44.708   102495,),0,0,1
4:44.817   102534,(,0,0,2
4:44.908   102567,t,0,0,0
4:44.986   102595,),0,0,2
4:45.289   102704,(,0,0,1
4:45.331   102719,N,0,0,0
4:45.389   102740,),0,0,1
4:45.453   102763,(,0,0,2
4:45.486   102775,t,0,0,4
4:45.614   102821,t,0,0,4
4:45.675   102843,),0,0,2
4:45.986   102955,(,0,0,1
4:46.033   102972,N,0,0,0
4:46.119   103003,),0,0,1
4:46.158   103017,(,0,0,2
4:46.222   103040,t,0,0,4
4:46.317   103074,t,0,0,4
4:46.436   103117,),0,0,2
4:46.719   103219,(,0,0,1
4:46.756   103232,N,0,0,0
4:46.842   103263,),0,0,1
4:46.958   103305,(,0,0,2
4:47.039   103334,t,0,0,0
4:47.111   103360,),0,0,2
4:47.456   103484,(,0,0,1
4:47.500   103500,N,0,0,0
4:47.589   103532,),0,0,1
4:47.611   103540,(,0,0,2
4:47.661   103558,t,0,0,4
4:47.783   103602,t,0,0,4
4:47.875   103635,),0,0,2
4:48.178   103744,(,0,0,1
4:48.225   103761,N,0,0,0
4:48.328   103798,),0,0,1
4:48.439   103838,(,0,0,2
4:48.517   103866,t,0,0,0
4:48.600   103896,),0,0,2
4:48.911   104008,(,0,0,1
4:48.956   104024,N,0,0,0
4:49.042   104055,),0,0,1
4:49.147   104093,(,0,0,2
4:49.233   104124,t,0,0,0
4:49.283   104142,),0,0,2
4:49.622   104264,(,0,0,1
4:49.658   104277,N,0,0,0
4:49.742   104307,),0,0,1
4:49.775   104319,(,0,0,2
4:49.819   104335,t,0,0,4
4:49.928   104374,t,0,0,4
4:50.022   104408,),0,0,2
4:50.311   104512,(,0,0,1
4:50.350   104526,N,0,0,0
4:50.431   104555,),0,0,1
4:50.533   104592,(,0,0,2
4:50.611   104620,t,0,0,0
4:50.678   104644,),0,0,2
4:50.992   104757,(,0,0,1
4:51.028   104770,N,0,0,0
4:51.108   104799,),0,0,1
4:51.142   104811,(,0,0,2
4:51.206   104834,t,0,0,4
4:51.306   104870,t,0,0,4
4:51.353   104887,),0,0,2
4:51.692   105009,(,0,0,1
4:51.739   105026,N,0,0,0
4:51.825   105057,),0,0,1
4:51.950   105102,(,0,0,2
4:52.025   105129,t,0,0,0
4:52.094   105154,),0,0,2
4:52.425   105273,(,0,0,1
4:52.475   105291,N,0,0,0
4:52.544   105316,),0,0,1
4:52.683   105366,(,0,0,2
4:52.753   105391,t,0,0,0
4:52.844   105424,),0,0,2
4:53.172   105542,(,0,0,1
4:53.217   105558,N,0,0,0
4:53.306   105590,),0,0,1
4:53.422   105632,(,0,0,2
4:53.497   105659,t,0,0,0
4:53.583   105690,),0,0,2
4:53.892   105801,(,0,0,1
4:53.933   105816,N,0,0,0
4:54.025   105849,),0,0,1
4:54.133   105888,(,0,0,2
4:54.217   105918,t,0,0,0
4:54.325   105957,),0,0,2
4:54.622   106064,(,0,0,1
4:54.664   106079,N,0,0,0
4:54.761   106114,),0,0,1
4:54.867   106152,(,0,0,2
4:54.958   106185,t,0,0,0
4:55.067   106224,),0,0,2
4:55.339   106322,(,0,0,1
4:55.381   106337,N,0,0,0
4:55.464   106367,),0,0,1
4:55.564   106403,(,0,0,2
4:55.642   106431,t,0,0,5
4:55.697   106451,t,0,0,5
4:55.739   106466,),0,0,2
4:56.031   106571,(,0,0,1
4:56.075   106587,N,0,0,0
4:56.161   106618,),0,0,1
4:56.192   106629,(,0,0,2
4:56.247   106649,t,0,0,4
4:56.344   106684,t,0,0,4
4:56.433   106716,),0,0,2
4:56.728   106822,(,0,0,1
4:56.781   106841,N,0,0,0
4:56.858   106869,),0,0,1
4:56.972   106910,(,0,0,2
4:57.047   106937,t,0,0,0
4:57.142   106971,),0,0,2
4:57.428   107074,(,0,0,1
4:57.469   107089,N,0,0,0
4:57.558   107121,),0,0,1
4:57.667   107160,(,0,0,2
4:57.747   107189,t,0,0,0
4:57.814   107213,),0,0,2
4:58.128   107326,(,0,0,1
4:58.175   107343,N,0,0,0
4:58.258   107373,),0,0,1
4:58.372   107414,(,0,0,2
4:58.450   107442,t,0,0,0
4:58.547   107477,),0,0,2
4:58.844   107584,(,0,0,1
4:58.894   107602,N,0,0,0
4:58.992   107637,),0,0,1
4:59.100   107676,(,0,0,2
4:59.186   107707,t,0,0,0
4:59.306   107750,),0,0,2
4:59.606   107858,(,0,0,1
4:59.653   107875,N,0,0,0
4:59.742   107907,),0,0,1
4:59.864   107951,(,0,0,2
4:59.944   107980,t,0,0,0
4:59.997   107999,),0,0,2
5:00.022   108008,(,0,0,1
5:00.178   108064,N,0,0,0
5:00.242   108087,),0,0,1
5:00.269   108097,(,0,0,2
5:00.397   108143,t,0,0,0
5:00.547   108197,),0,0,2
5:01.044   108376,(,0,0,1
5:01.092   108393,N,0,0,0
5:01.175   108423,),0,0,1
5:01.269   108457,(,0,0,2
5:01.364   108491,t,0,0,0
5:01.481   108533,),0,0,2
5:01.744   108628,(,0,0,1
5:01.792   108645,N,0,0,0
5:01.872   108674,),0,0,1
5:01.981   108713,(,0,0,2
5:02.058   108741,t,0,0,0
5:02.136   108769,),0,0,2
5:02.442   108879,(,0,0,1
5:02.483   108894,N,0,0,0
5:02.564   108923,),0,0,1
5:02.672   108962,(,0,0,2
5:02.744   108988,t,0,0,0
5:02.850   109026,),0,0,2
5:03.119   109123,(,0,0,1
5:03.161   109138,N,0,0,0
5:03.239   109166,),0,0,1
5:03.361   109210,(,0,0,2
5:03.442   109239,t,0,0,0
5:03.542   109275,),0,0,2
5:03.828   109378,(,0,0,1
5:03.875   109395,N,0,0,0
5:03.958   109425,),0,0,1
5:04.081   109469,(,0,0,2
5:04.164   109499,t,0,0,0
5:04.264   109535,),0,0,2
5:04.561   109642,(,0,0,1
5:04.611   109660,N,0,0,0
5:04.694   109690,),0,0,1
5:04.817   109734,(,0,0,2
5:04.897   109763,t,0,0,0
5:04.975   109791,),0,0,2
5:05.306   109910,(,0,0,1
5:05.347   109925,N,0,0,0
5:05.442   109959,),0,0,1
5:05.542   109995,(,0,0,2
5:05.625   110025,t,0,0,0
5:05.736   110065,),0,0,2
5:06.025   110169,(,0,0,1
5:06.069   110185,N,0,0,0
5:06.158   110217,),0,0,1
5:06.272   110258,(,0,0,2
5:06.356   110288,t,0,0,0
5:06.450   110322,),0,0,2
5:06.758   110433,(,0,0,1
5:06.808   110451,N,0,0,0
5:06.908   110487,),0,0,1
5:07.025   110529,(,0,0,2
5:07.097   110555,t,0,0,0
5:07.183   110586,),0,0,2
5:07.494   110698,(,0,0,1
5:07.539   110714,N,0,0,0
5:07.608   110739,),0,0,1
5:07.725   110781,(,0,0,2
5:07.800   110808,t,0,0,0
5:07.903   110845,),0,0,2
5:08.186   110947,(,0,0,1
5:08.228   110962,N,0,0,0
5:08.308   110991,),0,0,1
5:08.422   111032,(,0,0,2
5:08.489   111056,t,0,0,0
5:08.553   111079,),0,0,2
5:08.858   111189,(,0,0,1
5:08.903   111205,N,0,0,0
5:08.992   111237,),0,0,1
5:09.103   111277,(,0,0,2
5:09.175   111303,t,0,0,0
5:09.264   111335,),0,0,2
5:09.556   111440,(,0,0,1
5:09.597   111455,N,0,0,0
5:09.686   111487,),0,0,1
5:09.800   111528,(,0,0,2
5:09.875   111555,t,0,0,0
5:09.947   111581,),0,0,2
5:10.250   111690,(,0,0,1
5:10.303   111709,N,0,0,0
5:10.375   111735,),0,0,1
5:10.422   111752,(,0,0,2
5:10.458   111765,t,0,0,4
5:10.586   111811,t,0,0,4
5:10.708   111855,),0,0,2
5:10.994   111958,(,0,0,1
5:11.042   111975,N,0,0,0
5:11.103   111997,),0,0,1
5:11.242   112047,(,0,0,2
5:11.322   112076,t,0,0,0
5:11.411   112108,),0,0,2
5:11.744   112228,(,0,0,1
5:11.794   112246,N,0,0,0
5:11.878   112276,),0,0,1
5:12.003   112321,(,0,0,2
5:12.075   112347,t,0,0,0
5:12.158   112377,),0,0,2
5:12.478   112492,(,0,0,1
5:12.517   112506,N,0,0,0
5:12.611   112540,),0,0,1
5:12.722   112580,(,0,0,2
5:12.800   112608,t,0,0,0
5:12.883   112638,),0,0,2
5:13.178   112744,(,0,0,1
5:13.225   112761,N,0,0,0
5:13.308   112791,),0,0,1
5:13.414   112829,(,0,0,2
5:13.492   112857,t,0,0,0
5:13.594   112894,),0,0,2
5:13.878   112996,(,0,0,1
5:13.922   113012,N,0,0,0
5:14.011   113044,),0,0,1
5:14.122   113084,(,0,0,2
5:14.197   113111,t,0,0,0
5:14.297   113147,),0,0,2
5:14.592   113253,(,0,0,1
5:14.633   113268,N,0,0,0
5:14.728   113302,),0,0,1
5:14.831   113339,(,0,0,2
5:14.903   113365,t,0,0,0
5:14.978   113392,),0,0,2
5:15.278   113500,(,0,0,1
5:15.325   113517,N,0,0,0
5:15.411   113548,),0,0,1
5:15.528   113590,(,0,0,2
5:15.603   113617,t,0,0,0
5:15.703   113653,),0,0,2
5:15.992   113757,(,0,0,1
5:16.033   113772,N,0,0,0
5:16.106   113798,),0,0,1
5:16.228   113842,(,0,0,2
5:16.303   113869,t,0,0,0
5:16.403   113905,),0,0,2
5:16.711   114016,(,0,0,1
5:16.756   114032,N,0,0,0
5:16.844   114064,),0,0,1
5:16.958   114105,(,0,0,2
5:17.039   114134,t,0,0,0
5:17.122   114164,),0,0,2
5:17.461   114286,(,0,0,1
5:17.508   114303,N,0,0,0
5:17.594   114334,),0,0,1
5:17.703   114373,(,0,0,2
5:17.778   114400,t,0,0,0
5:17.869   114433,),0,0,2
5:18.192   114549,(,0,0,1
5:18.239   114566,N,0,0,0
5:18.325   114597,),0,0,1
5:18.447   114641,(,0,0,2
5:18.522   114668,t,0,0,0
5:18.631   114707,),0,0,2
5:18.928   114814,(,0,0,1
5:18.975   114831,N,0,0,0
5:19.061   114862,),0,0,1
5:19.178   114904,(,0,0,2
5:19.258   114933,t,0,0,0
5:19.339   114962,),0,0,2
5:19.644   115072,(,0,0,1
5:19.686   115087,N,0,0,0
5:19.758   115113,),0,0,1
5:19.875   115155,(,0,0,2
5:19.950   115182,t,0,0,0
5:20.025   115209,),0,0,2
5:20.328   115318,(,0,0,1
5:20.378   115336,N,0,0,0
5:20.461   115366,),0,0,1
5:20.564   115403,(,0,0,2
5:20.639   115430,t,0,0,0
5:20.728   115462,),0,0,2
5:21.011   115564,(,0,0,1
5:21.058   115581,N,0,0,0
5:21.144   115612,),0,0,1
5:21.247   115649,(,0,0,2
5:21.328   115678,t,0,0,0
5:21.433   115716,),0,0,2
5:21.728   115822,(,0,0,1
5:21.767   115836,N,0,0,0
5:21.844   115864,),0,0,1
5:21.969   115909,(,0,0,2
5:22.053   115939,t,0,0,0
5:22.117   115962,),0,0,2
5:22.461   116086,(,0,0,1
5:22.508   116103,N,0,0,0
5:22.594   116134,),0,0,1
5:22.714   116177,(,0,0,2
5:22.794   116206,t,0,0,0
5:22.883   116238,),0,0,2
5:23.211   116356,(,0,0,1
5:23.258   116373,N,0,0,0
5:23.344   116404,),0,0,1
5:23.461   116446,(,0,0,2
5:23.536   116473,t,0,0,0
5:23.644   116512,),0,0,2
5:23.944   116620,(,0,0,1
5:23.992   116637,N,0,0,0
5:24.092   116673,),0,0,1
5:24.200   116712,(,0,0,2
5:24.272   116738,t,0,0,0
5:24.356   116768,),0,0,2
5:24.678   116884,(,0,0,1
5:24.719   116899,N,0,0,0
5:24.808   116931,),0,0,1
5:24.931   116975,(,0,0,2
5:25.003   117001,t,0,0,0
5:25.114   117041,),0,0,2
5:25.392   117141,(,0,0,1
5:25.433   117156,N,0,0,0
5:25.508   117183,),0,0,1
5:25.631   117227,(,0,0,2
5:25.708   117255,t,0,0,0
5:25.803   117289,),0,0,2
5:26.097   117395,(,0,0,1
5:26.142   117411,N,0,0,0
5:26.225   117441,),0,0,1
5:26.339   117482,(,0,0,2
5:26.411   117508,t,0,0,0
5:26.492   117537,),0,0,2
5:26.811   117652,(,0,0,1
5:26.850   117666,N,0,0,0
5:26.925   117693,),0,0,1
5:27.031   117731,(,0,0,2
5:27.122   117764,t,0,0,0
5:27.228   117802,),0,0,2
5:27.500   117900,(,0,0,1
5:27.542   117915,N,0,0,0
5:27.625   117945,),0,0,1
5:27.689   117968,(,0,0,2
5:27.728   117982,t,0,0,4
5:27.825   118017,t,0,0,4
5:27.956   118064,),0,0,2
5:28.211   118156,(,0,0,1
5:28.256   118172,N,0,0,0
5:28.325   118197,),0,0,1
5:29.706   118694,(,0,0,1
5:29.758   118713,N,0,0,0
5:29.858   118749,),0,0,1
5:29.953   118783,(,0,0,2
5:30.050   118818,t,0,0,0
5:30.147   118853,),0,0,2
5:30.458   118965,(,0,0,1
5:30.500   118980,N,0,0,0
5:30.592   119013,),0,0,1
5:30.611   119020,(,0,0,2
5:30.692   119049,t,0,0,4
5:30.789   119084,t,0,0,4
5:30.839   119102,),0,0,2
5:31.175   119223,(,0,0,1
5:31.211   119236,N,0,0,0
5:31.308   119271,),0,0,1
5:31.403   119305,(,0,0,2
5:31.483   119334,t,0,0,0
5:31.547   119357,),0,0,2
5:31.864   119471,(,0,0,1
5:31.903   119485,N,0,0,0
5:31.986   119515,),0,0,1
5:32.094   119554,(,0,0,2
5:32.167   119580,t,0,0,0
5:32.233   119604,),0,0,2
5:32.558   119721,(,0,0,1
5:32.600   119736,N,0,0,0
5:32.678   119764,),0,0,1
5:32.789   119804,(,0,0,2
5:32.861   119830,t,0,0,0
5:32.917   119850,),0,0,2
5:33.958   120225,(,0,0,1
5:34.006   120242,N,0,0,0
5:34.092   120273,),0,0,1
5:34.208   120315,(,0,0,2
5:34.294   120346,t,0,0,0
5:34.383   120378,),0,0,2
5:34.697   120491,(,0,0,1
5:34.739   120506,N,0,0,0
5:34.828   120538,),0,0,1
5:34.939   120578,(,0,0,2
5:35.033   120612,t,0,0,0
5:35.108   120639,),0,0,2
5:35.206   120674,(,0,0,0
5:35.231   120683,p,0,0,0
5:35.256   120692,),0,0,0
5:35.442   120759,(,0,0,1
5:35.486   120775,N,0,0,0
5:35.556   120800,),0,0,1
5:35.608   120819,(,0,0,2
5:35.650   120834,t,0,0,4
5:35.764   120875,t,0,0,4
5:35.836   120901,),0,0,2
5:36.158   121017,(,0,0,1
5:36.203   121033,N,0,0,0
5:36.292   121065,),0,0,1
5:36.408   121107,(,0,0,2
5:36.486   121135,t,0,0,0
5:36.558   121161,),0,0,2
5:36.894   121282,(,0,0,1
5:36.944   121300,N,0,0,0
5:37.025   121329,),0,0,1
5:37.083   121350,(,0,0,2
5:37.119   121363,t,0,0,4
5:37.231   121403,t,0,0,4
5:37.339   121442,),0,0,2
5:37.625   121545,(,0,0,1
5:37.661   121558,N,0,0,0
5:37.744   121588,),0,0,1
5:37.850   121626,(,0,0,2
5:37.931   121655,t,0,0,0
5:37.992   121677,),0,0,2
5:38.325   121797,(,0,0,1
5:38.364   121811,N,0,0,0
5:38.442   121839,),0,0,1
5:38.475   121851,(,0,0,2
5:38.506   121862,t,0,0,4
5:38.619   121903,t,0,0,4
5:38.719   121939,),0,0,2
5:38.994   122038,(,0,0,1
5:39.039   122054,N,0,0,0
5:39.128   122086,),0,0,1
5:39.233   122124,(,0,0,2
5:39.311   122152,t,0,0,0
5:39.361   122170,),0,0,2
5:39.703   122293,(,0,0,1
5:39.747   122309,N,0,0,0
5:39.842   122343,),0,0,1
5:39.950   122382,(,0,0,2
5:40.028   122410,t,0,0,0
5:40.136   122449,),0,0,2
5:40.414   122549,(,0,0,1
5:40.464   122567,N,0,0,0
5:40.539   122594,),0,0,1
5:40.675   122643,(,0,0,2
5:40.753   122671,t,0,0,0
5:40.853   122707,),0,0,2
5:41.167   122820,(,0,0,1
5:41.214   122837,N,0,0,0
5:41.308   122871,),0,0,1
5:41.422   122912,(,0,0,2
5:41.506   122942,t,0,0,0
5:41.614   122981,),0,0,2
5:41.928   123094,(,0,0,1
5:41.975   123111,N,0,0,0
5:42.078   123148,),0,0,1
5:42.178   123184,(,0,0,2
5:42.258   123213,t,0,0,0
5:42.369   123253,),0,0,2
5:42.672   123362,(,0,0,1
5:42.711   123376,N,0,0,0
5:42.811   123412,),0,0,1
5:42.903   123445,(,0,0,2
5:42.986   123475,t,0,0,0
5:43.122   123524,),0,0,2
5:43.361   123610,(,0,0,1
5:43.408   123627,N,0,0,0
5:43.492   123657,),0,0,1
5:43.531   123671,(,0,0,2
5:43.625   123705,t,0,0,0
5:43.725   123741,),0,0,2
5:44.069   123865,(,0,0,1
5:44.106   123878,N,0,0,0
5:44.189   123908,),0,0,1
5:44.231   123923,(,0,0,2
5:44.275   123939,t,0,0,4
5:44.386   123979,t,0,0,4
5:44.489   124016,),0,0,2
5:44.789   124124,(,0,0,1
5:44.831   124139,N,0,0,0
5:44.928   124174,),0,0,1
5:45.014   124205,(,0,0,2
5:45.094   124234,t,0,0,0
5:45.181   124265,),0,0,2
5:45.478   124372,(,0,0,1
5:45.528   124390,N,0,0,0
5:45.606   124418,),0,0,1
5:45.647   124433,(,0,0,2
5:45.686   124447,t,0,0,4
5:45.800   124488,t,0,0,4
5:45.878   124516,),0,0,2
5:46.194   124630,(,0,0,1
5:46.231   124643,N,0,0,0
5:46.306   124670,),0,0,1
5:46.431   124715,(,0,0,2
5:46.514   124745,t,0,0,0
5:46.572   124766,),0,0,2
5:47.686   125167,(,0,0,1
5:47.725   125181,N,0,0,0
5:47.811   125212,),0,0,1
5:47.919   125251,(,0,0,2
5:47.997   125279,t,0,0,0
5:48.114   125321,),0,0,2
5:49.161   125698,(,0,0,1
5:49.206   125714,N,0,0,0
5:49.294   125746,),0,0,1
5:49.414   125789,(,0,0,2
5:49.486   125815,t,0,0,0
5:49.592   125853,),0,0,2
5:49.875   125955,(,0,0,1
5:49.911   125968,N,0,0,0
5:49.992   125997,),0,0,1
5:50.103   126037,(,0,0,2
5:50.181   126065,t,0,0,0
5:50.231   126083,),0,0,2
5:50.256   126092,(,0,0,1
5:50.411   126148,N,0,0,0
5:50.464   126167,),0,0,1
5:50.494   126178,(,0,0,2
5:50.631   126227,t,0,0,0
5:50.761   126274,),0,0,2
5:51.256   126452,(,0,0,1
5:51.292   126465,N,0,0,0
5:51.392   126501,),0,0,1
5:51.481   126533,(,0,0,2
5:51.578   126568,t,0,0,0
5:51.700   126612,),0,0,2
5:51.992   126717,(,0,0,1
5:52.036   126733,N,0,0,0
5:52.128   126766,),0,0,1
5:52.253   126811,(,0,0,2
5:52.325   126837,t,0,0,0
5:52.403   126865,),0,0,2
5:52.739   126986,(,0,0,1
5:52.775   126999,N,0,0,0
5:52.858   127029,),0,0,1
5:52.989   127076,(,0,0,2
5:53.067   127104,t,0,0,0
5:53.147   127133,),0,0,2
5:53.489   127256,(,0,0,1
5:53.522   127268,N,0,0,0
5:53.608   127299,),0,0,1
5:53.642   127311,(,0,0,2
5:53.678   127324,t,0,0,4
5:53.797   127367,t,0,0,4
5:53.886   127399,),0,0,2
5:54.219   127519,(,0,0,1
5:54.264   127535,N,0,0,0
5:54.347   127565,),0,0,1
5:54.464   127607,(,0,0,2
5:54.536   127633,t,0,0,0
5:54.608   127659,),0,0,2
5:54.944   127780,(,0,0,1
5:54.992   127797,N,0,0,0
5:55.106   127838,),0,0,1
5:55.189   127868,(,0,0,2
5:55.264   127895,t,0,0,0
5:55.344   127924,),0,0,2
5:55.647   128033,(,0,0,1
5:55.694   128050,N,0,0,0
5:55.792   128085,),0,0,1
5:55.897   128123,(,0,0,2
5:55.978   128152,t,0,0,0
5:56.067   128184,),0,0,2
5:56.361   128290,(,0,0,1
5:56.411   128308,N,0,0,0
5:56.494   128338,),0,0,1
5:56.611   128380,(,0,0,2
5:56.686   128407,t,0,0,0
5:56.783   128442,),0,0,2
5:57.089   128552,(,0,0,1
5:57.122   128564,N,0,0,0
5:57.208   128595,),0,0,1
5:57.306   128630,(,0,0,2
5:57.389   128660,t,0,0,0
5:57.481   128693,),0,0,2
5:57.792   128805,(,0,0,1
5:57.828   128818,N,0,0,0
5:57.908   128847,),0,0,1
5:58.031   128891,(,0,0,2
5:58.106   128918,t,0,0,0
5:58.208   128955,),0,0,2
5:58.508   129063,(,0,0,1
5:58.550   129078,N,0,0,0
5:58.642   129111,),0,0,1
5:58.758   129153,(,0,0,2
5:58.836   129181,t,0,0,0
5:58.950   129222,),0,0,2
5:59.261   129334,(,0,0,1
5:59.306   129350,N,0,0,0
5:59.392   129381,),0,0,1
5:59.519   129427,(,0,0,2
5:59.600   129456,t,0,0,0
5:59.711   129496,),0,0,2
6:00.025   129609,(,0,0,1
6:00.069   129625,N,0,0,0
6:00.161   129658,),0,0,1
6:00.267   129696,(,0,0,2
6:00.347   129725,t,0,0,0
6:00.458   129765,),0,0,2
6:00.758   129873,(,0,0,1
6:00.806   129890,N,0,0,0
6:00.894   129922,),0,0,1
6:01.000   129960,(,0,0,2
6:01.081   129989,t,0,0,0
6:01.139   130010,),0,0,2
6:01.461   130126,(,0,0,1
6:01.506   130142,N,0,0,0
6:01.592   130173,),0,0,1
6:01.700   130212,(,0,0,2
6:01.769   130237,t,0,0,0
6:01.850   130266,),0,0,2
6:02.147   130373,(,0,0,1
6:02.197   130391,N,0,0,0
6:02.292   130425,),0,0,1
6:02.392   130461,(,0,0,2
6:02.472   130490,t,0,0,0
6:02.567   130524,),0,0,2
6:02.858   130629,(,0,0,1
6:02.897   130643,N,0,0,0
6:02.978   130672,),0,0,1
6:03.011   130684,(,0,0,2
6:03.044   130696,t,0,0,4
6:03.164   130739,t,0,0,4
6:03.236   130765,),0,0,2
6:03.561   130882,(,0,0,1
6:03.608   130899,N,0,0,0
6:03.708   130935,),0,0,1
6:03.800   130968,(,0,0,2
6:03.883   130998,t,0,0,0
6:03.956   131024,),0,0,2
6:04.292   131145,(,0,0,1
6:04.333   131160,N,0,0,0
6:04.408   131187,),0,0,1
6:04.533   131232,(,0,0,2
6:04.617   131262,t,0,0,0
6:04.681   131285,),0,0,2
6:05.019   131407,(,0,0,1
6:05.064   131423,N,0,0,0
6:05.158   131457,),0,0,1
6:05.269   131497,(,0,0,2
6:05.356   131528,t,0,0,0
6:05.425   131553,),0,0,2
6:05.761   131674,(,0,0,1
6:05.806   131690,N,0,0,0
6:05.892   131721,),0,0,1
6:06.000   131760,(,0,0,2
6:06.086   131791,t,0,0,0
6:06.150   131814,),0,0,2
6:07.228   132202,(,0,0,1
6:07.272   132218,N,0,0,0
6:07.339   132242,),0,0,1
6:07.478   132292,(,0,0,2
6:07.553   132319,t,0,0,0
6:07.633   132348,),0,0,2
6:07.925   132453,(,0,0,1
6:07.967   132468,N,0,0,0
6:08.022   132488,),0,0,1
6:08.167   132540,(,0,0,2
6:08.244   132568,t,0,0,0
6:08.331   132599,),0,0,2
6:08.617   132702,(,0,0,1
6:08.658   132717,N,0,0,0
6:08.725   132741,),0,0,1
6:08.839   132782,(,0,0,2
6:08.919   132811,t,0,0,0
6:08.972   132830,),0,0,2
6:09.292   132945,(,0,0,1
6:09.342   132963,N,0,0,0
6:09.425   132993,),0,0,1
6:09.536   133033,(,0,0,2
6:09.617   133062,t,0,0,0
6:09.686   133087,),0,0,2
6:10.011   133204,(,0,0,1
6:10.061   133222,N,0,0,0
6:10.142   133251,),0,0,1
6:10.261   133294,(,0,0,2
6:10.336   133321,t,0,0,0
6:10.442   133359,),0,0,2
6:10.742   133467,(,0,0,1
6:10.789   133484,N,0,0,0
6:10.875   133515,),0,0,1
6:11.000   133560,(,0,0,2
6:11.083   133590,t,0,0,0
6:11.172   133622,),0,0,2
6:11.494   133738,(,0,0,1
6:11.547   133757,N,0,0,0
6:11.644   133792,),0,0,1
6:11.756   133832,(,0,0,2
6:11.831   133859,t,0,0,0
6:11.950   133902,),0,0,2
6:12.247   134009,(,0,0,1
6:12.292   134025,N,0,0,0
6:12.375   134055,),0,0,1
6:12.492   134097,(,0,0,2
6:12.572   134126,t,0,0,0
6:12.631   134147,),0,0,2
6:12.978   134272,(,0,0,1
6:13.019   134287,N,0,0,0
6:13.108   134319,),0,0,1
6:13.214   134357,(,0,0,2
6:13.292   134385,t,0,0,0
6:13.367   134412,),0,0,2
6:13.661   134518,(,0,0,1
6:13.706   134534,N,0,0,0
6:13.794   134566,),0,0,1
6:13.897   134603,(,0,0,2
6:13.975   134631,t,0,0,0
6:14.072   134666,),0,0,2
6:14.367   134772,(,0,0,1
6:14.411   134788,N,0,0,0
6:14.494   134818,),0,0,1
6:14.606   134858,(,0,0,2
6:14.689   134888,t,0,0,0
6:14.806   134930,),0,0,2
6:15.089   135032,(,0,0,1
6:15.128   135046,N,0,0,0
6:15.208   135075,),0,0,1
6:15.319   135115,(,0,0,2
6:15.397   135143,t,0,0,0
6:15.469   135169,),0,0,2
6:15.797   135287,(,0,0,1
6:15.839   135302,N,0,0,0
6:15.942   135339,),0,0,1
6:16.033   135372,(,0,0,2
6:16.111   135400,t,0,0,0
6:16.219   135439,),0,0,2
6:16.508   135543,(,0,0,1
6:16.547   135557,N,0,0,0
6:16.625   135585,),0,0,1
6:16.756   135632,(,0,0,2
6:16.836   135661,t,0,0,0
6:16.936   135697,),0,0,2
6:17.994   136078,(,0,0,1
6:18.039   136094,N,0,0,0
6:18.142   136131,),0,0,1
6:18.244   136168,(,0,0,2
6:18.322   136196,t,0,0,0
6:18.386   136219,),0,0,2
6:18.742   136347,(,0,0,1
6:18.786   136363,N,0,0,0
6:18.875   136395,),0,0,1
6:18.981   136433,(,0,0,2
6:19.064   136463,t,0,0,0
6:19.167   136500,),0,0,2
6:19.472   136610,(,0,0,1
6:19.514   136625,N,0,0,0
6:19.594   136654,),0,0,1
6:19.706   136694,(,0,0,2
6:19.781   136721,t,0,0,0
6:19.853   136747,),0,0,2
6:20.164   136859,(,0,0,1
6:20.214   136877,N,0,0,0
6:20.294   136906,),0,0,1
6:20.406   136946,(,0,0,2
6:20.481   136973,t,0,0,0
6:20.592   137013,),0,0,2
6:20.858   137109,(,0,0,1
6:20.903   137125,N,0,0,0
6:20.981   137153,),0,0,1
6:21.086   137191,(,0,0,2
6:21.225   137241,t,0,0,0
6:21.331   137279,),0,0,2
6:21.564   137363,(,0,0,1
6:21.606   137378,N,0,0,0
6:21.694   137410,),0,0,1
6:21.797   137447,(,0,0,2
6:21.883   137478,t,0,0,0
6:21.989   137516,),0,0,2
6:22.308   137631,(,0,0,1
6:22.358   137649,N,0,0,0
6:22.450   137682,),0,0,1
6:22.556   137720,(,0,0,2
6:22.639   137750,t,0,0,0
6:22.758   137793,),0,0,2
6:23.792   138165,(,0,0,1
6:23.842   138183,N,0,0,0
6:23.925   138213,),0,0,1
6:24.036   138253,(,0,0,2
6:24.119   138283,t,0,0,0
6:24.217   138318,),0,0,2
6:24.528   138430,(,0,0,1
6:24.575   138447,N,0,0,0
6:24.661   138478,),0,0,1
6:24.783   138522,(,0,0,2
6:24.856   138548,t,0,0,0
6:24.967   138588,),0,0,2
6:25.258   138693,(,0,0,1
6:25.308   138711,N,0,0,0
6:25.392   138741,),0,0,1
6:25.492   138777,(,0,0,2
6:25.567   138804,t,0,0,0
6:25.672   138842,),0,0,2
6:26.675   139203,(,0,0,1
6:26.717   139218,N,0,0,0
6:26.792   139245,),0,0,1
6:26.917   139290,(,0,0,2
6:26.994   139318,t,0,0,0
6:27.092   139353,),0,0,2
6:27.381   139457,(,0,0,1
6:27.422   139472,N,0,0,0
6:27.508   139503,),0,0,1
6:27.614   139541,(,0,0,2
6:27.694   139570,t,0,0,0
6:27.769   139597,),0,0,2
6:28.092   139713,(,0,0,1
6:28.133   139728,N,0,0,0
6:28.203   139753,),0,0,1
6:28.328   139798,(,0,0,2
6:28.408   139827,t,0,0,0
6:28.500   139860,),0,0,2
6:28.822   139976,(,0,0,1
6:28.869   139993,N,0,0,0
6:28.958   140025,),0,0,1
6:29.067   140064,(,0,0,2
6:29.156   140096,t,0,0,0
6:29.206   140114,),0,0,2
6:29.597   140255,(,0,0,1
6:29.644   140272,N,0,0,0
6:29.742   140307,),0,0,1
6:29.853   140347,(,0,0,2
6:29.939   140378,t,0,0,0
6:30.022   140408,),0,0,2
6:30.358   140529,(,0,0,1
6:30.397   140543,N,0,0,0
6:30.492   140577,),0,0,1
6:30.597   140615,(,0,0,2
6:30.678   140644,t,0,0,0
6:30.739   140666,),0,0,2
6:31.089   140792,(,0,0,1
6:31.128   140806,N,0,0,0
6:31.211   140836,),0,0,1
6:31.317   140874,(,0,0,2
6:31.392   140901,t,0,0,0
6:31.500   140940,),0,0,2
6:31.789   141044,(,0,0,1
6:31.831   141059,N,0,0,0
6:31.908   141087,),0,0,1
6:32.017   141126,(,0,0,2
6:32.092   141153,t,0,0,0
6:32.175   141183,),0,0,2
6:32.475   141291,(,0,0,1
6:32.522   141308,N,0,0,0
6:32.608   141339,),0,0,1
6:32.719   141379,(,0,0,2
6:32.794   141406,t,0,0,0
6:32.872   141434,),0,0,2
6:33.175   141543,(,0,0,1
6:33.217   141558,N,0,0,0
6:33.308   141591,),0,0,1
6:33.417   141630,(,0,0,2
6:33.494   141658,t,0,0,0
6:33.606   141698,),0,0,2
6:33.906   141806,(,0,0,1
6:33.950   141822,N,0,0,0
6:34.025   141849,),0,0,1
6:34.153   141895,(,0,0,2
6:34.236   141925,t,0,0,0
6:34.344   141964,),0,0,2
6:34.656   142076,(,0,0,1
6:34.700   142092,N,0,0,0
6:34.775   142119,),0,0,1
6:34.903   142165,(,0,0,2
6:34.975   142191,t,0,0,0
6:35.072   142226,),0,0,2
6:35.392   142341,(,0,0,1
6:35.442   142359,N,0,0,0
6:35.536   142393,),0,0,1
6:35.642   142431,(,0,0,2
6:35.725   142461,t,0,0,0
6:35.806   142490,),0,0,2
6:36.125   142605,(,0,0,1
6:36.172   142622,N,0,0,0
6:36.272   142658,),0,0,1
6:36.375   142695,(,0,0,2
6:36.458   142725,t,0,0,0
6:36.564   142763,),0,0,2
6:36.881   142877,(,0,0,1
6:36.925   142893,N,0,0,0
6:37.008   142923,),0,0,1
6:37.122   142964,(,0,0,2
6:37.200   142992,t,0,0,0
6:37.300   143028,),0,0,2
6:37.608   143139,(,0,0,1
6:37.650   143154,N,0,0,0
6:37.719   143179,),0,0,1
6:37.839   143222,(,0,0,2
6:37.917   143250,t,0,0,0
6:37.969   143269,),0,0,2
6:38.308   143391,(,0,0,1
6:38.356   143408,N,0,0,0
6:38.439   143438,),0,0,1
6:38.544   143476,(,0,0,2
6:38.619   143503,t,0,0,0
6:38.722   143540,),0,0,2
6:39.006   143642,(,0,0,1
6:39.044   143656,N,0,0,0
6:39.122   143684,),0,0,1
6:39.236   143725,(,0,0,2
6:39.319   143755,t,0,0,0
6:39.392   143781,),0,0,2
6:39.708   143895,(,0,0,1
6:39.750   143910,N,0,0,0
6:39.839   143942,),0,0,1
6:39.953   143983,(,0,0,2
6:40.031   144011,t,0,0,0
6:40.142   144051,),0,0,2
6:40.447   144161,(,0,0,1
6:40.483   144174,N,0,0,0
6:40.575   144207,),0,0,1
6:40.681   144245,(,0,0,2
6:40.764   144275,t,0,0,0
6:40.872   144314,),0,0,2
6:41.206   144434,(,0,0,1
6:41.244   144448,N,0,0,0
6:41.336   144481,),0,0,1
6:41.444   144520,(,0,0,2
6:41.528   144550,t,0,0,0
6:41.667   144600,),0,0,2
6:41.958   144705,(,0,0,1
6:42.003   144721,N,0,0,0
6:42.092   144753,),0,0,1
6:42.214   144797,(,0,0,2
6:42.286   144823,t,0,0,0
6:42.358   144849,),0,0,2
6:42.692   144969,(,0,0,1
6:42.736   144985,N,0,0,0
6:42.822   145016,),0,0,1
6:42.931   145055,(,0,0,2
6:43.014   145085,t,0,0,0
6:43.131   145127,),0,0,2
6:43.408   145227,(,0,0,1
6:43.456   145244,N,0,0,0
6:43.539   145274,),0,0,1
6:43.642   145311,(,0,0,2
6:43.714   145337,t,0,0,0
6:43.789   145364,),0,0,2
6:44.111   145480,(,0,0,1
6:44.153   145495,N,0,0,0
6:44.239   145526,),0,0,1
6:44.347   145565,(,0,0,2
6:44.419   145591,t,0,0,0
6:44.519   145627,),0,0,2
6:44.822   145736,(,0,0,1
6:44.867   145752,N,0,0,0
6:44.956   145784,),0,0,1
6:45.064   145823,(,0,0,2
6:45.139   145850,t,0,0,0
6:45.214   145877,),0,0,2
6:45.528   145990,(,0,0,1
6:45.575   146007,N,0,0,0
6:45.658   146037,),0,0,1
6:45.767   146076,(,0,0,2
6:45.850   146106,t,0,0,0
6:45.950   146142,),0,0,2
6:46.253   146251,(,0,0,1
6:46.294   146266,N,0,0,0
6:46.389   146300,),0,0,1
6:46.486   146335,(,0,0,2
6:46.564   146363,t,0,0,0
6:46.667   146400,),0,0,2
6:46.983   146514,(,0,0,1
6:47.028   146530,N,0,0,0
6:47.122   146564,),0,0,1
6:47.167   146580,(,0,0,2
6:47.203   146593,t,0,0,4
6:47.306   146630,t,0,0,4
6:47.406   146666,),0,0,2
6:47.733   146784,(,0,0,1
6:47.778   146800,N,0,0,0
6:47.875   146835,),0,0,1
6:47.911   146848,(,0,0,2
6:47.950   146862,t,0,0,1
6:48.053   146899,),0,0,2
6:48.122   146924,(,0,0,1
6:48.186   146947,N,0,0,0
6:48.239   146966,),0,0,1
6:48.294   146986,t,0,0,2
6:48.339   147002,),0,0,2
6:49.908   147567,(,0,0,1
6:49.950   147582,N,0,0,0
6:50.039   147614,),0,0,1
6:50.136   147649,(,0,0,2
6:50.217   147678,t,0,0,0
6:50.314   147713,),0,0,2
6:50.608   147819,(,0,0,1
6:50.647   147833,N,0,0,0
6:50.722   147860,),0,0,1
6:50.836   147901,(,0,0,2
6:50.919   147931,t,0,0,0
6:50.961   147946,),0,0,2
6:51.294   148066,(,0,0,1
6:51.336   148081,N,0,0,0
6:51.422   148112,),0,0,1
6:51.539   148154,(,0,0,2
6:51.617   148182,t,0,0,0
6:51.700   148212,),0,0,2
6:52.764   148595,(,0,0,1
6:52.808   148611,N,0,0,0
6:52.906   148646,),0,0,1
6:53.011   148684,(,0,0,2
6:53.094   148714,t,0,0,0
6:53.192   148749,),0,0,2
6:53.522   148868,(,0,0,1
6:53.564   148883,N,0,0,0
6:53.636   148909,),0,0,1
6:53.697   148931,(,0,0,2
6:53.731   148943,t,0,0,4
6:53.839   148982,t,0,0,4
6:53.933   149016,),0,0,2
6:54.958   149385,(,0,0,1
6:55.000   149400,N,0,0,0
6:55.092   149433,),0,0,1
6:55.200   149472,(,0,0,2
6:55.281   149501,t,0,0,0
6:55.381   149537,),0,0,2
6:55.658   149637,(,0,0,1
6:55.700   149652,N,0,0,0
6:55.789   149684,),0,0,1
6:55.892   149721,(,0,0,2
6:55.969   149749,t,0,0,0
6:56.067   149784,),0,0,2
6:56.358   149889,(,0,0,1
6:56.400   149904,N,0,0,0
6:56.475   149931,),0,0,1
6:56.594   149974,(,0,0,2
6:56.667   150000,t,0,0,0
6:56.764   150035,),0,0,2
6:57.072   150146,(,0,0,1
6:57.111   150160,N,0,0,0
6:57.189   150188,),0,0,1
6:57.300   150228,(,0,0,2
6:57.375   150255,t,0,0,0
6:57.469   150289,),0,0,2
7:01.411   151708,(,0,0,1
7:01.450   151722,N,0,0,0
7:01.539   151754,),0,0,1
7:01.636   151789,(,0,0,2
7:01.717   151818,t,0,0,0
7:01.825   151857,),0,0,2
7:02.103   151957,(,0,0,1
7:02.142   151971,N,0,0,0
7:02.222   152000,),0,0,1
7:02.328   152038,(,0,0,2
7:02.406   152066,t,0,0,0
7:02.517   152106,),0,0,2
7:02.794   152206,(,0,0,1
7:02.839   152222,N,0,0,0
7:02.925   152253,),0,0,1
7:03.022   152288,(,0,0,2
7:03.100   152316,t,0,0,0
7:03.183   152346,),0,0,2
7:03.489   152456,(,0,0,1
7:03.536   152473,N,0,0,0
7:03.622   152504,),0,0,1
7:03.731   152543,(,0,0,2
7:03.808   152571,t,0,0,0
7:03.897   152603,),0,0,2
7:05.692   153249,(,0,0,1
7:05.742   153267,N,0,0,0
7:05.822   153296,),0,0,1
7:05.936   153337,(,0,0,2
7:06.017   153366,t,0,0,0
7:06.089   153392,),0,0,2
7:07.875   154035,(,0,0,1
7:07.919   154051,N,0,0,0
7:08.008   154083,),0,0,1
7:08.111   154120,(,0,0,2
7:08.186   154147,t,0,0,0
7:08.292   154185,),0,0,2
7:08.575   154287,(,0,0,1
7:08.622   154304,N,0,0,0
7:08.708   154335,),0,0,1
7:08.803   154369,(,0,0,2
7:08.881   154397,t,0,0,0
7:08.986   154435,),0,0,2
7:09.275   154539,(,0,0,1
7:09.319   154555,N,0,0,0
7:09.406   154586,),0,0,1
7:09.514   154625,(,0,0,2
7:09.586   154651,t,0,0,0
7:09.667   154680,),0,0,2
7:10.717   155058,(,0,0,1
7:10.772   155078,N,0,0,0
7:10.858   155109,),0,0,1
7:10.978   155152,(,0,0,2
7:11.061   155182,t,0,0,0
7:11.175   155223,),0,0,2
7:12.258   155613,(,0,0,1
7:12.297   155627,N,0,0,0
7:12.378   155656,),0,0,1
7:12.494   155698,(,0,0,2
7:12.567   155724,t,0,0,0
7:12.636   155749,),0,0,2
7:12.972   155870,(,0,0,1
7:13.014   155885,N,0,0,0
7:13.089   155912,),0,0,1
7:13.211   155956,(,0,0,2
7:13.283   155982,t,0,0,0
7:13.356   156008,),0,0,2
7:13.672   156122,(,0,0,1
7:13.708   156135,N,0,0,0
7:13.806   156170,),0,0,1
7:13.897   156203,(,0,0,2
7:13.975   156231,t,0,0,0
7:14.028   156250,),0,0,2
7:14.372   156374,(,0,0,1
7:14.411   156388,N,0,0,0
7:14.506   156422,),0,0,1
7:14.606   156458,(,0,0,2
7:14.686   156487,t,0,0,0
7:14.778   156520,),0,0,2
7:15.508   156783,(,0,0,1
7:15.564   156803,N,0,0,0
7:15.617   156822,),0,0,1
7:15.711   156856,(,0,0,2
7:15.736   156865,t,0,0,4
7:15.889   156920,t,0,0,4
7:15.925   156933,),0,0,2
7:34.833   163740,(,0,0,1
7:34.883   163758,N,0,0,0
7:34.936   163777,),0,0,1
7:34.997   163799,(,0,0,2
7:35.222   163880,t,0,0,0
7:35.400   163944,),0,0,2
7:40.631   165827,(,0,0,1
7:40.681   165845,N,0,0,0
7:40.742   165867,),0,0,1
7:40.811   165892,(,0,0,2
7:40.850   165906,t,0,0,1
7:40.981   165953,),0,0,2
8:03.106   173918,(,0,0,1
8:03.178   173944,N,0,0,0
8:03.203   173953,),0,0,1
8:03.269   173977,(,0,0,2
8:03.400   174024,t,0,0,0
8:03.483   174054,),0,0,2
9:11.750   198630,(,0,0,0
9:11.800   198648,p,0,0,0
9:11.842   198663,),0,0,0
9:11.917   198690,(,0,0,1
9:11.953   198703,N,0,0,0
9:12.008   198723,),0,0,1
9:12.153   198775,(,0,0,2
9:12.253   198811,t,0,0,0
9:12.364   198851,),0,0,2
9:12.678   198964,(,0,0,1
9:12.703   198973,N,0,0,0
9:12.753   198991,),0,0,1
9:12.897   199043,(,0,0,2
9:12.972   199070,t,0,0,0
9:13.036   199093,),0,0,2
9:13.378   199216,(,0,0,1
9:13.408   199227,N,0,0,0
9:13.469   199249,),0,0,1
9:13.594   199294,(,0,0,2
9:13.672   199322,t,0,0,0
9:13.747   199349,),0,0,2
9:14.069   199465,(,0,0,1
9:14.097   199475,N,0,0,0
9:14.158   199497,),0,0,1
9:14.200   199512,(,0,0,2
9:14.253   199531,t,0,0,4
9:14.419   199591,t,0,0,4
9:14.483   199614,),0,0,2
9:14.511   199624,(,0,0,0
9:14.522   199628,p,0,0,0
9:14.650   199674,),0,0,0
9:14.769   199717,(,0,0,1
9:14.803   199729,N,0,0,0
9:14.889   199760,),0,0,1
9:14.944   199780,(,0,0,2
9:14.967   199788,t,0,0,4
9:15.078   199828,t,0,0,4
9:15.181   199865,),0,0,2
9:15.239   199886,(,0,0,0
9:15.272   199898,p,0,0,0
9:15.367   199932,),0,0,0
9:15.486   199975,(,0,0,1
9:15.514   199985,N,0,0,0
9:15.586   200011,),0,0,1
9:16.189   200228,(,0,0,2
9:16.228   200242,t,0,0,0
9:16.289   200264,),0,0,2
9:16.667   200400,(,0,0,1
9:16.706   200414,N,0,0,0
9:16.836   200461,),0,0,1
9:16.908   200487,(,0,0,2
9:16.950   200502,t,0,0,0
9:17.008   200523,),0,0,2
9:17.503   200701,(,0,0,0
9:17.528   200710,p,0,0,0
9:17.564   200723,),0,0,0
9:17.642   200751,(,0,0,1
9:17.678   200764,N,0,0,0
9:17.736   200785,),0,0,1
9:18.372   201014,(,0,0,2
9:18.411   201028,t,0,0,0
9:18.475   201051,),0,0,2
9:19.639   201470,(,0,0,0
9:19.694   201490,p,0,0,0
9:19.733   201504,),0,0,0
9:19.806   201530,(,0,0,1
9:19.842   201543,N,0,0,0
9:19.900   201564,),0,0,1
9:20.036   201613,(,0,0,2
9:20.114   201641,t,0,0,0
9:20.214   201677,),0,0,2
9:20.331   201719,(,0,0,0
9:20.381   201737,p,0,0,0
9:20.419   201751,),0,0,0
9:20.489   201776,(,0,0,1
9:20.525   201789,N,0,0,0
9:20.581   201809,),0,0,1
9:21.181   202025,(,0,0,2
9:21.217   202038,t,0,0,0
9:21.278   202060,),0,0,2
9:29.672   205082,(,0,0,0
9:29.719   205099,p,0,0,0
9:29.764   205115,),0,0,0
9:29.842   205143,(,0,0,1
9:29.881   205157,N,0,0,0
9:29.939   205178,),0,0,1
9:30.600   205416,(,0,0,2
9:30.639   205430,t,0,0,0
9:30.697   205451,),0,0,2
9:31.169   205621,(,0,0,0
9:31.219   205639,p,0,0,0
9:31.261   205654,),0,0,0
9:31.331   205679,(,0,0,1
9:31.361   205690,N,0,0,0
9:31.417   205710,),0,0,1
9:32.000   205920,(,0,0,2
9:32.039   205934,t,0,0,0
9:32.100   205956,),0,0,2
9:42.764   209795,(,0,0,0
9:42.814   209813,p,0,0,0
9:42.853   209827,),0,0,0
9:42.933   209856,(,0,0,1
9:42.964   209867,N,0,0,0
9:43.019   209887,),0,0,1
9:43.639   210110,(,0,0,2
9:43.675   210123,t,0,0,0
9:43.733   210144,),0,0,2
9:44.172   210302,(,0,0,0
9:44.222   210320,p,0,0,0
9:44.261   210334,),0,0,0
9:44.331   210359,(,0,0,1
9:44.364   210371,N,0,0,0
9:44.447   210401,),0,0,1
9:44.511   210424,(,0,0,2
9:44.636   210469,t,0,0,0
9:44.686   210487,),0,0,2
9:45.067   210624,(,0,0,1
9:45.092   210633,N,0,0,0
9:45.139   210650,),0,0,1
9:45.247   210689,(,0,0,2
9:45.267   210696,t,0,0,4
9:45.369   210733,t,0,0,4
9:45.453   210763,),0,0,2
9:45.772   210878,(,0,0,1
9:45.808   210891,N,0,0,0
9:45.939   210938,),0,0,1
9:46.503   211141,(,0,0,2
9:46.544   211156,t,0,0,0
9:46.603   211177,),0,0,2
   10:26.561   225562,(,0,0,1
   10:26.603   225577,N,0,0,0
   10:26.658   225597,),0,0,1
   10:26.800   225648,(,0,0,2
   10:26.867   225672,t,0,0,0
   10:27.008   225723,),0,0,2
   10:27.253   225811,(,0,0,1
   10:27.325   225837,N,0,0,0
   10:27.486   225895,),0,0,1
   10:27.597   225935,(,0,0,2
   10:27.639   225950,t,0,0,1
   10:27.744   225988,),0,0,2
   10:27.903   226045,(,0,0,0
   10:27.942   226059,p,0,0,0
   10:27.983   226074,),0,0,0
   10:28.003   226081,(,0,0,1
   10:28.042   226095,N,0,0,0
   10:28.100   226116,),0,0,1
   10:28.739   226346,(,0,0,2
   10:28.778   226360,t,0,0,0
   10:28.836   226381,),0,0,2
   10:29.067   226464,(,0,0,1
   10:29.131   226487,N,0,0,0
   10:29.189   226508,),0,0,1
   10:29.419   226591,),0,0,2
   10:29.447   226601,t,0,0,0
   10:29.475   226611,(,0,0,2
   10:29.486   226615,(,0,0,0
   10:29.522   226628,p,0,0,0
   10:29.564   226643,),0,0,0
   10:29.653   226675,(,0,0,1
   10:29.747   226709,N,0,0,0
   10:29.942   226779,),0,0,1
   10:29.994   226798,(,0,0,2
   10:30.017   226806,t,0,0,1
   10:30.031   226811,),0,0,2
   10:30.236   226885,(,0,0,1
   10:30.286   226903,N,0,0,0
   10:30.400   226944,),0,0,1
   10:30.458   226965,(,0,0,2
   10:30.644   227032,t,0,0,0
   10:30.797   227087,),0,0,2
   10:30.997   227159,(,0,0,1
   10:31.103   227197,N,0,0,0
   10:31.158   227217,),0,0,1
   10:31.364   227291,(,0,0,2
   10:31.442   227319,t,0,0,5
   10:31.492   227337,t,0,0,5
   10:31.533   227352,),0,0,2
   10:31.706   227414,(,0,0,1
   10:31.872   227474,N,0,0,0
   10:31.875   227475,),0,0,1
   10:31.983   227514,(,0,0,2
   10:32.033   227532,t,0,0,4
   10:32.433   227676,t,0,0,4
   10:32.492   227697,),0,0,2
   10:33.378   228016,(,0,0,0
   10:33.419   228031,p,0,0,0
   10:33.458   228045,),0,0,0
   10:33.547   228077,(,0,0,1
   10:33.614   228101,N,0,0,0
   10:33.733   228144,),0,0,1
   10:33.806   228170,(,0,0,2
   10:33.842   228183,t,0,0,0
   10:33.908   228207,),0,0,2
   11:02.850   238626,(,0,0,0
   11:02.897   238643,p,0,0,0
   11:02.939   238658,),0,0,0
   11:03.017   238686,(,0,0,1
   11:03.047   238697,N,0,0,0
   11:03.103   238717,),0,0,1
   11:03.164   238739,(,0,0,2
   11:03.206   238754,t,0,0,4
   11:03.322   238796,t,0,0,4
   11:03.378   238816,),0,0,2
   11:03.564   238883,(,0,0,0
   11:03.603   238897,p,0,0,0
   11:03.644   238912,),0,0,0
   11:03.719   238939,(,0,0,1
   11:03.753   238951,N,0,0,0
   11:03.806   238970,),0,0,1
   11:03.875   238995,(,0,0,2
   11:03.956   239024,t,0,0,4
   11:04.039   239054,t,0,0,4
   11:04.156   239096,),0,0,2
   11:04.283   239142,(,0,0,0
   11:04.331   239159,p,0,0,0
   11:04.372   239174,),0,0,0
   11:04.453   239203,(,0,0,1
   11:04.483   239214,N,0,0,0
   11:04.533   239232,),0,0,1
   11:04.672   239282,(,0,0,2
   11:04.767   239316,t,0,0,0
   11:04.842   239343,),0,0,2
   11:05.050   239418,(,0,0,0
   11:05.097   239435,p,0,0,0
   11:05.139   239450,),0,0,0
   11:05.219   239479,(,0,0,1
   11:05.256   239492,N,0,0,0
   11:05.314   239513,),0,0,1
   11:05.456   239564,(,0,0,2
   11:05.544   239596,t,0,0,0
   11:05.614   239621,),0,0,2
   11:05.772   239678,(,0,0,0
   11:05.842   239703,p,0,0,0
   11:05.883   239718,),0,0,0
   11:05.967   239748,(,0,0,1
   11:05.997   239759,N,0,0,0
   11:06.056   239780,),0,0,1
   11:06.206   239834,(,0,0,2
   11:06.281   239861,t,0,0,0
   11:06.358   239889,),0,0,2
   11:06.525   239949,(,0,0,0
   11:06.567   239964,p,0,0,0
   11:06.606   239978,),0,0,0
   11:06.681   240005,(,0,0,1
   11:06.714   240017,N,0,0,0
   11:06.769   240037,),0,0,1
   11:06.914   240089,(,0,0,2
   11:06.997   240119,t,0,0,0
   11:07.111   240160,),0,0,2
   11:07.233   240204,(,0,0,0
   11:07.286   240223,p,0,0,0
   11:07.328   240238,),0,0,0
   11:07.403   240265,(,0,0,1
   11:07.439   240278,N,0,0,0
   11:07.494   240298,),0,0,1
   11:07.631   240347,(,0,0,2
   11:07.714   240377,t,0,0,0
   11:07.817   240414,),0,0,2
   11:07.964   240467,(,0,0,0
   11:08.008   240483,p,0,0,0
   11:08.050   240498,),0,0,0
   11:08.119   240523,(,0,0,1
   11:08.153   240535,N,0,0,0
   11:08.203   240553,),0,0,1
   11:08.342   240603,(,0,0,2
   11:08.422   240632,t,0,0,0
   11:08.506   240662,),0,0,2
   11:08.656   240716,(,0,0,0
   11:08.703   240733,p,0,0,0
   11:08.744   240748,),0,0,0
   11:08.817   240774,(,0,0,1
   11:08.853   240787,N,0,0,0
   11:08.908   240807,),0,0,1
   11:09.047   240857,(,0,0,2
   11:09.128   240886,t,0,0,0
   11:09.231   240923,),0,0,2
   11:09.344   240964,(,0,0,0
   11:09.394   240982,p,0,0,0
   11:09.439   240998,),0,0,0
   11:09.511   241024,(,0,0,1
   11:09.542   241035,N,0,0,0
   11:09.597   241055,),0,0,1
   11:09.733   241104,(,0,0,2
   11:09.819   241135,t,0,0,0
   11:09.917   241170,),0,0,2
   11:10.058   241221,(,0,0,0
   11:10.103   241237,p,0,0,0
   11:10.144   241252,),0,0,0
   11:10.219   241279,(,0,0,1
   11:10.253   241291,N,0,0,0
   11:10.303   241309,),0,0,1
   11:10.456   241364,(,0,0,2
   11:10.536   241393,t,0,0,0
   11:10.636   241429,),0,0,2
   11:10.800   241488,(,0,0,0
   11:10.844   241504,p,0,0,0
   11:10.886   241519,),0,0,0
   11:10.967   241548,(,0,0,1
   11:10.994   241558,N,0,0,0
   11:11.050   241578,),0,0,1
   11:11.197   241631,(,0,0,2
   11:11.275   241659,t,0,0,0
   11:11.367   241692,),0,0,2
   11:11.525   241749,(,0,0,0
   11:11.583   241770,p,0,0,0
   11:11.625   241785,),0,0,0
   11:11.703   241813,(,0,0,1
   11:11.742   241827,N,0,0,0
   11:11.803   241849,),0,0,1
   11:12.117   241962,(,0,0,1
   11:12.164   241979,N,0,0,0
   11:12.203   241993,),0,0,1
   11:12.228   242002,(,0,0,2
   11:12.272   242018,t,0,0,4
   11:12.503   242101,t,0,0,4
   11:12.667   242160,),0,0,2
   11:13.019   242287,(,0,0,0
   11:13.061   242302,p,0,0,0
   11:13.103   242317,),0,0,0
   11:13.161   242338,(,0,0,1
   11:13.197   242351,N,0,0,0
   11:13.264   242375,),0,0,1
   11:13.394   242422,(,0,0,2
   11:13.489   242456,t,0,0,0
   11:13.597   242495,),0,0,2
   11:13.717   242538,(,0,0,0
   11:13.767   242556,p,0,0,0
   11:13.806   242570,),0,0,0
   11:13.881   242597,(,0,0,1
   11:13.908   242607,N,0,0,0
   11:13.964   242627,),0,0,1
   11:14.100   242676,(,0,0,2
   11:14.175   242703,t,0,0,0
   11:14.261   242734,),0,0,2
   11:14.397   242783,(,0,0,0
   11:14.447   242801,p,0,0,0
   11:14.486   242815,),0,0,0
   11:14.564   242843,(,0,0,1
   11:14.594   242854,N,0,0,0
   11:14.653   242875,),0,0,1
