Elapsedtime,sample,Type,Sub,Chan,Num
0:00.831,299,(,0,0,0
0:00.861,310,p,0,0,0
0:00.906,326,),0,0,0
0:00.942,339,(,0,0,1
0:00.972,350,N,0,0,0
0:01.014,365,),0,0,1
0:01.172,422,(,0,0,2
0:01.247,449,t,0,0,0
0:01.372,494,),0,0,2
0:01.864,671,(,0,0,0
0:01.897,683,p,0,0,0
0:01.944,700,),0,0,0
0:01.978,712,(,0,0,1
0:02.011,724,N,0,0,0
0:02.050,738,),0,0,1
0:02.189,788,(,0,0,2
0:02.272,818,t,0,0,0
0:02.389,860,),0,0,2
0:02.869,1033,(,0,0,0
0:02.906,1046,p,0,0,0
0:02.947,1061,),0,0,0
0:02.983,1074,(,0,0,1
0:03.014,1085,N,0,0,0
0:03.053,1099,),0,0,1
0:03.186,1147,(,0,0,2
0:03.278,1180,t,0,0,0
0:03.397,1223,),0,0,2
0:03.878,1396,(,0,0,0
0:03.908,1407,p,0,0,0
0:03.950,1422,),0,0,0
0:03.986,1435,(,0,0,1
0:04.019,1447,N,0,0,0
0:04.058,1461,),0,0,1
0:04.219,1519,(,0,0,2
0:04.297,1547,t,0,0,0
0:04.422,1592,),0,0,2
0:04.931,1775,(,0,0,0
0:04.964,1787,p,0,0,0
0:05.008,1803,),0,0,0
0:05.047,1817,(,0,0,1
0:05.078,1828,N,0,0,0
0:05.119,1843,),0,0,1
0:05.278,1900,(,0,0,2
0:05.361,1930,t,0,0,0
0:05.489,1976,),0,0,2
0:05.950,2142,(,0,0,0
0:05.983,2154,p,0,0,0
0:06.031,2171,),0,0,0
0:06.069,2185,(,0,0,1
0:06.103,2197,N,0,0,0
0:06.142,2211,),0,0,1
0:06.294,2266,(,0,0,2
0:06.386,2299,t,0,0,0
0:06.519,2347,),0,0,2
0:06.986,2515,(,0,0,0
0:07.025,2529,p,0,0,0
0:07.078,2548,),0,0,0
0:07.106,2558,(,0,0,1
0:07.139,2570,N,0,0,0
0:07.181,2585,),0,0,1
0:07.331,2639,(,0,0,2
0:07.414,2669,t,0,0,0
0:07.519,2707,),0,0,2
0:07.956,2864,(,0,0,0
0:07.989,2876,p,0,0,0
0:08.036,2893,),0,0,0
0:08.072,2906,(,0,0,1
0:08.106,2918,N,0,0,0
0:08.150,2934,),0,0,1
0:08.292,2985,(,0,0,2
0:08.367,3012,t,0,0,0
0:08.481,3053,),0,0,2
0:08.836,3181,(,0,0,0
0:08.869,3193,p,0,0,0
0:08.911,3208,),0,0,0
0:08.947,3221,(,0,0,1
0:08.981,3233,N,0,0,0
0:09.022,3248,),0,0,1
0:09.164,3299,(,0,0,2
0:09.247,3329,t,0,0,0
0:09.386,3379,),0,0,2
0:09.767,3516,(,0,0,0
0:09.803,3529,p,0,0,0
0:09.842,3543,),0,0,0
0:09.883,3558,(,0,0,1
0:09.917,3570,N,0,0,0
0:09.958,3585,),0,0,1
0:10.111,3640,(,0,0,2
0:10.203,3673,t,0,0,0
0:10.328,3718,),0,0,2
0:10.769,3877,(,0,0,0
0:10.806,3890,p,0,0,0
0:10.850,3906,),0,0,0
0:10.883,3918,(,0,0,1
0:10.917,3930,N,0,0,0
0:10.969,3949,),0,0,1
0:11.111,4000,(,0,0,2
0:11.206,4034,t,0,0,0
0:11.319,4075,),0,0,2
0:11.739,4226,(,0,0,0
0:11.778,4240,p,0,0,0
0:11.819,4255,),0,0,0
0:11.858,4269,(,0,0,1
0:11.892,4281,N,0,0,0
0:11.922,4292,),0,0,1
0:12.092,4353,(,0,0,2
0:12.178,4384,t,0,0,0
0:12.308,4431,),0,0,2
0:12.658,4557,(,0,0,0
0:12.700,4572,p,0,0,0
0:12.742,4587,),0,0,0
0:12.778,4600,(,0,0,1
0:12.808,4611,N,0,0,0
0:12.850,4626,),0,0,1
0:13.003,4681,(,0,0,2
0:13.089,4712,t,0,0,0
0:13.206,4754,),0,0,2
0:13.600,4896,(,0,0,0
0:13.633,4908,p,0,0,0
0:13.675,4923,),0,0,0
0:13.708,4935,(,0,0,1
0:13.739,4946,N,0,0,0
0:13.769,4957,),0,0,1
0:13.911,5008,(,0,0,2
0:14.003,5041,t,0,0,0
0:14.106,5078,),0,0,2
0:14.447,5201,(,0,0,0
0:14.486,5215,p,0,0,0
0:14.528,5230,),0,0,0
0:14.561,5242,(,0,0,1
0:14.594,5254,N,0,0,0
0:14.625,5265,),0,0,1
0:14.769,5317,(,0,0,2
0:14.856,5348,t,0,0,0
0:14.967,5388,),0,0,2
0:15.289,5504,(,0,0,0
0:15.325,5517,p,0,0,0
0:15.369,5533,),0,0,0
0:15.406,5546,(,0,0,1
0:15.436,5557,N,0,0,0
0:15.467,5568,),0,0,1
0:15.614,5621,(,0,0,2
0:15.706,5654,t,0,0,0
0:15.803,5689,),0,0,2
0:16.136,5809,(,0,0,0
0:16.172,5822,p,0,0,0
0:16.214,5837,),0,0,0
0:16.250,5850,(,0,0,1
0:16.283,5862,N,0,0,0
0:16.314,5873,),0,0,1
0:16.469,5929,(,0,0,2
0:16.572,5966,t,0,0,0
0:16.675,6003,),0,0,2
0:17.003,6121,(,0,0,0
0:17.039,6134,p,0,0,0
0:17.078,6148,),0,0,0
0:17.117,6162,(,0,0,1
0:17.147,6173,N,0,0,0
0:17.189,6188,),0,0,1
0:17.325,6237,(,0,0,2
0:17.431,6275,t,0,0,0
0:17.522,6308,),0,0,2
0:17.822,6416,(,0,0,0
0:17.864,6431,p,0,0,0
0:17.908,6447,),0,0,0
0:17.942,6459,(,0,0,1
0:17.975,6471,N,0,0,0
0:18.022,6488,),0,0,1
0:18.189,6548,(,0,0,2
0:18.267,6576,t,0,0,0
0:18.364,6611,),0,0,2
0:18.617,6702,(,0,0,0
0:18.656,6716,p,0,0,0
0:18.694,6730,),0,0,0
0:18.733,6744,(,0,0,1
0:18.767,6756,N,0,0,0
0:18.817,6774,),0,0,1
0:18.969,6829,(,0,0,2
0:19.042,6855,t,0,0,5
0:19.142,6891,t,0,0,5
0:19.214,6917,),0,0,2
0:19.419,6991,(,0,0,0
0:19.458,7005,p,0,0,0
0:19.497,7019,),0,0,0
0:19.533,7032,(,0,0,1
0:19.567,7044,N,0,0,0
0:19.606,7058,),0,0,1
0:19.719,7099,(,0,0,2
0:19.833,7140,t,0,0,0
0:19.917,7170,),0,0,2
0:20.239,7286,(,0,0,0
0:20.278,7300,p,0,0,0
0:20.314,7313,),0,0,0
0:20.344,7324,(,0,0,1
0:20.375,7335,N,0,0,0
0:20.400,7344,),0,0,1
0:20.528,7390,(,0,0,2
0:20.633,7428,t,0,0,0
0:20.717,7458,),0,0,2
0:21.011,7564,(,0,0,0
0:21.047,7577,p,0,0,0
0:21.089,7592,),0,0,0
0:21.122,7604,(,0,0,1
0:21.153,7615,N,0,0,0
0:21.189,7628,),0,0,1
0:21.283,7662,(,0,0,2
0:21.411,7708,t,0,0,0
0:21.489,7736,),0,0,2
0:21.786,7843,(,0,0,0
0:21.825,7857,p,0,0,0
0:21.864,7871,),0,0,0
0:21.903,7885,(,0,0,1
0:21.933,7896,N,0,0,0
0:21.964,7907,),0,0,1
0:22.075,7947,(,0,0,2
0:22.197,7991,t,0,0,0
0:22.269,8017,),0,0,2
0:22.578,8128,(,0,0,0
0:22.617,8142,p,0,0,0
0:22.658,8157,),0,0,0
0:22.694,8170,(,0,0,1
0:22.728,8182,N,0,0,0
0:22.769,8197,),0,0,1
0:22.878,8236,(,0,0,2
0:23.006,8282,t,0,0,0
0:23.089,8312,),0,0,2
0:23.392,8421,(,0,0,0
0:23.431,8435,p,0,0,0
0:23.469,8449,),0,0,0
0:23.506,8462,(,0,0,1
0:23.539,8474,N,0,0,0
0:23.583,8490,),0,0,1
0:23.703,8533,(,0,0,2
0:23.825,8577,t,0,0,0
0:23.897,8603,),0,0,2
0:24.189,8708,(,0,0,0
0:24.222,8720,p,0,0,0
0:24.261,8734,),0,0,0
0:24.294,8746,(,0,0,1
0:24.325,8757,N,0,0,0
0:24.367,8772,),0,0,1
0:24.472,8810,(,0,0,2
0:24.592,8853,t,0,0,0
0:24.675,8883,),0,0,2
0:24.925,8973,(,0,0,0
0:24.961,8986,p,0,0,0
0:25.003,9001,),0,0,0
0:25.033,9012,(,0,0,1
0:25.067,9024,N,0,0,0
0:25.108,9039,),0,0,1
0:25.219,9079,(,0,0,2
0:25.328,9118,t,0,0,0
0:25.406,9146,),0,0,2
0:25.611,9220,(,0,0,0
0:25.647,9233,p,0,0,0
0:25.686,9247,),0,0,0
0:25.719,9259,(,0,0,1
0:25.750,9270,N,0,0,0
0:25.794,9286,),0,0,1
0:25.894,9322,(,0,0,2
0:26.003,9361,t,0,0,5
0:26.106,9398,t,0,0,5
0:26.192,9429,),0,0,2
0:26.292,9465,(,0,0,0
0:26.328,9478,p,0,0,0
0:26.369,9493,),0,0,0
0:26.403,9505,(,0,0,1
0:26.433,9516,N,0,0,0
0:26.464,9527,),0,0,1
0:26.578,9568,(,0,0,2
0:26.694,9610,t,0,0,0
0:26.772,9638,),0,0,2
0:26.986,9715,(,0,0,0
0:27.022,9728,p,0,0,0
0:27.064,9743,),0,0,0
0:27.103,9757,(,0,0,1
0:27.133,9768,N,0,0,0
0:27.164,9779,),0,0,1
0:27.294,9826,(,0,0,2
0:27.392,9861,t,0,0,0
0:27.478,9892,),0,0,2
0:27.739,9986,(,0,0,0
0:27.775,9999,p,0,0,0
0:27.814,10013,),0,0,0
0:27.850,10026,(,0,0,1
0:27.883,10038,N,0,0,0
0:27.922,10052,),0,0,1
0:28.047,10097,(,0,0,2
0:28.153,10135,t,0,0,0
0:28.267,10176,),0,0,2
0:28.500,10260,(,0,0,0
0:28.539,10274,p,0,0,0
0:28.581,10289,),0,0,0
0:28.617,10302,(,0,0,1
0:28.650,10314,N,0,0,0
0:28.692,10329,),0,0,1
0:28.825,10377,(,0,0,2
0:28.919,10411,t,0,0,0
0:29.008,10443,),0,0,2
0:29.242,10527,(,0,0,0
0:29.278,10540,p,0,0,0
0:29.322,10556,),0,0,0
0:29.361,10570,(,0,0,1
0:29.394,10582,N,0,0,0
0:29.425,10593,),0,0,1
0:29.569,10645,(,0,0,2
0:29.661,10678,t,0,0,0
0:29.758,10713,),0,0,2
0:30.078,10828,(,0,0,0
0:30.117,10842,p,0,0,0
0:30.158,10857,),0,0,0
0:30.197,10871,(,0,0,1
0:30.233,10884,N,0,0,0
0:30.264,10895,),0,0,1
0:30.411,10948,(,0,0,2
0:30.506,10982,t,0,0,0
0:30.608,11019,),0,0,2
0:31.086,11191,(,0,0,0
0:31.125,11205,p,0,0,0
0:31.164,11219,),0,0,0
0:31.197,11231,(,0,0,1
0:31.233,11244,N,0,0,0
0:31.258,11253,),0,0,1
0:31.400,11304,(,0,0,2
0:31.506,11342,t,0,0,0
0:31.606,11378,),0,0,2
0:32.044,11536,(,0,0,0
0:32.081,11549,p,0,0,0
0:32.122,11564,),0,0,0
0:32.153,11575,(,0,0,1
0:32.189,11588,N,0,0,0
0:32.214,11597,),0,0,1
0:32.361,11650,(,0,0,2
0:32.456,11684,t,0,0,0
0:32.556,11720,),0,0,2
0:33.008,11883,(,0,0,0
0:33.044,11896,p,0,0,0
0:33.083,11910,),0,0,0
0:33.114,11921,(,0,0,1
0:33.150,11934,N,0,0,0
0:33.175,11943,),0,0,1
0:33.319,11995,(,0,0,2
0:33.419,12031,t,0,0,0
0:33.517,12066,),0,0,2
0:33.981,12233,(,0,0,0
0:34.019,12247,p,0,0,0
0:34.058,12261,),0,0,0
0:34.086,12271,(,0,0,1
0:34.128,12286,N,0,0,0
0:34.156,12296,),0,0,1
0:34.297,12347,(,0,0,2
0:34.400,12384,t,0,0,0
0:34.506,12422,),0,0,2
0:35.025,12609,(,0,0,1
0:35.133,12648,N,0,0,0
0:35.164,12659,),0,0,1
0:35.311,12712,(,0,0,2
0:35.428,12754,t,0,0,0
0:35.533,12792,),0,0,2
0:35.969,12949,(,0,0,0
0:36.006,12962,p,0,0,0
0:36.042,12975,),0,0,0
0:36.058,12981,(,0,0,1
0:36.114,13001,N,0,0,0
0:36.142,13011,),0,0,1
0:36.253,13051,(,0,0,2
0:36.392,13101,t,0,0,5
0:36.514,13145,t,0,0,5
0:36.592,13173,),0,0,2
0:36.847,13265,(,0,0,0
0:36.889,13280,p,0,0,0
0:36.928,13294,),0,0,0
0:36.956,13304,(,0,0,1
0:36.994,13318,N,0,0,0
0:37.025,13329,),0,0,1
0:37.161,13378,(,0,0,2
0:37.258,13413,t,0,0,0
0:37.350,13446,),0,0,2
0:37.672,13562,(,0,0,0
0:37.717,13578,p,0,0,0
0:37.756,13592,),0,0,0
0:37.775,13599,(,0,0,1
0:37.822,13616,N,0,0,0
0:37.850,13626,),0,0,1
0:37.986,13675,(,0,0,2
0:38.081,13709,t,0,0,0
0:38.172,13742,),0,0,2
0:38.511,13864,(,0,0,0
0:38.556,13880,p,0,0,0
0:38.594,13894,),0,0,0
0:38.614,13901,(,0,0,1
0:38.658,13917,N,0,0,0
0:38.689,13928,),0,0,1
0:38.822,13976,(,0,0,2
0:38.919,14011,t,0,0,5
0:39.022,14048,t,0,0,5
0:39.108,14079,),0,0,2
0:39.372,14174,(,0,0,0
0:39.417,14190,p,0,0,0
0:39.453,14203,),0,0,0
0:39.472,14210,(,0,0,1
0:39.517,14226,N,0,0,0
0:39.547,14237,),0,0,1
0:39.678,14284,(,0,0,2
0:39.792,14325,t,0,0,0
0:39.886,14359,),0,0,2
0:40.303,14509,(,0,0,0
0:40.344,14524,p,0,0,0
0:40.383,14538,),0,0,0
0:40.408,14547,(,0,0,1
0:40.453,14563,N,0,0,0
0:40.483,14574,),0,0,1
0:40.617,14622,(,0,0,2
0:40.739,14666,t,0,0,5
0:40.858,14709,t,0,0,5
0:40.953,14743,),0,0,2
0:41.106,14798,(,0,0,0
0:41.178,14824,p,0,0,0
0:41.278,14860,),0,0,0
0:41.292,14865,(,0,0,1
0:41.394,14902,N,0,0,0
0:41.425,14913,),0,0,1
0:41.567,14964,(,0,0,2
0:41.672,15002,t,0,0,0
0:41.778,15040,),0,0,2
0:42.156,15176,(,0,0,0
0:42.200,15192,p,0,0,0
0:42.236,15205,),0,0,0
0:42.258,15213,(,0,0,1
0:42.306,15230,N,0,0,0
0:42.336,15241,),0,0,1
0:42.467,15288,(,0,0,2
0:42.581,15329,t,0,0,0
0:42.686,15367,),0,0,2
0:43.078,15508,(,0,0,0
0:43.119,15523,p,0,0,0
0:43.153,15535,),0,0,0
0:43.175,15543,(,0,0,1
0:43.222,15560,N,0,0,0
0:43.253,15571,),0,0,1
0:43.394,15622,(,0,0,2
0:43.497,15659,t,0,0,0
0:43.600,15696,),0,0,2
0:44.019,15847,(,0,0,0
0:44.061,15862,p,0,0,0
0:44.097,15875,),0,0,0
0:44.117,15882,(,0,0,1
0:44.164,15899,N,0,0,0
0:44.194,15910,),0,0,1
0:44.317,15954,(,0,0,2
0:44.425,15993,t,0,0,0
0:44.525,16029,),0,0,2
0:44.978,16192,(,0,0,0
0:45.017,16206,p,0,0,0
0:45.053,16219,),0,0,0
0:45.069,16225,(,0,0,1
0:45.122,16244,N,0,0,0
0:45.150,16254,),0,0,1
0:45.286,16303,(,0,0,2
0:45.386,16339,t,0,0,0
0:45.486,16375,),0,0,2
0:45.969,16549,(,0,0,0
0:46.017,16566,p,0,0,0
0:46.053,16579,),0,0,0
0:46.072,16586,(,0,0,1
0:46.122,16604,N,0,0,0
0:46.153,16615,),0,0,1
0:46.283,16662,(,0,0,2
0:46.397,16703,t,0,0,0
0:46.497,16739,),0,0,2
0:47.061,16942,(,0,0,0
0:47.106,16958,p,0,0,0
0:47.133,16968,),0,0,0
0:47.153,16975,(,0,0,1
0:47.214,16997,N,0,0,0
0:47.244,17008,),0,0,1
0:47.372,17054,(,0,0,2
0:47.494,17098,t,0,0,0
0:47.603,17137,),0,0,2
0:48.047,17297,(,0,0,0
0:48.092,17313,p,0,0,0
0:48.131,17327,),0,0,0
0:48.158,17337,(,0,0,1
0:48.203,17353,N,0,0,0
0:48.236,17365,),0,0,1
0:48.378,17416,(,0,0,2
0:48.478,17452,t,0,0,5
0:48.617,17502,t,0,0,5
0:48.744,17548,),0,0,2
0:49.011,17644,(,0,0,0
0:49.058,17661,p,0,0,0
0:49.094,17674,),0,0,0
0:49.122,17684,(,0,0,1
0:49.167,17700,N,0,0,0
0:49.197,17711,),0,0,1
0:49.322,17756,(,0,0,2
0:49.436,17797,t,0,0,5
0:49.561,17842,t,0,0,5
0:49.650,17874,),0,0,2
0:49.919,17971,(,0,0,0
0:49.964,17987,p,0,0,0
0:49.997,17999,),0,0,0
0:50.022,18008,(,0,0,1
0:50.069,18025,N,0,0,0
0:50.100,18036,),0,0,1
0:50.225,18081,(,0,0,2
0:50.331,18119,t,0,0,5
0:50.447,18161,t,0,0,5
0:50.533,18192,),0,0,2
0:50.781,18281,(,0,0,0
0:50.822,18296,p,0,0,0
0:50.858,18309,),0,0,0
0:50.878,18316,(,0,0,1
0:50.922,18332,N,0,0,0
0:50.953,18343,),0,0,1
0:51.075,18387,(,0,0,2
0:51.186,18427,t,0,0,0
0:51.278,18460,),0,0,2
0:51.689,18608,(,0,0,1
0:51.786,18643,N,0,0,0
0:51.817,18654,),0,0,1
0:51.936,18697,(,0,0,2
0:52.067,18744,t,0,0,5
0:52.178,18784,t,0,0,5
0:52.289,18824,),0,0,2
0:52.525,18909,(,0,0,0
0:52.567,18924,p,0,0,0
0:52.606,18938,),0,0,0
0:52.636,18949,(,0,0,1
0:52.675,18963,N,0,0,0
0:52.706,18974,),0,0,1
0:52.844,19024,(,0,0,2
0:52.956,19064,t,0,0,5
0:53.072,19106,t,0,0,5
0:53.158,19137,),0,0,2
0:53.378,19216,(,0,0,0
0:53.422,19232,p,0,0,0
0:53.464,19247,),0,0,0
0:53.483,19254,(,0,0,1
0:53.539,19274,N,0,0,0
0:53.569,19285,),0,0,1
0:53.703,19333,(,0,0,2
0:53.814,19373,t,0,0,5
0:53.917,19410,t,0,0,5
0:54.022,19448,),0,0,2
0:54.231,19523,(,0,0,0
0:54.272,19538,p,0,0,0
0:54.311,19552,),0,0,0
0:54.342,19563,(,0,0,1
0:54.383,19578,N,0,0,0
0:54.411,19588,),0,0,1
0:54.542,19635,(,0,0,2
0:54.661,19678,t,0,0,0
0:54.736,19705,),0,0,2
0:55.042,19815,(,0,0,0
0:55.081,19829,p,0,0,0
0:55.119,19843,),0,0,0
0:55.150,19854,(,0,0,1
0:55.189,19868,N,0,0,0
0:55.219,19879,),0,0,1
0:55.319,19915,(,0,0,2
0:55.458,19965,t,0,0,0
0:55.528,19990,),0,0,2
0:55.797,20087,(,0,0,0
0:55.831,20099,p,0,0,0
0:55.867,20112,),0,0,0
0:55.892,20121,(,0,0,1
0:55.931,20135,N,0,0,0
0:56.106,20198,),0,0,1
0:56.125,20205,(,0,0,2
0:56.189,20228,t,0,0,0
0:56.278,20260,),0,0,2
0:56.533,20352,(,0,0,0
0:56.572,20366,p,0,0,0
0:56.611,20380,),0,0,0
0:56.631,20387,(,0,0,1
0:56.681,20405,N,0,0,0
0:56.861,20470,),0,0,1
0:56.889,20480,(,0,0,2
0:56.933,20496,t,0,0,5
0:57.031,20531,t,0,0,5
0:57.133,20568,),0,0,2
0:57.317,20634,(,0,0,0
0:57.358,20649,p,0,0,0
0:57.397,20663,),0,0,0
0:57.425,20673,(,0,0,1
0:57.469,20689,N,0,0,0
0:57.500,20700,),0,0,1
0:57.622,20744,(,0,0,2
0:57.733,20784,t,0,0,5
0:57.850,20826,t,0,0,5
0:57.933,20856,),0,0,2
0:58.147,20933,(,0,0,0
0:58.192,20949,p,0,0,0
0:58.228,20962,),0,0,0
0:58.247,20969,(,0,0,1
0:58.300,20988,N,0,0,0
0:58.328,20998,),0,0,1
0:58.456,21044,(,0,0,2
0:58.572,21086,t,0,0,5
0:58.719,21139,t,0,0,5
0:58.800,21168,),0,0,2
0:59.003,21241,(,0,0,0
0:59.050,21258,p,0,0,0
0:59.089,21272,),0,0,0
0:59.122,21284,(,0,0,1
0:59.164,21299,N,0,0,0
0:59.194,21310,),0,0,1
0:59.319,21355,(,0,0,2
0:59.439,21398,t,0,0,0
0:59.536,21433,),0,0,2
0:59.947,21581,(,0,0,0
0:59.989,21596,p,0,0,0
1:00.028,21610,),0,0,0
1:00.044,21616,(,0,0,1
1:00.100,21636,N,0,0,0
1:00.131,21647,),0,0,1
1:00.267,21696,(,0,0,2
1:00.381,21737,t,0,0,0
1:00.483,21774,),0,0,2
1:00.983,21954,(,0,0,0
1:01.025,21969,p,0,0,0
1:01.064,21983,),0,0,0
1:01.092,21993,(,0,0,1
1:01.131,22007,N,0,0,0
1:01.161,22018,),0,0,1
1:01.292,22065,(,0,0,2
1:01.397,22103,t,0,0,5
1:01.528,22150,t,0,0,5
1:01.611,22180,),0,0,2
1:02.022,22328,(,0,0,1
1:02.119,22363,N,0,0,0
1:02.147,22373,),0,0,1
1:02.289,22424,(,0,0,2
1:02.372,22454,t,0,0,5
1:02.494,22498,t,0,0,5
1:02.542,22515,),0,0,2
1:02.875,22635,(,0,0,0
1:02.922,22652,p,0,0,0
1:02.958,22665,),0,0,0
1:02.975,22671,(,0,0,1
1:03.022,22688,N,0,0,0
1:03.050,22698,),0,0,1
1:03.194,22750,(,0,0,2
1:03.278,22780,t,0,0,5
1:03.414,22829,t,0,0,5
1:03.500,22860,),0,0,2
1:03.781,22961,(,0,0,0
1:03.825,22977,p,0,0,0
1:03.864,22991,),0,0,0
1:03.881,22997,(,0,0,1
1:03.931,23015,N,0,0,0
1:03.961,23026,),0,0,1
1:04.117,23082,(,0,0,2
1:04.203,23113,t,0,0,0
1:04.300,23148,),0,0,2
1:04.742,23307,(,0,0,0
1:04.789,23324,p,0,0,0
1:04.825,23337,),0,0,0
1:04.856,23348,(,0,0,1
1:04.897,23363,N,0,0,0
1:04.928,23374,),0,0,1
1:05.081,23429,(,0,0,2
1:05.175,23463,t,0,0,0
1:05.283,23502,),0,0,2
1:05.731,23663,(,0,0,0
1:05.767,23676,p,0,0,0
1:05.808,23691,),0,0,0
1:05.842,23703,(,0,0,1
1:05.883,23718,N,0,0,0
1:05.914,23729,),0,0,1
1:06.064,23783,(,0,0,2
1:06.169,23821,t,0,0,0
1:06.272,23858,),0,0,2
1:06.650,23994,(,0,0,0
1:06.689,24008,p,0,0,0
1:06.731,24023,),0,0,0
1:06.756,24032,(,0,0,1
1:06.797,24047,N,0,0,0
1:06.825,24057,),0,0,1
1:06.964,24107,(,0,0,2
1:07.072,24146,t,0,0,0
1:07.169,24181,),0,0,2
1:07.533,24312,(,0,0,1
1:07.669,24361,N,0,0,0
1:07.697,24371,),0,0,1
1:07.831,24419,(,0,0,2
1:07.931,24455,t,0,0,0
1:08.028,24490,),0,0,2
1:08.417,24630,(,0,0,0
1:08.458,24645,p,0,0,0
1:08.494,24658,),0,0,0
1:08.525,24669,(,0,0,1
1:08.564,24683,N,0,0,0
1:08.592,24693,),0,0,1
1:08.731,24743,(,0,0,2
1:08.833,24780,t,0,0,0
1:08.933,24816,),0,0,2
1:09.328,24958,(,0,0,0
1:09.369,24973,p,0,0,0
1:09.406,24986,),0,0,0
1:09.428,24994,(,0,0,1
1:09.469,25009,N,0,0,0
1:09.497,25019,),0,0,1
1:09.642,25071,(,0,0,2
1:09.731,25103,t,0,0,0
1:09.831,25139,),0,0,2
1:10.231,25283,(,0,0,0
1:10.272,25298,p,0,0,0
1:10.311,25312,),0,0,0
1:10.339,25322,(,0,0,1
1:10.381,25337,N,0,0,0
1:10.408,25347,),0,0,1
1:10.550,25398,(,0,0,2
1:10.658,25437,t,0,0,0
1:10.761,25474,),0,0,2
1:11.225,25641,(,0,0,0
1:11.264,25655,p,0,0,0
1:11.306,25670,),0,0,0
1:11.336,25681,(,0,0,1
1:11.378,25696,N,0,0,0
1:11.406,25706,),0,0,1
1:11.556,25760,(,0,0,2
1:11.658,25797,t,0,0,0
1:11.758,25833,),0,0,2
1:12.256,26012,(,0,0,0
1:12.294,26026,p,0,0,0
1:12.339,26042,),0,0,0
1:12.372,26054,(,0,0,1
1:12.408,26067,N,0,0,0
1:12.439,26078,),0,0,1
1:12.586,26131,(,0,0,2
1:12.683,26166,t,0,0,0
1:12.786,26203,),0,0,2
1:13.319,26395,(,0,0,1
1:13.425,26433,N,0,0,0
1:13.453,26443,),0,0,1
1:13.597,26495,(,0,0,2
1:13.692,26529,t,0,0,0
1:13.789,26564,),0,0,2
1:14.258,26733,(,0,0,0
1:14.297,26747,p,0,0,0
1:14.339,26762,),0,0,0
1:14.369,26773,(,0,0,1
1:14.406,26786,N,0,0,0
1:14.433,26796,),0,0,1
1:14.567,26844,(,0,0,2
1:14.664,26879,t,0,0,0
1:14.764,26915,),0,0,2
1:15.239,27086,(,0,0,0
1:15.278,27100,p,0,0,0
1:15.311,27112,),0,0,0
1:15.336,27121,(,0,0,1
1:15.381,27137,N,0,0,0
1:15.411,27148,),0,0,1
1:15.556,27200,(,0,0,2
1:15.650,27234,t,0,0,5
1:15.778,27280,t,0,0,5
1:15.853,27307,),0,0,2
1:16.147,27413,(,0,0,0
1:16.192,27429,p,0,0,0
1:16.233,27444,),0,0,0
1:16.272,27458,(,0,0,1
1:16.306,27470,N,0,0,0
1:16.331,27479,),0,0,1
1:16.464,27527,(,0,0,2
1:16.578,27568,t,0,0,0
1:16.683,27606,),0,0,2
1:17.097,27755,(,0,0,0
1:17.133,27768,p,0,0,0
1:17.175,27783,),0,0,0
1:17.214,27797,(,0,0,1
1:17.247,27809,N,0,0,0
1:17.281,27821,),0,0,1
1:17.436,27877,(,0,0,2
1:17.539,27914,t,0,0,5
1:17.669,27961,t,0,0,5
1:17.756,27992,),0,0,2
1:18.078,28108,(,0,0,0
1:18.114,28121,p,0,0,0
1:18.156,28136,),0,0,0
1:18.189,28148,(,0,0,1
1:18.222,28160,N,0,0,0
1:18.253,28171,),0,0,1
1:18.403,28225,(,0,0,2
1:18.503,28261,t,0,0,5
1:18.625,28305,t,0,0,5
1:18.719,28339,),0,0,2
1:19.025,28449,(,0,0,0
1:19.061,28462,p,0,0,0
1:19.103,28477,),0,0,0
1:19.133,28488,(,0,0,1
1:19.164,28499,N,0,0,0
1:19.203,28513,),0,0,1
1:19.342,28563,(,0,0,2
1:19.431,28595,t,0,0,0
1:19.522,28628,),0,0,2
1:19.864,28751,(,0,0,0
1:19.900,28764,p,0,0,0
1:19.942,28779,),0,0,0
1:19.969,28789,(,0,0,1
1:20.000,28800,N,0,0,0
1:20.039,28814,),0,0,1
1:20.169,28861,(,0,0,2
1:20.261,28894,t,0,0,0
1:20.358,28929,),0,0,2
1:20.706,29054,(,0,0,0
1:20.742,29067,p,0,0,0
1:20.783,29082,),0,0,0
1:20.814,29093,(,0,0,1
1:20.844,29104,N,0,0,0
1:20.875,29115,),0,0,1
1:21.017,29166,(,0,0,2
1:21.106,29198,t,0,0,0
1:21.211,29236,),0,0,2
1:21.556,29360,(,0,0,0
1:21.583,29370,p,0,0,0
1:21.619,29383,),0,0,0
1:21.653,29395,(,0,0,1
1:21.686,29407,N,0,0,0
1:21.725,29421,),0,0,1
1:21.858,29469,(,0,0,2
1:21.942,29499,t,0,0,0
1:22.028,29530,),0,0,2
1:22.364,29651,(,0,0,0
1:22.414,29669,p,0,0,0
1:22.467,29688,),0,0,0
1:22.497,29699,(,0,0,1
1:22.531,29711,N,0,0,0
1:22.583,29730,),0,0,1
1:22.747,29789,(,0,0,2
1:22.819,29815,t,0,0,5
1:22.947,29861,t,0,0,5
1:23.008,29883,),0,0,2
1:23.253,29971,(,0,0,0
1:23.289,29984,p,0,0,0
1:23.328,29998,),0,0,0
1:23.364,30011,(,0,0,1
1:23.397,30023,N,0,0,0
1:23.439,30038,),0,0,1
1:23.489,30056,(,0,0,2
1:23.511,30064,t,0,0,4
1:23.667,30120,t,0,0,4
1:23.775,30159,),0,0,2
1:24.106,30278,(,0,0,0
1:24.147,30293,p,0,0,0
1:24.183,30306,),0,0,0
1:24.192,30309,(,0,0,1
1:24.258,30333,N,0,0,0
1:24.286,30343,),0,0,1
1:24.447,30401,(,0,0,2
1:24.525,30429,t,0,0,0
1:24.631,30467,),0,0,2
1:24.933,30576,(,0,0,0
1:24.972,30590,p,0,0,0
1:25.014,30605,),0,0,0
1:25.042,30615,(,0,0,1
1:25.081,30629,N,0,0,0
1:25.133,30648,),0,0,1
1:25.272,30698,(,0,0,2
1:25.353,30727,t,0,0,5
1:25.467,30768,t,0,0,5
1:25.525,30789,),0,0,2
1:25.744,30868,(,0,0,0
1:25.778,30880,p,0,0,0
1:25.819,30895,),0,0,0
1:25.853,30907,(,0,0,1
1:25.886,30919,N,0,0,0
1:25.914,30929,),0,0,1
1:26.069,30985,(,0,0,2
1:26.153,31015,t,0,0,5
1:26.297,31067,t,0,0,5
1:26.350,31086,),0,0,2
1:26.494,31138,(,0,0,0
1:26.528,31150,p,0,0,0
1:26.569,31165,),0,0,0
1:26.606,31178,(,0,0,1
1:26.636,31189,N,0,0,0
1:26.678,31204,),0,0,1
1:26.811,31252,(,0,0,2
1:26.894,31282,t,0,0,0
1:27.011,31324,),0,0,2
1:27.244,31408,(,0,0,0
1:27.278,31420,p,0,0,0
1:27.319,31435,),0,0,0
1:27.361,31450,(,0,0,1
1:27.392,31461,N,0,0,0
1:27.436,31477,),0,0,1
1:27.572,31526,(,0,0,2
1:27.653,31555,t,0,0,5
1:27.794,31606,t,0,0,5
1:27.864,31631,),0,0,2
1:27.983,31674,(,0,0,0
1:28.011,31684,p,0,0,0
1:28.044,31696,),0,0,0
1:28.092,31713,(,0,0,1
1:28.125,31725,N,0,0,0
1:28.189,31748,),0,0,1
1:28.328,31798,(,0,0,2
1:28.394,31822,t,0,0,0
1:28.519,31867,),0,0,2
1:28.775,31959,(,0,0,0
1:28.806,31970,p,0,0,0
1:28.839,31982,),0,0,0
1:28.869,31993,(,0,0,1
1:28.925,32013,N,0,0,0
1:28.969,32029,),0,0,1
1:29.125,32085,(,0,0,2
1:29.203,32113,t,0,0,0
1:29.336,32161,),0,0,2
1:29.669,32281,(,0,0,0
1:29.706,32294,p,0,0,0
1:29.756,32312,),0,0,0
1:29.786,32323,(,0,0,1
1:29.819,32335,N,0,0,0
1:29.861,32350,),0,0,1
1:30.017,32406,(,0,0,2
1:30.106,32438,t,0,0,0
1:30.256,32492,),0,0,2
1:30.592,32613,(,0,0,0
1:30.633,32628,p,0,0,0
1:30.675,32643,),0,0,0
1:30.708,32655,(,0,0,1
1:30.739,32666,N,0,0,0
1:30.786,32683,),0,0,1
1:30.886,32719,t,0,0,2
1:31.011,32764,),0,0,2
1:31.033,32772,(,0,0,0
1:31.092,32793,p,0,0,0
1:31.122,32804,),0,0,0
1:31.211,32836,(,0,0,1
1:31.292,32865,N,0,0,0
1:31.339,32882,),0,0,1
1:31.453,32923,t,0,0,2
1:31.569,32965,),0,0,2
1:31.703,33013,(,0,0,1
1:31.781,33041,N,0,0,0
1:31.892,33081,),0,0,1
1:31.906,33086,(,0,0,2
1:31.975,33111,t,0,0,1
1:32.100,33156,),0,0,2
1:32.853,33427,(,0,0,0
1:32.886,33439,p,0,0,0
1:32.931,33455,),0,0,0
1:32.956,33464,(,0,0,1
1:32.986,33475,N,0,0,0
1:33.028,33490,),0,0,1
1:33.167,33540,(,0,0,2
1:33.206,33554,t,0,0,0
1:33.247,33569,),0,0,2
1:33.419,33631,(,0,0,1
1:33.511,33664,N,0,0,0
1:33.583,33690,),0,0,1
1:33.611,33700,t,0,0,2
1:33.744,33748,),0,0,2
1:33.869,33793,(,0,0,1
1:33.942,33819,N,0,0,0
1:34.008,33843,),0,0,1
1:34.097,33875,(,0,0,2
1:34.150,33894,t,0,0,1
1:34.269,33937,),0,0,2
1:35.147,34253,(,0,0,0
1:35.183,34266,p,0,0,0
1:35.222,34280,),0,0,0
1:35.258,34293,(,0,0,1
1:35.289,34304,N,0,0,0
1:35.333,34320,),0,0,1
1:35.464,34367,(,0,0,2
1:35.583,34410,t,0,0,0
1:35.692,34449,),0,0,2
1:36.147,34613,(,0,0,0
1:36.183,34626,p,0,0,0
1:36.228,34642,),0,0,0
1:36.258,34653,(,0,0,1
1:36.292,34665,N,0,0,0
1:36.336,34681,),0,0,1
1:36.483,34734,(,0,0,2
1:36.567,34764,t,0,0,0
1:36.675,34803,),0,0,2
1:36.758,34833,(,0,0,1
1:36.878,34876,N,0,0,0
1:36.933,34896,),0,0,1
1:37.025,34929,(,0,0,2
1:37.103,34957,t,0,0,0
1:37.214,34997,),0,0,2
1:37.861,35230,(,0,0,0
1:37.897,35243,p,0,0,0
1:37.944,35260,),0,0,0
1:37.967,35268,(,0,0,1
1:37.997,35279,N,0,0,0
1:38.039,35294,),0,0,1
1:38.169,35341,(,0,0,2
1:38.261,35374,t,0,0,0
1:38.364,35411,),0,0,2
1:38.453,35443,(,0,0,1
1:38.558,35481,N,0,0,0
1:38.631,35507,),0,0,1
1:38.656,35516,t,0,0,2
1:38.789,35564,),0,0,2
1:38.917,35610,(,0,0,1
1:38.986,35635,N,0,0,0
1:39.117,35682,),0,0,1
1:39.125,35685,(,0,0,2
1:39.186,35707,t,0,0,1
1:39.292,35745,),0,0,2
1:40.142,36051,(,0,0,0
1:40.178,36064,p,0,0,0
1:40.219,36079,),0,0,0
1:40.247,36089,(,0,0,1
1:40.278,36100,N,0,0,0
1:40.319,36115,),0,0,1
1:40.450,36162,(,0,0,2
1:40.561,36202,t,0,0,0
1:40.664,36239,),0,0,2
1:40.728,36262,(,0,0,1
1:40.839,36302,N,0,0,0
1:40.931,36335,),0,0,1
1:40.997,36359,(,0,0,2
1:41.089,36392,t,0,0,0
1:41.203,36433,),0,0,2
1:41.953,36703,(,0,0,0
1:41.992,36717,p,0,0,0
1:42.033,36732,),0,0,0
1:42.061,36742,(,0,0,1
1:42.100,36756,N,0,0,0
1:42.128,36766,),0,0,1
1:42.289,36824,(,0,0,2
1:42.389,36860,t,0,0,0
1:42.500,36900,),0,0,2
1:42.550,36918,(,0,0,1
1:42.694,36970,N,0,0,0
1:42.767,36996,),0,0,1
1:42.803,37009,t,0,0,2
1:42.919,37051,),0,0,2
1:43.036,37093,(,0,0,1
1:43.117,37122,N,0,0,0
1:43.217,37158,),0,0,1
1:43.269,37177,(,0,0,2
1:43.311,37192,t,0,0,1
1:43.428,37234,),0,0,2
1:44.125,37485,(,0,0,0
1:44.147,37493,p,0,0,0
1:44.281,37541,),0,0,0
1:44.297,37547,(,0,0,1
1:44.389,37580,N,0,0,0
1:44.417,37590,),0,0,1
1:44.539,37634,(,0,0,2
1:44.661,37678,t,0,0,0
1:44.756,37712,),0,0,2
1:45.164,37859,(,0,0,0
1:45.206,37874,p,0,0,0
1:45.244,37888,),0,0,0
1:45.272,37898,(,0,0,1
1:45.311,37912,N,0,0,0
1:45.336,37921,),0,0,1
1:45.406,37946,t,0,0,2
1:45.578,38008,),0,0,2
1:45.603,38017,(,0,0,0
1:45.694,38050,p,0,0,0
1:45.731,38063,),0,0,0
1:45.747,38069,(,0,0,1
1:45.853,38107,N,0,0,0
1:45.922,38132,),0,0,1
1:45.953,38143,t,0,0,2
1:46.081,38189,),0,0,2
1:46.214,38237,(,0,0,1
1:46.292,38265,N,0,0,0
1:46.431,38315,),0,0,1
1:46.436,38317,(,0,0,2
1:46.497,38339,t,0,0,4
1:46.631,38387,t,0,0,4
1:46.656,38396,),0,0,2
1:47.500,38700,(,0,0,0
1:47.539,38714,p,0,0,0
1:47.586,38731,),0,0,0
1:47.619,38743,(,0,0,1
1:47.653,38755,N,0,0,0
1:47.692,38769,),0,0,1
1:47.769,38797,(,0,0,2
1:47.792,38805,t,0,0,1
1:47.933,38856,),0,0,2
1:48.089,38912,(,0,0,1
1:48.200,38952,N,0,0,0
1:48.269,38977,),0,0,1
1:48.375,39015,(,0,0,0
1:48.444,39040,p,0,0,0
1:48.531,39071,),0,0,0
1:48.564,39083,(,0,0,1
1:48.656,39116,N,0,0,0
1:48.808,39171,),0,0,1
1:48.814,39173,(,0,0,2
1:48.867,39192,t,0,0,4
1:49.000,39240,t,0,0,4
1:49.022,39248,),0,0,2
1:49.833,39540,(,0,0,0
1:49.869,39553,p,0,0,0
1:49.914,39569,),0,0,0
1:49.939,39578,(,0,0,1
1:49.969,39589,N,0,0,0
1:50.008,39603,),0,0,1
1:50.117,39642,(,0,0,2
1:50.236,39685,t,0,0,0
1:50.331,39719,),0,0,2
1:50.692,39849,(,0,0,0
1:50.728,39862,p,0,0,0
1:50.778,39880,),0,0,0
1:50.806,39890,(,0,0,1
1:50.839,39902,N,0,0,0
1:50.878,39916,),0,0,1
1:51.014,39965,(,0,0,2
1:51.106,39998,t,0,0,0
1:51.208,40035,),0,0,2
1:51.281,40061,(,0,0,1
1:51.386,40099,N,0,0,0
1:51.464,40127,),0,0,1
1:51.508,40143,t,0,0,2
1:51.617,40182,),0,0,2
1:51.747,40229,(,0,0,1
1:51.814,40253,N,0,0,0
1:51.917,40290,),0,0,1
1:51.958,40305,(,0,0,2
1:52.011,40324,t,0,0,1
1:52.133,40368,),0,0,2
1:52.944,40660,(,0,0,0
1:52.983,40674,p,0,0,0
1:53.025,40689,),0,0,0
1:53.056,40700,(,0,0,1
1:53.094,40714,N,0,0,0
1:53.119,40723,),0,0,1
1:53.267,40776,(,0,0,2
1:53.381,40817,t,0,0,0
1:53.494,40858,),0,0,2
1:53.819,40975,(,0,0,0
1:53.861,40990,p,0,0,0
1:53.903,41005,),0,0,0
1:53.942,41019,(,0,0,1
1:53.978,41032,N,0,0,0
1:54.006,41042,),0,0,1
1:54.133,41088,t,0,0,2
1:54.256,41132,),0,0,2
1:54.433,41196,(,0,0,1
1:54.544,41236,N,0,0,0
1:54.622,41264,),0,0,1
1:54.656,41276,t,0,0,2
1:54.778,41320,),0,0,2
1:54.906,41366,(,0,0,1
1:54.981,41393,N,0,0,0
1:55.089,41432,),0,0,1
1:55.117,41442,(,0,0,2
1:55.178,41464,t,0,0,1
1:55.286,41503,),0,0,2
1:56.064,41783,(,0,0,0
1:56.108,41799,p,0,0,0
1:56.150,41814,),0,0,0
1:56.175,41823,(,0,0,1
1:56.211,41836,N,0,0,0
1:56.239,41846,),0,0,1
1:56.372,41894,t,0,0,2
1:56.472,41930,),0,0,2
1:56.622,41984,(,0,0,1
1:56.711,42016,N,0,0,0
1:56.739,42026,),0,0,1
1:56.864,42071,(,0,0,2
1:56.942,42099,t,0,0,0
1:57.031,42131,),0,0,2
1:57.744,42388,(,0,0,0
1:57.781,42401,p,0,0,0
1:57.828,42418,),0,0,0
1:57.853,42427,(,0,0,1
1:57.886,42439,N,0,0,0
1:57.919,42451,),0,0,1
1:58.050,42498,t,0,0,2
1:58.161,42538,),0,0,2
1:58.344,42604,(,0,0,1
1:58.436,42637,N,0,0,0
1:58.506,42662,),0,0,1
1:58.508,42663,t,0,0,2
1:58.669,42721,),0,0,2
1:58.797,42767,(,0,0,1
1:58.875,42795,N,0,0,0
1:59.006,42842,),0,0,1
1:59.025,42849,(,0,0,2
1:59.075,42867,t,0,0,1
1:59.183,42906,),0,0,2
2:00.058,43221,(,0,0,0
2:00.097,43235,p,0,0,0
2:00.144,43252,),0,0,0
2:00.172,43262,(,0,0,1
2:00.206,43274,N,0,0,0
2:00.239,43286,),0,0,1
2:00.361,43330,t,0,0,2
2:00.492,43377,),0,0,2
2:00.656,43436,(,0,0,1
2:00.758,43473,N,0,0,0
2:00.825,43497,),0,0,1
2:00.897,43523,(,0,0,2
2:00.989,43556,t,0,0,0
2:01.106,43598,),0,0,2
2:01.822,43856,(,0,0,0
2:01.858,43869,p,0,0,0
2:01.897,43883,),0,0,0
2:01.922,43892,(,0,0,1
2:01.958,43905,N,0,0,0
2:01.986,43915,),0,0,1
2:02.111,43960,(,0,0,2
2:02.214,43997,t,0,0,0
2:02.317,44034,),0,0,2
2:02.372,44054,(,0,0,1
2:02.492,44097,N,0,0,0
2:02.581,44129,),0,0,1
2:02.625,44145,(,0,0,2
2:02.719,44179,t,0,0,0
2:02.833,44220,),0,0,2
2:03.478,44452,(,0,0,0
2:03.525,44469,p,0,0,0
2:03.567,44484,),0,0,0
2:03.589,44492,(,0,0,1
2:03.628,44506,N,0,0,0
2:03.656,44516,),0,0,1
2:03.739,44546,t,0,0,2
2:03.889,44600,),0,0,2
2:04.069,44665,(,0,0,1
2:04.142,44691,N,0,0,0
2:04.261,44734,),0,0,1
2:04.303,44749,t,0,0,2
2:04.422,44792,),0,0,2
2:04.547,44837,(,0,0,1
2:04.625,44865,N,0,0,0
2:04.761,44914,),0,0,1
2:04.817,44934,t,0,0,2
2:04.933,44976,),0,0,2
2:05.825,45297,(,0,0,0
2:05.861,45310,p,0,0,0
2:05.903,45325,),0,0,0
2:05.936,45337,(,0,0,1
2:05.969,45349,N,0,0,0
2:06.019,45367,),0,0,1
2:06.117,45402,t,0,0,2
2:06.242,45447,),0,0,2
2:06.483,45534,(,0,0,1
2:06.517,45546,N,0,0,0
2:06.686,45607,),0,0,1
2:06.714,45617,(,0,0,2
2:06.772,45638,t,0,0,0
2:06.892,45681,),0,0,2
2:07.569,45925,(,0,0,0
2:07.608,45939,p,0,0,0
2:07.644,45952,),0,0,0
2:07.675,45963,(,0,0,1
2:07.708,45975,N,0,0,0
2:07.733,45984,),0,0,1
2:07.858,46029,t,0,0,2
2:07.975,46071,),0,0,2
2:08.133,46128,(,0,0,1
2:08.244,46168,N,0,0,0
2:08.322,46196,),0,0,1
2:08.375,46215,t,0,0,2
2:08.472,46250,),0,0,2
2:08.600,46296,(,0,0,1
2:08.669,46321,N,0,0,0
2:08.803,46369,),0,0,1
2:08.806,46370,(,0,0,2
2:08.872,46394,t,0,0,1
2:08.983,46434,),0,0,2
2:09.789,46724,(,0,0,0
2:09.828,46738,p,0,0,0
2:09.867,46752,),0,0,0
2:09.897,46763,(,0,0,1
2:09.936,46777,N,0,0,0
2:09.967,46788,),0,0,1
2:10.106,46838,t,0,0,2
2:10.208,46875,),0,0,2
2:10.353,46927,(,0,0,1
2:10.467,46968,N,0,0,0
2:10.494,46978,),0,0,1
2:10.619,47023,(,0,0,2
2:10.697,47051,t,0,0,0
2:10.789,47084,),0,0,2
2:11.556,47360,(,0,0,0
2:11.594,47374,p,0,0,0
2:11.633,47388,),0,0,0
2:11.664,47399,(,0,0,1
2:11.700,47412,N,0,0,0
2:11.728,47422,),0,0,1
2:11.825,47457,t,0,0,2
2:11.989,47516,),0,0,2
2:12.172,47582,(,0,0,1
2:12.278,47620,N,0,0,0
2:12.344,47644,),0,0,1
2:12.397,47663,t,0,0,2
2:12.506,47702,),0,0,2
2:12.633,47748,(,0,0,1
2:12.719,47779,N,0,0,0
2:12.881,47837,),0,0,1
2:12.939,47858,(,0,0,2
2:13.036,47893,t,0,0,0
2:13.081,47909,),0,0,2
2:13.814,48173,(,0,0,0
2:13.853,48187,p,0,0,0
2:13.894,48202,),0,0,0
2:13.925,48213,(,0,0,1
2:13.958,48225,N,0,0,0
2:13.983,48234,),0,0,1
2:14.108,48279,t,0,0,2
2:14.225,48321,),0,0,2
2:14.381,48377,(,0,0,1
2:14.478,48412,N,0,0,0
2:14.503,48421,),0,0,1
2:14.589,48452,t,0,0,2
2:14.694,48490,),0,0,2
2:14.833,48540,(,0,0,1
2:14.906,48566,N,0,0,0
2:15.025,48609,),0,0,1
2:15.053,48619,(,0,0,2
2:15.114,48641,t,0,0,1
2:15.225,48681,),0,0,2
2:15.992,48957,(,0,0,0
2:16.028,48970,p,0,0,0
2:16.078,48988,),0,0,0
2:16.103,48997,(,0,0,1
2:16.133,49008,N,0,0,0
2:16.167,49020,),0,0,1
2:16.319,49075,t,0,0,2
2:16.406,49106,),0,0,2
2:16.592,49173,(,0,0,1
2:16.681,49205,N,0,0,0
2:16.747,49229,),0,0,1
2:16.803,49249,t,0,0,2
2:16.917,49290,),0,0,2
2:17.064,49343,(,0,0,1
2:17.147,49373,N,0,0,0
2:17.306,49430,),0,0,1
2:17.356,49448,t,0,0,2
2:17.494,49498,),0,0,2
2:18.283,49782,(,0,0,0
2:18.322,49796,p,0,0,0
2:18.361,49810,),0,0,0
2:18.394,49822,(,0,0,1
2:18.428,49834,N,0,0,0
2:18.456,49844,),0,0,1
2:18.628,49906,t,0,0,2
2:18.711,49936,),0,0,2
2:18.881,49997,(,0,0,1
2:18.950,50022,N,0,0,0
2:19.006,50042,),0,0,1
2:19.131,50087,(,0,0,2
2:19.208,50115,t,0,0,0
2:19.297,50147,),0,0,2
2:19.933,50376,(,0,0,0
2:19.969,50389,p,0,0,0
2:20.003,50401,),0,0,0
2:20.028,50410,(,0,0,1
2:20.064,50423,N,0,0,0
2:20.092,50433,),0,0,1
2:20.258,50493,(,0,0,2
2:20.331,50519,t,0,0,0
2:20.433,50556,),0,0,2
2:20.519,50587,(,0,0,1
2:20.611,50620,N,0,0,0
2:20.694,50650,),0,0,1
2:20.711,50656,t,0,0,2
2:20.825,50697,),0,0,2
2:20.950,50742,(,0,0,1
2:21.031,50771,N,0,0,0
2:21.128,50806,),0,0,1
2:21.167,50820,(,0,0,2
2:21.222,50840,t,0,0,1
2:21.347,50885,),0,0,2
2:22.114,51161,(,0,0,0
2:22.144,51172,p,0,0,0
2:22.183,51186,),0,0,0
2:22.219,51199,(,0,0,1
2:22.253,51211,N,0,0,0
2:22.283,51222,),0,0,1
2:22.419,51271,t,0,0,2
2:22.531,51311,),0,0,2
2:22.689,51368,(,0,0,1
2:22.814,51413,N,0,0,0
2:22.878,51436,),0,0,1
2:22.964,51467,(,0,0,2
2:23.047,51497,t,0,0,0
2:23.164,51539,),0,0,2
2:23.875,51795,(,0,0,0
2:23.919,51811,p,0,0,0
2:23.958,51825,),0,0,0
2:23.992,51837,(,0,0,1
2:24.025,51849,N,0,0,0
2:24.053,51859,),0,0,1
2:24.167,51900,t,0,0,2
2:24.300,51948,),0,0,2
2:24.489,52016,(,0,0,1
2:24.583,52050,N,0,0,0
2:24.669,52081,),0,0,1
2:24.703,52093,t,0,0,2
2:24.814,52133,),0,0,2
2:24.942,52179,(,0,0,1
2:25.025,52209,N,0,0,0
2:25.167,52260,),0,0,1
2:25.169,52261,(,0,0,2
2:25.225,52281,t,0,0,1
2:25.344,52324,),0,0,2
2:26.142,52611,(,0,0,0
2:26.183,52626,p,0,0,0
2:26.219,52639,),0,0,0
2:26.242,52647,(,0,0,1
2:26.281,52661,N,0,0,0
2:26.306,52670,),0,0,1
2:26.375,52695,t,0,0,2
2:26.531,52751,),0,0,2
2:26.711,52816,(,0,0,1
2:26.803,52849,N,0,0,0
2:26.922,52892,),0,0,1
2:26.931,52895,(,0,0,2
2:27.025,52929,t,0,0,0
2:27.136,52969,),0,0,2
2:27.839,53222,(,0,0,0
2:27.878,53236,p,0,0,0
2:27.919,53251,),0,0,0
2:27.947,53261,(,0,0,1
2:27.986,53275,N,0,0,0
2:28.014,53285,),0,0,1
2:28.139,53330,(,0,0,2
2:28.264,53375,t,0,0,0
2:28.347,53405,),0,0,2
2:28.667,53520,(,0,0,0
2:28.703,53533,p,0,0,0
2:28.747,53549,),0,0,0
2:28.783,53562,(,0,0,1
2:28.825,53577,N,0,0,0
2:28.853,53587,),0,0,1
2:28.997,53639,(,0,0,2
2:29.108,53679,t,0,0,0
2:29.231,53723,),0,0,2
2:29.486,53815,(,0,0,0
2:29.528,53830,p,0,0,0
2:29.572,53846,),0,0,0
2:29.597,53855,(,0,0,1
2:29.647,53873,N,0,0,0
2:29.675,53883,),0,0,1
2:29.822,53936,(,0,0,2
2:29.925,53973,t,0,0,0
2:30.064,54023,),0,0,2
2:30.414,54149,(,0,0,0
2:30.489,54176,p,0,0,0
2:30.578,54208,),0,0,0
2:30.611,54220,(,0,0,1
2:30.700,54252,N,0,0,0
2:30.753,54271,),0,0,1
2:30.844,54304,(,0,0,2
2:30.922,54332,t,0,0,1
2:31.111,54400,),0,0,2
2:31.850,54666,(,0,0,0
2:31.889,54680,p,0,0,0
2:31.919,54691,),0,0,0
2:31.942,54699,(,0,0,1
2:31.986,54715,N,0,0,0
2:32.014,54725,),0,0,1
2:32.103,54757,t,0,0,2
2:32.247,54809,),0,0,2
2:32.394,54862,(,0,0,1
2:32.464,54887,N,0,0,0
2:32.500,54900,),0,0,1
2:32.644,54952,(,0,0,2
2:32.725,54981,t,0,0,0
2:32.786,55003,),0,0,2
2:32.808,55011,(,0,0,1
2:32.944,55060,N,0,0,0
2:33.047,55097,),0,0,1
2:33.061,55102,(,0,0,2
2:33.133,55128,t,0,0,1
2:33.239,55166,),0,0,2
2:34.175,55503,(,0,0,0
2:34.211,55516,p,0,0,0
2:34.242,55527,),0,0,0
2:34.275,55539,(,0,0,1
2:34.328,55558,N,0,0,0
2:34.358,55569,),0,0,1
2:34.475,55611,t,0,0,2
2:34.614,55661,),0,0,2
2:34.756,55712,(,0,0,1
2:34.847,55745,N,0,0,0
2:34.900,55764,),0,0,1
2:35.000,55800,(,0,0,2
2:35.061,55822,t,0,0,1
2:35.186,55867,),0,0,2
2:35.925,56133,(,0,0,0
2:35.953,56143,p,0,0,0
2:36.072,56186,),0,0,0
2:36.089,56192,(,0,0,1
2:36.183,56226,N,0,0,0
2:36.214,56237,),0,0,1
2:36.361,56290,(,0,0,2
2:36.467,56328,t,0,0,0
2:36.589,56372,),0,0,2
2:36.931,56495,(,0,0,0
2:36.967,56508,p,0,0,0
2:37.003,56521,),0,0,0
2:37.033,56532,(,0,0,1
2:37.075,56547,N,0,0,0
2:37.103,56557,),0,0,1
2:37.247,56609,(,0,0,2
2:37.342,56643,t,0,0,0
2:37.464,56687,),0,0,2
2:37.744,56788,(,0,0,0
2:37.781,56801,p,0,0,0
2:37.819,56815,),0,0,0
2:37.853,56827,(,0,0,1
2:37.892,56841,N,0,0,0
2:37.922,56852,),0,0,1
2:38.044,56896,(,0,0,2
2:38.150,56934,t,0,0,0
2:38.258,56973,),0,0,2
2:38.672,57122,(,0,0,0
2:38.708,57135,p,0,0,0
2:38.744,57148,),0,0,0
2:38.769,57157,(,0,0,1
2:38.814,57173,N,0,0,0
2:38.842,57183,),0,0,1
2:38.972,57230,(,0,0,2
2:39.081,57269,t,0,0,0
2:39.206,57314,),0,0,2
2:39.567,57444,(,0,0,0
2:39.603,57457,p,0,0,0
2:39.639,57470,),0,0,0
2:39.658,57477,(,0,0,1
2:39.706,57494,N,0,0,0
2:39.733,57504,),0,0,1
2:39.869,57553,(,0,0,2
2:39.972,57590,t,0,0,0
2:40.097,57635,),0,0,2
2:40.661,57838,(,0,0,1
2:40.758,57873,N,0,0,0
2:40.886,57919,),0,0,1
2:40.894,57922,(,0,0,2
2:40.978,57952,t,0,0,1
2:41.081,57989,),0,0,2
2:41.933,58296,(,0,0,0
2:41.967,58308,p,0,0,0
2:42.000,58320,),0,0,0
2:42.011,58324,(,0,0,1
2:42.067,58344,N,0,0,0
2:42.100,58356,),0,0,1
2:42.206,58394,t,0,0,2
2:42.344,58444,),0,0,2
2:42.492,58497,(,0,0,1
2:42.592,58533,N,0,0,0
2:42.631,58547,),0,0,1
2:42.769,58597,(,0,0,2
2:42.803,58609,t,0,0,1
2:42.900,58644,),0,0,2
2:43.728,58942,(,0,0,0
2:43.767,58956,p,0,0,0
2:43.800,58968,),0,0,0
2:43.814,58973,(,0,0,1
2:43.864,58991,N,0,0,0
2:43.894,59002,),0,0,1
2:43.964,59027,t,0,0,2
2:44.122,59084,),0,0,2
2:44.294,59146,(,0,0,1
2:44.411,59188,N,0,0,0
2:44.494,59218,),0,0,1
2:44.506,59222,t,0,0,2
2:44.614,59261,),0,0,2
2:44.728,59302,(,0,0,1
2:44.803,59329,N,0,0,0
2:44.914,59369,),0,0,1
2:44.933,59376,(,0,0,2
2:44.994,59398,t,0,0,1
2:45.100,59436,),0,0,2
2:45.881,59717,(,0,0,0
2:45.922,59732,p,0,0,0
2:45.958,59745,),0,0,0
2:45.975,59751,(,0,0,1
2:46.025,59769,N,0,0,0
2:46.053,59779,),0,0,1
2:46.117,59802,t,0,0,2
2:46.292,59865,),0,0,2
2:46.428,59914,(,0,0,1
2:46.536,59953,N,0,0,0
2:46.589,59972,),0,0,1
2:46.669,60001,(,0,0,2
2:46.747,60029,t,0,0,1
2:46.856,60068,),0,0,2
2:47.711,60376,(,0,0,0
2:47.753,60391,p,0,0,0
2:47.794,60406,),0,0,0
2:47.822,60416,(,0,0,1
2:47.864,60431,N,0,0,0
2:47.894,60442,),0,0,1
2:47.964,60467,t,0,0,2
2:48.150,60534,),0,0,2
2:48.306,60590,(,0,0,1
2:48.428,60634,N,0,0,0
2:48.486,60655,),0,0,1
2:48.542,60675,(,0,0,2
2:48.633,60708,t,0,0,1
2:48.736,60745,),0,0,2
2:49.469,61009,(,0,0,0
2:49.486,61015,p,0,0,0
2:49.564,61043,),0,0,0
2:49.581,61049,(,0,0,1
2:49.672,61082,N,0,0,0
2:49.700,61092,),0,0,1
2:49.769,61117,t,0,0,2
2:49.928,61174,),0,0,2
2:50.094,61234,(,0,0,1
2:50.208,61275,N,0,0,0
2:50.264,61295,),0,0,1
2:50.303,61309,(,0,0,2
2:50.406,61346,t,0,0,1
2:50.503,61381,),0,0,2
2:51.325,61677,(,0,0,0
2:51.367,61692,p,0,0,0
2:51.403,61705,),0,0,0
2:51.428,61714,(,0,0,1
2:51.469,61729,N,0,0,0
2:51.497,61739,),0,0,1
2:51.633,61788,(,0,0,2
2:51.736,61825,t,0,0,0
2:51.844,61864,),0,0,2
2:52.342,62043,(,0,0,0
2:52.383,62058,p,0,0,0
2:52.422,62072,),0,0,0
2:52.444,62080,(,0,0,1
2:52.494,62098,N,0,0,0
2:52.522,62108,),0,0,1
2:52.656,62156,(,0,0,2
2:52.772,62198,t,0,0,0
2:52.903,62245,),0,0,2
2:53.422,62432,(,0,0,0
2:53.464,62447,p,0,0,0
2:53.500,62460,),0,0,0
2:53.533,62472,(,0,0,1
2:53.575,62487,N,0,0,0
2:53.606,62498,),0,0,1
2:53.753,62551,(,0,0,2
2:53.853,62587,t,0,0,0
2:53.981,62633,),0,0,2
2:54.358,62769,(,0,0,0
2:54.397,62783,p,0,0,0
2:54.431,62795,),0,0,0
2:54.456,62804,(,0,0,1
2:54.506,62822,N,0,0,0
2:54.533,62832,),0,0,1
2:54.667,62880,(,0,0,2
2:54.775,62919,t,0,0,0
2:54.886,62959,),0,0,2
2:55.200,63072,(,0,0,0
2:55.247,63089,p,0,0,0
2:55.283,63102,),0,0,0
2:55.311,63112,(,0,0,1
2:55.353,63127,N,0,0,0
2:55.383,63138,),0,0,1
2:55.528,63190,(,0,0,2
2:55.619,63223,t,0,0,0
2:55.739,63266,),0,0,2
2:56.239,63446,(,0,0,0
2:56.278,63460,p,0,0,0
2:56.311,63472,),0,0,0
2:56.331,63479,(,0,0,1
2:56.383,63498,N,0,0,0
2:56.414,63509,),0,0,1
2:56.564,63563,(,0,0,2
2:56.653,63595,t,0,0,0
2:56.758,63633,),0,0,2
2:56.861,63670,(,0,0,1
2:56.967,63708,N,0,0,0
2:57.028,63730,),0,0,1
2:57.086,63751,t,0,0,2
2:57.183,63786,),0,0,2
2:57.319,63835,(,0,0,1
2:57.394,63862,N,0,0,0
2:57.494,63898,),0,0,1
2:57.522,63908,(,0,0,2
2:57.606,63938,t,0,0,1
2:57.714,63977,),0,0,2
2:57.786,64003,(,0,0,1
2:57.925,64053,N,0,0,0
2:58.006,64082,),0,0,1
2:58.042,64095,(,0,0,2
2:58.147,64133,t,0,0,0
2:58.292,64185,),0,0,2
2:59.136,64489,(,0,0,0
2:59.161,64498,p,0,0,0
2:59.283,64542,),0,0,0
2:59.294,64546,(,0,0,1
2:59.353,64567,N,0,0,0
2:59.386,64579,),0,0,1
2:59.483,64614,t,0,0,2
2:59.647,64673,),0,0,2
2:59.811,64732,(,0,0,1
2:59.903,64765,N,0,0,0
2:59.947,64781,),0,0,1
3:00.047,64817,(,0,0,2
3:00.114,64841,t,0,0,1
3:00.236,64885,),0,0,2
3:01.214,65237,(,0,0,0
3:01.247,65249,p,0,0,0
3:01.283,65262,),0,0,0
3:01.300,65268,(,0,0,1
3:01.350,65286,N,0,0,0
3:01.381,65297,),0,0,1
3:01.517,65346,(,0,0,2
3:01.622,65384,t,0,0,0
3:01.750,65430,),0,0,2
3:02.372,65654,(,0,0,1
3:02.511,65704,N,0,0,0
3:02.542,65715,),0,0,1
3:02.681,65765,(,0,0,2
3:02.781,65801,t,0,0,0
3:02.894,65842,),0,0,2
3:03.475,66051,(,0,0,0
3:03.514,66065,p,0,0,0
3:03.547,66077,),0,0,0
3:03.569,66085,(,0,0,1
3:03.619,66103,N,0,0,0
3:03.650,66114,),0,0,1
3:03.808,66171,(,0,0,2
3:03.892,66201,t,0,0,0
3:04.014,66245,),0,0,2
3:04.522,66428,(,0,0,0
3:04.561,66442,p,0,0,0
3:04.600,66456,),0,0,0
3:04.619,66463,(,0,0,1
3:04.681,66485,N,0,0,0
3:04.708,66495,),0,0,1
3:04.875,66555,(,0,0,2
3:04.961,66586,t,0,0,0
3:05.103,66637,),0,0,2
3:05.631,66827,(,0,0,0
3:05.675,66843,p,0,0,0
3:05.722,66860,),0,0,0
3:05.733,66864,(,0,0,1
3:05.792,66885,N,0,0,0
3:05.822,66896,),0,0,1
3:05.983,66954,(,0,0,2
3:06.078,66988,t,0,0,0
3:06.222,67040,),0,0,2
3:06.797,67247,(,0,0,0
3:06.839,67262,p,0,0,0
3:06.875,67275,),0,0,0
3:06.908,67287,(,0,0,1
3:06.947,67301,N,0,0,0
3:06.978,67312,),0,0,1
3:07.128,67366,(,0,0,2
3:07.222,67400,t,0,0,0
3:07.344,67444,),0,0,2
3:07.919,67651,(,0,0,0
3:07.953,67663,p,0,0,0
3:07.992,67677,),0,0,0
3:08.011,67684,(,0,0,1
3:08.058,67701,N,0,0,0
3:08.086,67711,),0,0,1
3:08.242,67767,(,0,0,2
3:08.328,67798,t,0,0,0
3:08.444,67840,),0,0,2
3:09.008,68043,(,0,0,0
3:09.044,68056,p,0,0,0
3:09.081,68069,),0,0,0
3:09.111,68080,(,0,0,1
3:09.150,68094,N,0,0,0
3:09.175,68103,),0,0,1
3:09.336,68161,(,0,0,2
3:09.419,68191,t,0,0,0
3:09.550,68238,),0,0,2
3:10.025,68409,(,0,0,0
3:10.064,68423,p,0,0,0
3:10.106,68438,),0,0,0
3:10.117,68442,(,0,0,1
3:10.175,68463,N,0,0,0
3:10.219,68479,),0,0,1
3:10.350,68526,(,0,0,2
3:10.453,68563,t,0,0,0
3:10.583,68610,),0,0,2
3:11.147,68813,(,0,0,0
3:11.189,68828,p,0,0,0
3:11.231,68843,),0,0,0
3:11.267,68856,(,0,0,1
3:11.303,68869,N,0,0,0
3:11.331,68879,),0,0,1
3:11.503,68941,(,0,0,2
3:11.583,68970,t,0,0,0
3:11.694,69010,),0,0,2
3:12.275,69219,(,0,0,0
3:12.306,69230,p,0,0,0
3:12.339,69242,),0,0,0
3:12.347,69245,(,0,0,1
3:12.414,69269,N,0,0,0
3:12.442,69279,),0,0,1
3:12.636,69349,(,0,0,2
3:12.700,69372,t,0,0,0
3:12.842,69423,),0,0,2
3:13.286,69583,(,0,0,0
3:13.319,69595,p,0,0,0
3:13.372,69614,),0,0,0
3:13.394,69622,(,0,0,1
3:13.431,69635,N,0,0,0
3:13.456,69644,),0,0,1
3:13.608,69699,(,0,0,2
3:13.700,69732,t,0,0,0
3:13.817,69774,),0,0,2
3:14.203,69913,(,0,0,0
3:14.236,69925,p,0,0,0
3:14.278,69940,),0,0,0
3:14.308,69951,(,0,0,1
3:14.344,69964,N,0,0,0
3:14.369,69973,),0,0,1
3:14.528,70030,(,0,0,2
3:14.606,70058,t,0,0,0
3:14.725,70101,),0,0,2
3:15.078,70228,(,0,0,0
3:15.117,70242,p,0,0,0
3:15.153,70255,),0,0,0
3:15.183,70266,(,0,0,1
3:15.222,70280,N,0,0,0
3:15.253,70291,),0,0,1
3:15.408,70347,(,0,0,2
3:15.497,70379,t,0,0,0
3:15.619,70423,),0,0,2
3:16.008,70563,(,0,0,0
3:16.044,70576,p,0,0,0
3:16.089,70592,),0,0,0
3:16.125,70605,(,0,0,1
3:16.161,70618,N,0,0,0
3:16.206,70634,),0,0,1
3:16.364,70691,(,0,0,2
3:16.456,70724,t,0,0,0
3:16.597,70775,),0,0,2
3:17.064,70943,(,0,0,0
3:17.097,70955,p,0,0,0
3:17.142,70971,),0,0,0
3:17.181,70985,(,0,0,1
3:17.214,70997,N,0,0,0
3:17.258,71013,),0,0,1
3:17.428,71074,(,0,0,2
3:17.508,71103,t,0,0,0
3:17.644,71152,),0,0,2
3:18.203,71353,(,0,0,0
3:18.236,71365,p,0,0,0
3:18.281,71381,),0,0,0
3:18.317,71394,(,0,0,1
3:18.350,71406,N,0,0,0
3:18.392,71421,),0,0,1
3:18.553,71479,(,0,0,2
3:18.642,71511,t,0,0,0
3:18.769,71557,),0,0,2
3:19.342,71763,(,0,0,0
3:19.375,71775,p,0,0,0
3:19.419,71791,),0,0,0
3:19.453,71803,(,0,0,1
3:19.486,71815,N,0,0,0
3:19.525,71829,),0,0,1
3:19.672,71882,(,0,0,2
3:19.758,71913,t,0,0,0
3:19.872,71954,),0,0,2
3:20.394,72142,(,0,0,0
3:20.428,72154,p,0,0,0
3:20.467,72168,),0,0,0
3:20.500,72180,(,0,0,1
3:20.533,72192,N,0,0,0
3:20.581,72209,),0,0,1
3:20.722,72260,(,0,0,2
3:20.808,72291,t,0,0,0
3:20.928,72334,),0,0,2
3:21.406,72506,(,0,0,0
3:21.439,72518,p,0,0,0
3:21.481,72533,),0,0,0
3:21.519,72547,(,0,0,1
3:21.550,72558,N,0,0,0
3:21.592,72573,),0,0,1
3:21.742,72627,(,0,0,2
3:21.831,72659,t,0,0,0
3:21.950,72702,),0,0,2
3:22.472,72890,(,0,0,0
3:22.508,72903,p,0,0,0
3:22.553,72919,),0,0,0
3:22.589,72932,(,0,0,1
3:22.622,72944,N,0,0,0
3:22.664,72959,),0,0,1
3:22.822,73016,(,0,0,2
3:22.917,73050,t,0,0,0
3:23.047,73097,),0,0,2
3:23.561,73282,(,0,0,0
3:23.597,73295,p,0,0,0
3:23.636,73309,),0,0,0
3:23.675,73323,(,0,0,1
3:23.708,73335,N,0,0,0
3:23.753,73351,),0,0,1
3:23.906,73406,(,0,0,2
3:24.003,73441,t,0,0,0
3:24.147,73493,),0,0,2
3:24.650,73674,(,0,0,0
3:24.686,73687,p,0,0,0
3:24.731,73703,),0,0,0
3:24.769,73717,(,0,0,1
3:24.803,73729,N,0,0,0
3:24.847,73745,),0,0,1
3:25.003,73801,(,0,0,2
3:25.094,73834,t,0,0,0
3:25.225,73881,),0,0,2
3:25.656,74036,(,0,0,0
3:25.689,74048,p,0,0,0
3:25.728,74062,),0,0,0
3:25.761,74074,(,0,0,1
3:25.794,74086,N,0,0,0
3:25.839,74102,),0,0,1
3:25.989,74156,(,0,0,2
3:26.075,74187,t,0,0,0
3:26.197,74231,),0,0,2
3:26.553,74359,(,0,0,0
3:26.586,74371,p,0,0,0
3:26.625,74385,),0,0,0
3:26.656,74396,(,0,0,1
3:26.686,74407,N,0,0,0
3:26.728,74422,),0,0,1
3:26.867,74472,(,0,0,2
3:26.956,74504,t,0,0,0
3:27.078,74548,),0,0,2
3:27.472,74690,(,0,0,0
3:27.506,74702,p,0,0,0
3:27.547,74717,),0,0,0
3:27.583,74730,(,0,0,1
3:27.614,74741,N,0,0,0
3:27.656,74756,),0,0,1
3:27.803,74809,(,0,0,2
3:27.897,74843,t,0,0,0
3:28.031,74891,),0,0,2
3:28.564,75083,(,0,0,0
3:28.600,75096,p,0,0,0
3:28.644,75112,),0,0,0
3:28.683,75126,(,0,0,1
3:28.717,75138,N,0,0,0
3:28.758,75153,),0,0,1
3:28.922,75212,(,0,0,2
3:29.008,75243,t,0,0,0
3:29.144,75292,),0,0,2
3:29.608,75459,(,0,0,0
3:29.644,75472,p,0,0,0
3:29.686,75487,),0,0,0
3:29.725,75501,(,0,0,1
3:29.758,75513,N,0,0,0
3:29.803,75529,),0,0,1
3:29.969,75589,(,0,0,2
3:30.061,75622,t,0,0,0
3:30.217,75678,),0,0,2
3:30.706,75854,(,0,0,0
3:30.739,75866,p,0,0,0
3:30.783,75882,),0,0,0
3:30.819,75895,(,0,0,1
3:30.850,75906,N,0,0,0
3:30.892,75921,),0,0,1
3:31.050,75978,(,0,0,2
3:31.133,76008,t,0,0,0
3:31.261,76054,),0,0,2
3:31.767,76236,(,0,0,0
3:31.800,76248,p,0,0,0
3:31.842,76263,),0,0,0
3:31.875,76275,(,0,0,1
3:31.906,76286,N,0,0,0
3:31.947,76301,),0,0,1
3:32.092,76353,(,0,0,2
3:32.181,76385,t,0,0,0
3:32.300,76428,),0,0,2
3:32.825,76617,(,0,0,0
3:32.861,76630,p,0,0,0
3:32.903,76645,),0,0,0
3:32.939,76658,(,0,0,1
3:32.969,76669,N,0,0,0
3:33.011,76684,),0,0,1
3:33.156,76736,(,0,0,2
3:33.250,76770,t,0,0,0
3:33.369,76813,),0,0,2
3:33.808,76971,(,0,0,0
3:33.842,76983,p,0,0,0
3:33.883,76998,),0,0,0
3:33.919,77011,(,0,0,1
3:33.953,77023,N,0,0,0
3:33.994,77038,),0,0,1
3:34.150,77094,(,0,0,2
3:34.244,77128,t,0,0,0
3:34.381,77177,),0,0,2
3:34.850,77346,(,0,0,0
3:34.883,77358,p,0,0,0
3:34.928,77374,),0,0,0
3:34.967,77388,(,0,0,1
3:34.997,77399,N,0,0,0
3:35.042,77415,),0,0,1
3:35.197,77471,(,0,0,2
3:35.286,77503,t,0,0,0
3:35.411,77548,),0,0,2
3:35.881,77717,(,0,0,0
3:35.914,77729,p,0,0,0
3:35.958,77745,),0,0,0
3:35.994,77758,(,0,0,1
3:36.028,77770,N,0,0,0
3:36.069,77785,),0,0,1
3:36.233,77844,(,0,0,2
3:36.319,77875,t,0,0,0
3:36.450,77922,),0,0,2
3:36.953,78103,(,0,0,0
3:36.986,78115,p,0,0,0
3:37.031,78131,),0,0,0
3:37.067,78144,(,0,0,1
3:37.097,78155,N,0,0,0
3:37.139,78170,),0,0,1
3:37.278,78220,(,0,0,2
3:37.375,78255,t,0,0,0
3:37.506,78302,),0,0,2
3:37.914,78449,(,0,0,0
3:37.947,78461,p,0,0,0
3:37.986,78475,),0,0,0
3:38.019,78487,(,0,0,1
3:38.053,78499,N,0,0,0
3:38.097,78515,),0,0,1
3:38.244,78568,(,0,0,2
3:38.331,78599,t,0,0,0
3:38.456,78644,),0,0,2
3:38.906,78806,(,0,0,0
3:38.936,78817,p,0,0,0
3:38.981,78833,),0,0,0
3:39.011,78844,(,0,0,1
3:39.044,78856,N,0,0,0
3:39.083,78870,),0,0,1
3:39.231,78923,(,0,0,2
3:39.314,78953,t,0,0,0
3:39.436,78997,),0,0,2
3:40.022,79208,(,0,0,0
3:40.056,79220,p,0,0,0
3:40.097,79235,),0,0,0
3:40.133,79248,(,0,0,1
3:40.167,79260,N,0,0,0
3:40.206,79274,),0,0,1
3:40.364,79331,(,0,0,2
3:40.450,79362,t,0,0,0
3:40.567,79404,),0,0,2
3:41.094,79594,(,0,0,0
3:41.128,79606,p,0,0,0
3:41.175,79623,),0,0,0
3:41.214,79637,(,0,0,1
3:41.247,79649,N,0,0,0
3:41.289,79664,),0,0,1
3:41.447,79721,(,0,0,2
3:41.547,79757,t,0,0,0
3:41.672,79802,),0,0,2
3:42.156,79976,(,0,0,0
3:42.192,79989,p,0,0,0
3:42.239,80006,),0,0,0
3:42.278,80020,(,0,0,1
3:42.311,80032,N,0,0,0
3:42.353,80047,),0,0,1
3:42.508,80103,(,0,0,2
3:42.597,80135,t,0,0,0
3:42.708,80175,),0,0,2
3:43.117,80322,(,0,0,0
3:43.150,80334,p,0,0,0
3:43.189,80348,),0,0,0
3:43.225,80361,(,0,0,1
3:43.258,80373,N,0,0,0
3:43.303,80389,),0,0,1
3:43.450,80442,(,0,0,2
3:43.531,80471,t,0,0,0
3:43.647,80513,),0,0,2
3:43.978,80632,(,0,0,0
3:44.014,80645,p,0,0,0
3:44.058,80661,),0,0,0
3:44.092,80673,(,0,0,1
3:44.125,80685,N,0,0,0
3:44.167,80700,),0,0,1
3:44.311,80752,(,0,0,2
3:44.394,80782,t,0,0,0
3:44.517,80826,),0,0,2
3:44.908,80967,(,0,0,0
3:44.944,80980,p,0,0,0
3:44.986,80995,),0,0,0
3:45.019,81007,(,0,0,1
3:45.050,81018,N,0,0,0
3:45.092,81033,),0,0,1
3:45.244,81088,(,0,0,2
3:45.328,81118,t,0,0,0
3:45.444,81160,),0,0,2
3:45.928,81334,(,0,0,0
3:45.964,81347,p,0,0,0
3:46.008,81363,),0,0,0
3:46.047,81377,(,0,0,1
3:46.081,81389,N,0,0,0
3:46.122,81404,),0,0,1
3:46.289,81464,(,0,0,2
3:46.375,81495,t,0,0,0
3:46.508,81543,),0,0,2
3:47.075,81747,(,0,0,0
3:47.111,81760,p,0,0,0
3:47.153,81775,),0,0,0
3:47.197,81791,(,0,0,1
3:47.231,81803,N,0,0,0
3:47.275,81819,),0,0,1
3:47.433,81876,(,0,0,2
3:47.528,81910,t,0,0,0
3:47.667,81960,),0,0,2
3:48.222,82160,(,0,0,0
3:48.256,82172,p,0,0,0
3:48.300,82188,),0,0,0
3:48.336,82201,(,0,0,1
3:48.367,82212,N,0,0,0
3:48.414,82229,),0,0,1
3:48.569,82285,(,0,0,2
3:48.661,82318,t,0,0,0
3:48.797,82367,),0,0,2
3:49.256,82532,(,0,0,0
3:49.292,82545,p,0,0,0
3:49.333,82560,),0,0,0
3:49.369,82573,(,0,0,1
3:49.403,82585,N,0,0,0
3:49.442,82599,),0,0,1
3:49.589,82652,(,0,0,2
3:49.678,82684,t,0,0,0
3:49.806,82730,),0,0,2
3:50.253,82891,(,0,0,0
3:50.286,82903,p,0,0,0
3:50.328,82918,),0,0,0
3:50.367,82932,(,0,0,1
3:50.397,82943,N,0,0,0
3:50.439,82958,),0,0,1
3:50.583,83010,(,0,0,2
3:50.675,83043,t,0,0,0
3:50.797,83087,),0,0,2
3:51.261,83254,(,0,0,0
3:51.294,83266,p,0,0,0
3:51.339,83282,),0,0,0
3:51.372,83294,(,0,0,1
3:51.406,83306,N,0,0,0
3:51.444,83320,),0,0,1
3:51.597,83375,(,0,0,2
3:51.689,83408,t,0,0,0
3:51.814,83453,),0,0,2
3:52.253,83611,(,0,0,0
3:52.286,83623,p,0,0,0
3:52.328,83638,),0,0,0
3:52.364,83651,(,0,0,1
3:52.397,83663,N,0,0,0
3:52.442,83679,),0,0,1
3:52.589,83732,(,0,0,2
3:52.686,83767,t,0,0,0
3:52.814,83813,),0,0,2
3:53.269,83977,(,0,0,0
3:53.306,83990,p,0,0,0
3:53.353,84007,),0,0,0
3:53.394,84022,(,0,0,1
3:53.428,84034,N,0,0,0
3:53.469,84049,),0,0,1
3:53.636,84109,(,0,0,2
3:53.728,84142,t,0,0,0
3:53.875,84195,),0,0,2
3:54.392,84381,(,0,0,0
3:54.428,84394,p,0,0,0
3:54.472,84410,),0,0,0
3:54.508,84423,(,0,0,1
3:54.539,84434,N,0,0,0
3:54.581,84449,),0,0,1
3:54.747,84509,(,0,0,2
3:54.836,84541,t,0,0,0
3:54.989,84596,),0,0,2
3:55.514,84785,(,0,0,0
3:55.547,84797,p,0,0,0
3:55.586,84811,),0,0,0
3:55.622,84824,(,0,0,1
3:55.653,84835,N,0,0,0
3:55.697,84851,),0,0,1
3:55.850,84906,(,0,0,2
3:55.939,84938,t,0,0,0
3:56.064,84983,),0,0,2
3:56.558,85161,(,0,0,0
3:56.592,85173,p,0,0,0
3:56.633,85188,),0,0,0
3:56.667,85200,(,0,0,1
3:56.700,85212,N,0,0,0
3:56.739,85226,),0,0,1
3:56.889,85280,(,0,0,2
3:56.981,85313,t,0,0,0
3:57.100,85356,),0,0,2
3:57.631,85547,(,0,0,0
3:57.664,85559,p,0,0,0
3:57.706,85574,),0,0,0
3:57.742,85587,(,0,0,1
3:57.775,85599,N,0,0,0
3:57.814,85613,),0,0,1
3:57.967,85668,(,0,0,2
3:58.061,85702,t,0,0,0
3:58.194,85750,),0,0,2
3:58.761,85954,(,0,0,0
3:58.797,85967,p,0,0,0
3:58.842,85983,),0,0,0
3:58.883,85998,(,0,0,1
3:58.917,86010,N,0,0,0
3:58.961,86026,),0,0,1
3:59.792,86325,(,0,0,0
3:59.828,86338,p,0,0,0
3:59.872,86354,),0,0,0
3:59.908,86367,(,0,0,1
3:59.942,86379,N,0,0,0
3:59.986,86395,),0,0,1
4:00.142,86451,(,0,0,2
4:00.242,86487,t,0,0,0
4:00.386,86539,),0,0,2
4:00.839,86702,(,0,0,0
4:00.872,86714,p,0,0,0
4:00.917,86730,),0,0,0
4:00.953,86743,(,0,0,1
4:00.983,86754,N,0,0,0
4:01.025,86769,),0,0,1
4:01.175,86823,(,0,0,2
4:01.264,86855,t,0,0,0
4:01.389,86900,),0,0,2
4:01.889,87080,(,0,0,0
4:01.925,87093,p,0,0,0
4:01.967,87108,),0,0,0
4:01.997,87119,(,0,0,1
4:02.031,87131,N,0,0,0
4:02.072,87146,),0,0,1
4:02.219,87199,(,0,0,2
4:02.308,87231,t,0,0,0
4:02.431,87275,),0,0,2
4:02.933,87456,(,0,0,0
4:02.967,87468,p,0,0,0
4:03.006,87482,),0,0,0
4:03.042,87495,(,0,0,1
4:03.072,87506,N,0,0,0
4:03.114,87521,),0,0,1
4:03.261,87574,(,0,0,2
4:03.358,87609,t,0,0,0
4:03.486,87655,),0,0,2
4:03.981,87833,(,0,0,0
4:04.017,87846,p,0,0,0
4:04.061,87862,),0,0,0
4:04.100,87876,(,0,0,1
4:04.133,87888,N,0,0,0
4:04.172,87902,),0,0,1
4:04.333,87960,(,0,0,2
4:04.428,87994,t,0,0,0
4:04.564,88043,),0,0,2
4:05.117,88242,(,0,0,0
4:05.153,88255,p,0,0,0
4:05.203,88273,),0,0,0
4:05.236,88285,(,0,0,1
4:05.269,88297,N,0,0,0
4:05.314,88313,),0,0,1
4:06.269,88657,(,0,0,0
4:06.303,88669,p,0,0,0
4:06.361,88690,),0,0,0
4:06.383,88698,(,0,0,1
4:06.417,88710,N,0,0,0
4:06.461,88726,),0,0,1
4:06.639,88790,(,0,0,2
4:06.717,88818,t,0,0,0
4:06.825,88857,),0,0,2
4:07.342,89043,(,0,0,0
4:07.375,89055,p,0,0,0
4:07.414,89069,),0,0,0
4:07.456,89084,(,0,0,1
4:07.486,89095,N,0,0,0
4:07.528,89110,),0,0,1
4:07.686,89167,(,0,0,2
4:07.775,89199,t,0,0,0
4:07.886,89239,),0,0,2
4:08.281,89381,(,0,0,0
4:08.311,89392,p,0,0,0
4:08.350,89406,),0,0,0
4:08.381,89417,(,0,0,1
4:08.414,89429,N,0,0,0
4:08.464,89447,),0,0,1
4:08.608,89499,(,0,0,2
4:08.694,89530,t,0,0,0
4:08.819,89575,),0,0,2
4:09.144,89692,(,0,0,0
4:09.178,89704,p,0,0,0
4:09.217,89718,),0,0,0
4:09.250,89730,(,0,0,1
4:09.281,89741,N,0,0,0
4:09.319,89755,),0,0,1
4:09.469,89809,(,0,0,2
4:09.556,89840,t,0,0,0
4:09.681,89885,),0,0,2
4:10.011,90004,(,0,0,0
4:10.047,90017,p,0,0,0
4:10.086,90031,),0,0,0
4:10.125,90045,(,0,0,1
4:10.156,90056,N,0,0,0
4:10.197,90071,),0,0,1
4:10.350,90126,(,0,0,2
4:10.447,90161,t,0,0,0
4:10.575,90207,),0,0,2
4:10.958,90345,(,0,0,0
4:10.992,90357,p,0,0,0
4:11.031,90371,),0,0,0
4:11.072,90386,(,0,0,1
4:11.103,90397,N,0,0,0
4:11.144,90412,),0,0,1
4:11.303,90469,(,0,0,2
4:11.394,90502,t,0,0,0
4:11.533,90552,),0,0,2
4:12.006,90722,(,0,0,0
4:12.042,90735,p,0,0,0
4:12.086,90751,),0,0,0
4:12.125,90765,(,0,0,1
4:12.156,90776,N,0,0,0
4:12.197,90791,),0,0,1
4:12.358,90849,(,0,0,2
4:12.447,90881,t,0,0,0
4:12.581,90929,),0,0,2
4:13.000,91080,(,0,0,0
4:13.033,91092,p,0,0,0
4:13.078,91108,),0,0,0
4:13.114,91121,(,0,0,1
4:13.144,91132,N,0,0,0
4:13.186,91147,),0,0,1
4:13.322,91196,(,0,0,2
4:13.422,91232,t,0,0,0
4:13.539,91274,),0,0,2
4:13.892,91401,(,0,0,0
4:13.928,91414,p,0,0,0
4:13.969,91429,),0,0,0
4:14.006,91442,(,0,0,1
4:14.039,91454,N,0,0,0
4:14.081,91469,),0,0,1
4:14.208,91515,(,0,0,2
4:14.314,91553,t,0,0,0
4:14.397,91583,),0,0,2
4:14.722,91700,(,0,0,0
4:14.761,91714,p,0,0,0
4:14.800,91728,),0,0,0
4:14.836,91741,(,0,0,1
4:14.867,91752,N,0,0,0
4:14.906,91766,),0,0,1
4:15.053,91819,(,0,0,2
4:15.142,91851,t,0,0,0
4:15.247,91889,),0,0,2
4:15.536,91993,(,0,0,0
4:15.572,92006,p,0,0,0
4:15.614,92021,),0,0,0
4:15.650,92034,(,0,0,1
4:15.681,92045,N,0,0,0
4:15.725,92061,),0,0,1
4:15.878,92116,(,0,0,2
4:15.967,92148,t,0,0,0
4:16.094,92194,),0,0,2
4:16.358,92289,(,0,0,0
4:16.394,92302,p,0,0,0
4:16.439,92318,),0,0,0
4:16.478,92332,(,0,0,1
4:16.511,92344,N,0,0,0
4:16.553,92359,),0,0,1
4:16.714,92417,(,0,0,2
4:16.803,92449,t,0,0,0
4:16.919,92491,),0,0,2
4:17.222,92600,(,0,0,0
4:17.264,92615,p,0,0,0
4:17.308,92631,),0,0,0
4:17.347,92645,(,0,0,1
4:17.381,92657,N,0,0,0
4:17.422,92672,),0,0,1
4:17.589,92732,(,0,0,2
4:17.678,92764,t,0,0,0
4:17.822,92816,),0,0,2
4:18.222,92960,(,0,0,0
4:18.258,92973,p,0,0,0
4:18.297,92987,),0,0,0
4:18.317,92994,(,0,0,1
4:18.372,93014,N,0,0,0
4:18.414,93029,),0,0,1
4:18.553,93079,(,0,0,2
4:18.661,93118,t,0,0,0
4:18.786,93163,),0,0,2
4:19.278,93340,(,0,0,0
4:19.314,93353,p,0,0,0
4:19.353,93367,),0,0,0
4:19.392,93381,(,0,0,1
4:19.422,93392,N,0,0,0
4:19.461,93406,),0,0,1
4:19.597,93455,(,0,0,2
4:19.700,93492,t,0,0,0
4:19.814,93533,),0,0,2
4:20.164,93659,(,0,0,0
4:20.200,93672,p,0,0,0
4:20.242,93687,),0,0,0
4:20.278,93700,(,0,0,1
4:20.311,93712,N,0,0,0
4:20.353,93727,),0,0,1
4:20.492,93777,(,0,0,2
4:20.583,93810,t,0,0,0
4:20.700,93852,),0,0,2
4:21.058,93981,(,0,0,0
4:21.094,93994,p,0,0,0
4:21.136,94009,),0,0,0
4:21.169,94021,(,0,0,1
4:21.203,94033,N,0,0,0
4:21.233,94044,),0,0,1
4:21.394,94102,(,0,0,2
4:21.486,94135,t,0,0,0
4:21.592,94173,),0,0,2
4:21.997,94319,(,0,0,0
4:22.033,94332,p,0,0,0
4:22.081,94349,),0,0,0
4:22.117,94362,(,0,0,1
4:22.150,94374,N,0,0,0
4:22.192,94389,),0,0,1
4:22.364,94451,(,0,0,2
4:22.450,94482,t,0,0,0
4:22.581,94529,),0,0,2
4:22.950,94662,(,0,0,0
4:22.986,94675,p,0,0,0
4:23.025,94689,),0,0,0
4:23.067,94704,(,0,0,1
4:23.097,94715,N,0,0,0
4:23.144,94732,),0,0,1
4:23.294,94786,(,0,0,2
4:23.386,94819,t,0,0,0
4:23.511,94864,),0,0,2
4:23.844,94984,(,0,0,0
4:23.886,94999,p,0,0,0
4:23.931,95015,),0,0,0
4:23.967,95028,(,0,0,1
4:24.000,95040,N,0,0,0
4:24.033,95052,),0,0,1
4:24.208,95115,(,0,0,2
4:24.300,95148,t,0,0,0
4:24.439,95198,),0,0,2
4:24.792,95325,(,0,0,0
4:24.828,95338,p,0,0,0
4:24.872,95354,),0,0,0
4:24.908,95367,(,0,0,1
4:24.942,95379,N,0,0,0
4:24.983,95394,),0,0,1
4:25.128,95446,(,0,0,2
4:25.222,95480,t,0,0,0
4:25.342,95523,),0,0,2
4:25.733,95664,(,0,0,0
4:25.769,95677,p,0,0,0
4:25.808,95691,),0,0,0
4:25.844,95704,(,0,0,1
4:25.875,95715,N,0,0,0
4:25.917,95730,),0,0,1
4:26.047,95777,(,0,0,2
4:26.144,95812,t,0,0,0
4:26.253,95851,),0,0,2
4:26.347,95885,(,0,0,1
4:26.439,95918,N,0,0,0
4:26.500,95940,),0,0,1
4:26.603,95977,(,0,0,2
4:26.678,96004,t,0,0,0
4:26.794,96046,),0,0,2
4:27.464,96287,(,0,0,0
4:27.500,96300,p,0,0,0
4:27.536,96313,),0,0,0
4:27.558,96321,(,0,0,1
4:27.594,96334,N,0,0,0
4:27.642,96351,),0,0,1
4:27.789,96404,(,0,0,2
4:27.883,96438,t,0,0,0
4:27.981,96473,),0,0,2
4:28.361,96610,(,0,0,0
4:28.394,96622,p,0,0,0
4:28.436,96637,),0,0,0
4:28.469,96649,(,0,0,1
4:28.503,96661,N,0,0,0
4:28.556,96680,),0,0,1
4:28.719,96739,(,0,0,2
4:28.806,96770,t,0,0,0
4:28.922,96812,),0,0,2
4:29.306,96950,(,0,0,0
4:29.347,96965,p,0,0,0
4:29.392,96981,),0,0,0
4:29.431,96995,(,0,0,1
4:29.464,97007,N,0,0,0
4:29.494,97018,),0,0,1
4:29.658,97077,(,0,0,2
4:29.764,97115,t,0,0,0
4:29.900,97164,),0,0,2
4:30.206,97274,(,0,0,0
4:30.247,97289,p,0,0,0
4:30.292,97305,),0,0,0
4:30.317,97314,(,0,0,1
4:30.361,97330,N,0,0,0
4:30.392,97341,),0,0,1
4:30.550,97398,(,0,0,2
4:30.644,97432,t,0,0,0
4:30.764,97475,),0,0,2
4:31.011,97564,(,0,0,0
4:31.053,97579,p,0,0,0
4:31.094,97594,),0,0,0
4:31.125,97605,(,0,0,1
4:31.164,97619,N,0,0,0
4:31.192,97629,),0,0,1
4:31.344,97684,(,0,0,2
4:31.439,97718,t,0,0,0
4:31.561,97762,),0,0,2
4:31.814,97853,(,0,0,0
4:31.856,97868,p,0,0,0
4:31.897,97883,),0,0,0
4:31.931,97895,(,0,0,1
4:31.967,97908,N,0,0,0
4:31.994,97918,),0,0,1
4:32.150,97974,(,0,0,2
4:32.244,98008,t,0,0,0
4:32.356,98048,),0,0,2
4:32.669,98161,(,0,0,0
4:32.708,98175,p,0,0,0
4:32.750,98190,),0,0,0
4:32.786,98203,(,0,0,1
4:32.822,98216,N,0,0,0
4:32.850,98226,),0,0,1
4:33.006,98282,(,0,0,2
4:33.100,98316,t,0,0,0
4:33.203,98353,),0,0,2
4:33.492,98457,(,0,0,0
4:33.536,98473,p,0,0,0
4:33.575,98487,),0,0,0
4:33.611,98500,(,0,0,1
4:33.644,98512,N,0,0,0
4:33.672,98522,),0,0,1
4:33.833,98580,(,0,0,2
4:33.925,98613,t,0,0,0
4:34.044,98656,),0,0,2
4:34.339,98762,(,0,0,0
4:34.381,98777,p,0,0,0
4:34.425,98793,),0,0,0
4:34.458,98805,(,0,0,1
4:34.497,98819,N,0,0,0
4:34.528,98830,),0,0,1
4:34.678,98884,(,0,0,2
4:34.781,98921,t,0,0,0
4:34.897,98963,),0,0,2
4:36.142,99411,(,0,0,0
4:36.189,99428,p,0,0,0
4:36.231,99443,),0,0,0
4:36.275,99459,(,0,0,1
4:36.306,99470,N,0,0,0
4:36.336,99481,),0,0,1
4:36.500,99540,(,0,0,2
4:36.594,99574,t,0,0,0
4:36.736,99625,),0,0,2
4:37.083,99750,(,0,0,0
4:37.131,99767,p,0,0,0
4:37.169,99781,),0,0,0
4:37.208,99795,(,0,0,1
4:37.239,99806,N,0,0,0
4:37.272,99818,),0,0,1
4:37.419,99871,(,0,0,2
4:37.525,99909,t,0,0,0
4:37.642,99951,),0,0,2
4:37.950   100062,(,0,0,0
4:37.994   100078,p,0,0,0
4:38.031   100091,),0,0,0
4:38.072   100106,(,0,0,1
4:38.103   100117,N,0,0,0
4:38.133   100128,),0,0,1
4:38.283   100182,(,0,0,2
4:38.378   100216,t,0,0,0
4:38.503   100261,),0,0,2
4:38.853   100387,(,0,0,0
4:38.894   100402,p,0,0,0
4:38.931   100415,),0,0,0
4:38.972   100430,(,0,0,1
4:39.003   100441,N,0,0,0
4:39.031   100451,),0,0,1
4:39.186   100507,(,0,0,2
4:39.278   100540,t,0,0,0
4:39.403   100585,),0,0,2
4:39.811   100732,(,0,0,0
4:39.858   100749,p,0,0,0
4:39.892   100761,),0,0,0
4:39.933   100776,(,0,0,1
4:39.964   100787,N,0,0,0
4:39.994   100798,),0,0,1
4:40.144   100852,(,0,0,2
4:40.247   100889,t,0,0,0
4:40.381   100937,),0,0,2
4:40.806   101090,(,0,0,0
4:40.853   101107,p,0,0,0
4:40.892   101121,),0,0,0
4:40.933   101136,(,0,0,1
4:40.964   101147,N,0,0,0
4:40.994   101158,),0,0,1
4:41.150   101214,(,0,0,2
4:41.267   101256,t,0,0,0
4:41.386   101299,),0,0,2
4:41.836   101461,(,0,0,0
4:41.881   101477,p,0,0,0
4:41.917   101490,),0,0,0
4:41.961   101506,(,0,0,1
4:41.992   101517,N,0,0,0
4:42.022   101528,),0,0,1
4:42.178   101584,(,0,0,2
4:42.283   101622,t,0,0,0
4:42.406   101666,),0,0,2
4:42.856   101828,(,0,0,0
4:42.897   101843,p,0,0,0
4:42.933   101856,),0,0,0
4:42.975   101871,(,0,0,1
4:43.006   101882,N,0,0,0
4:43.036   101893,),0,0,1
4:43.186   101947,(,0,0,2
4:43.283   101982,t,0,0,0
4:43.400   102024,),0,0,2
4:43.819   102175,(,0,0,0
4:43.864   102191,p,0,0,0
4:43.894   102202,),0,0,0
4:43.933   102216,(,0,0,1
4:43.967   102228,N,0,0,0
4:43.997   102239,),0,0,1
4:44.142   102291,(,0,0,2
4:44.236   102325,t,0,0,0
4:44.350   102366,),0,0,2
4:44.736   102505,(,0,0,0
4:44.781   102521,p,0,0,0
4:44.814   102533,),0,0,0
4:44.853   102547,(,0,0,1
4:44.883   102558,N,0,0,0
4:44.914   102569,),0,0,1
4:45.058   102621,(,0,0,2
4:45.156   102656,t,0,0,0
4:45.283   102702,),0,0,2
4:45.706   102854,(,0,0,0
4:45.750   102870,p,0,0,0
4:45.783   102882,),0,0,0
4:45.825   102897,(,0,0,1
4:45.856   102908,N,0,0,0
4:45.889   102920,),0,0,1
4:46.044   102976,(,0,0,2
4:46.150   103014,t,0,0,0
4:46.289   103064,),0,0,2
4:46.792   103245,(,0,0,0
4:46.833   103260,p,0,0,0
4:46.867   103272,),0,0,0
4:46.914   103289,(,0,0,1
4:46.944   103300,N,0,0,0
4:46.975   103311,),0,0,1
4:47.125   103365,(,0,0,2
4:47.233   103404,t,0,0,0
4:47.356   103448,),0,0,2
4:47.794   103606,(,0,0,0
4:47.847   103625,p,0,0,0
4:47.883   103638,),0,0,0
4:47.931   103655,(,0,0,1
4:47.961   103666,N,0,0,0
4:47.992   103677,),0,0,1
4:48.156   103736,(,0,0,2
4:48.256   103772,t,0,0,0
4:48.386   103819,),0,0,2
4:48.844   103984,(,0,0,0
4:48.892   104001,p,0,0,0
4:48.931   104015,),0,0,0
4:48.969   104029,(,0,0,1
4:49.000   104040,N,0,0,0
4:49.031   104051,),0,0,1
4:49.186   104107,(,0,0,2
4:49.289   104144,t,0,0,0
4:49.422   104192,),0,0,2
4:49.869   104353,(,0,0,0
4:49.914   104369,p,0,0,0
4:49.950   104382,),0,0,0
4:49.992   104397,(,0,0,1
4:50.022   104408,N,0,0,0
4:50.053   104419,),0,0,1
4:50.203   104473,(,0,0,2
4:50.303   104509,t,0,0,0
4:50.422   104552,),0,0,2
4:50.900   104724,(,0,0,0
4:50.942   104739,p,0,0,0
4:50.975   104751,),0,0,0
4:51.017   104766,(,0,0,1
4:51.047   104777,N,0,0,0
4:51.078   104788,),0,0,1
4:51.225   104841,(,0,0,2
4:51.319   104875,t,0,0,0
4:51.439   104918,),0,0,2
4:51.847   105065,(,0,0,0
4:51.894   105082,p,0,0,0
4:51.931   105095,),0,0,0
4:51.975   105111,(,0,0,1
4:52.006   105122,N,0,0,0
4:52.036   105133,),0,0,1
4:52.197   105191,(,0,0,2
4:52.294   105226,t,0,0,0
4:52.425   105273,),0,0,2
4:52.900   105444,(,0,0,0
4:52.944   105460,p,0,0,0
4:52.981   105473,),0,0,0
4:53.028   105490,(,0,0,1
4:53.061   105502,N,0,0,0
4:53.092   105513,),0,0,1
4:53.250   105570,(,0,0,2
4:53.353   105607,t,0,0,0
4:53.481   105653,),0,0,2
4:54.000   105840,(,0,0,0
4:54.042   105855,p,0,0,0
4:54.081   105869,),0,0,0
4:54.128   105886,(,0,0,1
4:54.158   105897,N,0,0,0
4:54.189   105908,),0,0,1
4:54.350   105966,(,0,0,2
4:54.447   106001,t,0,0,0
4:54.581   106049,),0,0,2
4:55.089   106232,(,0,0,0
4:55.128   106246,p,0,0,0
4:55.164   106259,),0,0,0
4:55.211   106276,(,0,0,1
4:55.242   106287,N,0,0,0
4:55.269   106297,),0,0,1
4:55.425   106353,(,0,0,2
4:55.519   106387,t,0,0,0
4:55.644   106432,),0,0,2
4:56.047   106577,(,0,0,0
4:56.083   106590,p,0,0,0
4:56.122   106604,),0,0,0
4:56.164   106619,(,0,0,1
4:56.194   106630,N,0,0,0
4:56.222   106640,),0,0,1
4:56.381   106697,(,0,0,2
4:56.467   106728,t,0,0,0
4:56.581   106769,),0,0,2
4:57.006   106922,(,0,0,0
4:57.047   106937,p,0,0,0
4:57.086   106951,),0,0,0
4:57.125   106965,(,0,0,1
4:57.156   106976,N,0,0,0
4:57.186   106987,),0,0,1
4:57.342   107043,(,0,0,2
4:57.439   107078,t,0,0,0
4:57.564   107123,),0,0,2
4:58.069   107305,(,0,0,0
4:58.114   107321,p,0,0,0
4:58.156   107336,),0,0,0
4:58.206   107354,(,0,0,1
4:58.236   107365,N,0,0,0
4:58.267   107376,),0,0,1
4:58.439   107438,(,0,0,2
4:58.539   107474,t,0,0,0
4:58.675   107523,),0,0,2
4:59.214   107717,(,0,0,0
4:59.258   107733,p,0,0,0
4:59.297   107747,),0,0,0
4:59.342   107763,(,0,0,1
4:59.375   107775,N,0,0,0
4:59.406   107786,),0,0,1
4:59.572   107846,(,0,0,2
4:59.672   107882,t,0,0,0
4:59.800   107928,),0,0,2
5:00.267   108096,(,0,0,0
5:00.308   108111,p,0,0,0
5:00.350   108126,),0,0,0
5:00.392   108141,(,0,0,1
5:00.425   108153,N,0,0,0
5:00.456   108164,),0,0,1
5:00.617   108222,(,0,0,2
5:00.714   108257,t,0,0,0
5:00.861   108310,),0,0,2
5:01.339   108482,(,0,0,0
5:01.381   108497,p,0,0,0
5:01.419   108511,),0,0,0
5:01.458   108525,(,0,0,1
5:01.489   108536,N,0,0,0
5:01.519   108547,),0,0,1
5:01.678   108604,(,0,0,2
5:01.767   108636,t,0,0,0
5:01.894   108682,),0,0,2
5:02.406   108866,(,0,0,0
5:02.444   108880,p,0,0,0
5:02.486   108895,),0,0,0
5:02.525   108909,(,0,0,1
5:02.553   108919,N,0,0,0
5:02.583   108930,),0,0,1
5:02.736   108985,(,0,0,2
5:02.833   109020,t,0,0,0
5:02.958   109065,),0,0,2
5:03.431   109235,(,0,0,0
5:03.472   109250,p,0,0,0
5:03.511   109264,),0,0,0
5:03.550   109278,(,0,0,1
5:03.578   109288,N,0,0,0
5:03.608   109299,),0,0,1
5:03.769   109357,(,0,0,2
5:03.861   109390,t,0,0,0
5:03.986   109435,),0,0,2
5:04.472   109610,(,0,0,0
5:04.514   109625,p,0,0,0
5:04.556   109640,),0,0,0
5:04.600   109656,(,0,0,1
5:04.631   109667,N,0,0,0
5:04.661   109678,),0,0,1
5:04.831   109739,(,0,0,2
5:04.931   109775,t,0,0,0
5:05.058   109821,),0,0,2
5:05.572   110006,(,0,0,0
5:05.614   110021,p,0,0,0
5:05.656   110036,),0,0,0
5:05.697   110051,(,0,0,1
5:05.731   110063,N,0,0,0
5:05.761   110074,),0,0,1
5:05.933   110136,(,0,0,2
5:06.031   110171,t,0,0,0
5:06.172   110222,),0,0,2
5:06.594   110374,(,0,0,0
5:06.633   110388,p,0,0,0
5:06.675   110403,),0,0,0
5:06.719   110419,(,0,0,1
5:06.753   110431,N,0,0,0
5:06.781   110441,),0,0,1
5:06.947   110501,(,0,0,2
5:07.050   110538,t,0,0,0
5:07.167   110580,),0,0,2
5:07.592   110733,(,0,0,0
5:07.628   110746,p,0,0,0
5:07.669   110761,),0,0,0
5:07.711   110776,(,0,0,1
5:07.739   110786,N,0,0,0
5:07.769   110797,),0,0,1
5:07.928   110854,(,0,0,2
5:08.019   110887,t,0,0,0
5:08.158   110937,),0,0,2
5:08.561   111082,(,0,0,0
5:08.600   111096,p,0,0,0
5:08.639   111110,),0,0,0
5:08.678   111124,(,0,0,1
5:08.708   111135,N,0,0,0
5:08.739   111146,),0,0,1
5:08.903   111205,(,0,0,2
5:08.989   111236,t,0,0,0
5:09.108   111279,),0,0,2
5:09.481   111413,(,0,0,0
5:09.522   111428,p,0,0,0
5:09.561   111442,),0,0,0
5:09.606   111458,(,0,0,1
5:09.636   111469,N,0,0,0
5:09.664   111479,),0,0,1
5:09.839   111542,(,0,0,2
5:09.925   111573,t,0,0,0
5:10.061   111622,),0,0,2
5:10.486   111775,(,0,0,0
5:10.528   111790,p,0,0,0
5:10.569   111805,),0,0,0
5:10.614   111821,(,0,0,1
5:10.644   111832,N,0,0,0
5:10.675   111843,),0,0,1
5:10.839   111902,(,0,0,2
5:10.950   111942,t,0,0,0
5:11.089   111992,),0,0,2
5:11.578   112168,(,0,0,0
5:11.619   112183,p,0,0,0
5:11.661   112198,),0,0,0
5:11.692   112209,(,0,0,1
5:11.739   112226,N,0,0,0
5:11.767   112236,),0,0,1
5:11.947   112301,(,0,0,2
5:12.044   112336,t,0,0,0
5:12.186   112387,),0,0,2
5:12.661   112558,(,0,0,0
5:12.700   112572,p,0,0,0
5:12.742   112587,),0,0,0
5:12.769   112597,(,0,0,1
5:12.819   112615,N,0,0,0
5:12.847   112625,),0,0,1
5:13.011   112684,(,0,0,2
5:13.108   112719,t,0,0,0
5:13.228   112762,),0,0,2
5:13.614   112901,(,0,0,0
5:13.656   112916,p,0,0,0
5:13.694   112930,),0,0,0
5:13.733   112944,(,0,0,0
5:13.733   112944,(,0,0,1
5:13.761   112954,p,0,0,0
5:13.792   112965,),0,0,0
5:13.792   112965,),0,0,1
5:13.908   113007,(,0,0,1
5:14.044   113056,N,0,0,0
5:14.167   113100,),0,0,1
5:14.214   113117,(,0,0,2
5:14.283   113142,t,0,0,0
5:14.397   113183,),0,0,2
5:14.583   113250,(,0,0,0
5:14.622   113264,p,0,0,0
5:14.664   113279,),0,0,0
5:14.686   113287,(,0,0,1
5:14.703   113293,(,0,0,0
5:14.731   113303,p,0,0,0
5:14.733   113304,N,0,0,0
5:14.761   113314,),0,0,0
5:14.761   113314,),0,0,1
5:14.894   113362,(,0,0,1
5:15.019   113407,N,0,0,0
5:15.139   113450,),0,0,1
5:15.611   113620,(,0,0,0
5:15.644   113632,p,0,0,0
5:15.686   113647,),0,0,0
5:15.708   113655,(,0,0,1
5:15.725   113661,(,0,0,0
5:15.750   113670,p,0,0,0
5:15.753   113671,N,0,0,0
5:15.781   113681,),0,0,0
5:15.781   113681,),0,0,1
5:15.911   113728,(,0,0,1
5:16.050   113778,N,0,0,0
5:16.164   113819,),0,0,1
5:16.225   113841,(,0,0,2
5:16.278   113860,t,0,0,0
5:16.350   113886,),0,0,2
5:16.672   114002,(,0,0,0
5:16.708   114015,p,0,0,0
5:16.753   114031,),0,0,0
5:16.781   114041,(,0,0,1
5:16.797   114047,(,0,0,0
5:16.825   114057,p,0,0,0
5:16.828   114058,N,0,0,0
5:16.856   114068,),0,0,0
5:16.856   114068,),0,0,1
5:16.972   114110,(,0,0,1
5:17.131   114167,N,0,0,0
5:17.267   114216,),0,0,1
5:17.300   114228,(,0,0,2
5:17.378   114256,t,0,0,0
5:17.442   114279,),0,0,2
5:17.631   114347,(,0,0,0
5:17.672   114362,p,0,0,0
5:17.714   114377,),0,0,0
5:17.739   114386,(,0,0,1
5:17.756   114392,(,0,0,0
5:17.783   114402,p,0,0,0
5:17.811   114412,),0,0,0
5:17.814   114413,),0,0,1
5:17.939   114458,(,0,0,1
5:18.086   114511,N,0,0,0
5:18.208   114555,),0,0,1
5:18.253   114571,(,0,0,2
5:18.325   114597,t,0,0,0
5:18.453   114643,),0,0,2
5:18.564   114683,(,0,0,0
5:18.603   114697,p,0,0,0
5:18.650   114714,),0,0,0
5:18.669   114721,(,0,0,1
5:18.714   114737,N,0,0,0
5:18.742   114747,),0,0,1
5:18.911   114808,(,0,0,2
5:19.003   114841,t,0,0,0
5:19.139   114890,),0,0,2
5:19.519   115027,(,0,0,0
5:19.558   115041,p,0,0,0
5:19.600   115056,),0,0,0
5:19.625   115065,(,0,0,1
5:19.669   115081,N,0,0,0
5:19.694   115090,),0,0,1
5:19.858   115149,(,0,0,2
5:19.947   115181,t,0,0,0
5:20.078   115228,),0,0,2
5:31.753   119431,(,0,0,0
5:31.792   119445,p,0,0,0
5:31.833   119460,),0,0,0
5:31.856   119468,(,0,0,1
5:31.900   119484,N,0,0,0
5:31.928   119494,),0,0,1
5:32.103   119557,(,0,0,2
5:32.186   119587,t,0,0,0
5:32.314   119633,),0,0,2
5:38.100   121716,(,0,0,0
5:38.136   121729,p,0,0,0
5:38.192   121749,),0,0,0
5:38.203   121753,(,0,0,1
5:38.247   121769,N,0,0,0
5:38.272   121778,),0,0,1
5:38.442   121839,(,0,0,2
5:38.528   121870,t,0,0,0
5:38.647   121913,),0,0,2
5:39.072   122066,(,0,0,0
5:39.108   122079,p,0,0,0
5:39.150   122094,),0,0,0
5:39.175   122103,(,0,0,1
5:39.217   122118,N,0,0,0
5:39.242   122127,),0,0,1
5:39.408   122187,(,0,0,2
5:39.494   122218,t,0,0,0
5:39.614   122261,),0,0,2
5:44.981   124193,(,0,0,0
5:45.017   124206,p,0,0,0
5:45.064   124223,),0,0,0
5:45.086   124231,(,0,0,1
5:45.131   124247,N,0,0,0
5:45.156   124256,),0,0,1
5:45.331   124319,(,0,0,2
5:45.414   124349,t,0,0,0
5:45.544   124396,),0,0,2
5:50.169   126061,(,0,0,0
5:50.208   126075,p,0,0,0
5:50.253   126091,),0,0,0
5:50.278   126100,(,0,0,1
5:50.319   126115,N,0,0,0
5:50.344   126124,),0,0,1
5:50.517   126186,(,0,0,2
5:50.600   126216,t,0,0,0
5:50.722   126260,),0,0,2
6:08.517   132666,(,0,0,0
6:08.556   132680,p,0,0,0
6:08.603   132697,),0,0,0
6:08.628   132706,(,0,0,1
6:08.669   132721,N,0,0,0
6:08.697   132731,),0,0,1
6:08.869   132793,(,0,0,2
6:08.950   132822,t,0,0,0
6:09.072   132866,),0,0,2
6:27.428   139474,(,0,0,0
6:27.467   139488,p,0,0,0
6:27.506   139502,),0,0,0
6:27.550   139518,(,0,0,1
6:27.581   139529,N,0,0,0
6:27.611   139540,),0,0,1
6:27.783   139602,(,0,0,2
6:27.869   139633,t,0,0,0
6:28.003   139681,),0,0,2
7:06.036   153373,(,0,0,0
7:06.075   153387,p,0,0,0
7:06.122   153404,),0,0,0
7:06.153   153415,(,0,0,1
7:06.194   153430,N,0,0,0
7:06.225   153441,),0,0,1
7:06.406   153506,(,0,0,2
7:06.492   153537,t,0,0,0
7:06.636   153589,),0,0,2
7:07.033   153732,(,0,0,0
7:07.069   153745,p,0,0,0
7:07.108   153759,),0,0,0
7:07.153   153775,(,0,0,1
7:07.181   153785,N,0,0,0
7:07.283   153822,),0,0,1
7:07.369   153853,(,0,0,2
7:07.464   153887,t,0,0,0
7:07.586   153931,),0,0,2
7:08.683   154326,(,0,0,0
7:08.722   154340,p,0,0,0
7:08.769   154357,),0,0,0
7:08.789   154364,(,0,0,1
7:08.833   154380,N,0,0,0
7:08.861   154390,),0,0,1
7:09.008   154443,(,0,0,2
7:09.103   154477,t,0,0,0
7:09.222   154520,),0,0,2
7:09.517   154626,(,0,0,0
7:09.558   154641,p,0,0,0
7:09.603   154657,),0,0,0
7:09.631   154667,(,0,0,1
7:09.675   154683,N,0,0,0
7:09.700   154692,),0,0,1
7:09.861   154750,(,0,0,2
7:09.956   154784,t,0,0,0
7:10.100   154836,),0,0,2
7:10.408   154947,(,0,0,0
7:10.450   154962,p,0,0,0
7:10.492   154977,),0,0,0
7:10.522   154988,(,0,0,1
7:10.569   155005,N,0,0,0
7:10.597   155015,),0,0,1
7:10.775   155079,(,0,0,2
7:10.878   155116,t,0,0,0
7:10.994   155158,),0,0,2
7:11.289   155264,(,0,0,0
7:11.325   155277,p,0,0,0
7:11.369   155293,),0,0,0
7:11.397   155303,(,0,0,1
7:11.442   155319,N,0,0,0
7:11.469   155329,),0,0,1
7:11.650   155394,(,0,0,2
7:11.739   155426,t,0,0,0
7:11.858   155469,),0,0,2
7:12.161   155578,(,0,0,0
7:12.197   155591,p,0,0,0
7:12.244   155608,),0,0,0
7:12.269   155617,(,0,0,1
7:12.314   155633,N,0,0,0
7:12.339   155642,),0,0,1
7:12.483   155694,(,0,0,2
7:12.594   155734,t,0,0,0
7:12.719   155779,),0,0,2
7:13.017   155886,(,0,0,0
7:13.056   155900,p,0,0,0
7:13.094   155914,),0,0,0
7:13.122   155924,(,0,0,1
7:13.167   155940,N,0,0,0
7:13.194   155950,),0,0,1
7:13.344   156004,(,0,0,2
7:13.450   156042,t,0,0,0
7:13.544   156076,),0,0,2
7:13.811   156172,(,0,0,0
7:13.850   156186,p,0,0,0
7:13.892   156201,),0,0,0
7:13.919   156211,(,0,0,1
7:13.961   156226,N,0,0,0
7:13.989   156236,),0,0,1
7:14.128   156286,(,0,0,2
7:14.236   156325,t,0,0,0
7:14.325   156357,),0,0,2
7:14.572   156446,(,0,0,0
7:14.608   156459,p,0,0,0
7:14.650   156474,),0,0,0
7:14.675   156483,(,0,0,1
7:14.717   156498,N,0,0,0
7:14.744   156508,),0,0,1
7:14.872   156554,(,0,0,2
7:14.994   156598,t,0,0,0
7:15.069   156625,),0,0,2
7:15.336   156721,(,0,0,0
7:15.369   156733,p,0,0,0
7:15.411   156748,),0,0,0
7:15.436   156757,(,0,0,1
7:15.478   156772,N,0,0,0
7:15.503   156781,),0,0,1
7:15.647   156833,(,0,0,2
7:15.750   156870,t,0,0,5
7:15.878   156916,t,0,0,5
7:15.908   156927,),0,0,2
7:16.089   156992,(,0,0,0
7:16.139   157010,p,0,0,0
7:16.175   157023,),0,0,0
7:16.208   157035,(,0,0,1
7:16.253   157051,N,0,0,0
7:16.281   157061,),0,0,1
7:16.342   157083,(,0,0,2
7:16.367   157092,t,0,0,4
7:16.533   157152,t,0,0,4
7:16.603   157177,),0,0,2
7:16.889   157280,(,0,0,0
7:16.936   157297,p,0,0,0
7:16.975   157311,),0,0,0
7:17.008   157323,(,0,0,1
7:17.053   157339,N,0,0,0
7:17.081   157349,),0,0,1
7:17.244   157408,(,0,0,2
7:17.344   157444,t,0,0,0
7:17.425   157473,),0,0,2
7:17.678   157564,(,0,0,0
7:17.708   157575,p,0,0,0
7:17.744   157588,),0,0,0
7:17.775   157599,(,0,0,1
7:17.822   157616,N,0,0,0
7:17.847   157625,),0,0,1
7:18.017   157686,(,0,0,2
7:18.117   157722,t,0,0,5
7:18.250   157770,t,0,0,5
7:18.286   157783,),0,0,2
7:18.444   157840,(,0,0,0
7:18.486   157855,p,0,0,0
7:18.525   157869,),0,0,0
7:18.556   157880,(,0,0,1
7:18.597   157895,N,0,0,0
7:18.622   157904,),0,0,1
7:18.775   157959,(,0,0,2
7:18.878   157996,t,0,0,0
7:18.944   158020,),0,0,2
7:19.217   158118,(,0,0,0
7:19.250   158130,p,0,0,0
7:19.286   158143,),0,0,0
7:19.317   158154,(,0,0,1
7:19.361   158170,N,0,0,0
7:19.386   158179,),0,0,1
7:19.533   158232,(,0,0,2
7:19.636   158269,t,0,0,0
7:19.686   158287,),0,0,2
7:19.953   158383,(,0,0,0
7:19.986   158395,p,0,0,0
7:20.028   158410,),0,0,0
7:20.050   158418,(,0,0,1
7:20.089   158432,N,0,0,0
7:20.117   158442,),0,0,1
7:20.231   158483,(,0,0,2
7:20.364   158531,t,0,0,5
7:20.422   158552,t,0,0,5
7:20.481   158573,),0,0,2
7:20.667   158640,(,0,0,0
7:20.703   158653,p,0,0,0
7:20.742   158667,),0,0,0
7:20.764   158675,(,0,0,1
7:20.806   158690,N,0,0,0
7:20.831   158699,),0,0,1
7:20.950   158742,(,0,0,2
7:21.061   158782,t,0,0,0
7:21.122   158804,),0,0,2
7:21.347   158885,(,0,0,0
7:21.386   158899,p,0,0,0
7:21.425   158913,),0,0,0
7:21.450   158922,(,0,0,1
7:21.492   158937,N,0,0,0
7:21.517   158946,),0,0,1
7:21.639   158990,(,0,0,2
7:21.758   159033,t,0,0,5
7:21.861   159070,t,0,0,5
7:21.936   159097,),0,0,2
7:22.072   159146,(,0,0,0
7:22.106   159158,p,0,0,0
7:22.150   159174,),0,0,0
7:22.181   159185,(,0,0,1
7:22.225   159201,N,0,0,0
7:22.253   159211,),0,0,1
7:22.406   159266,(,0,0,2
7:22.514   159305,t,0,0,0
7:22.611   159340,),0,0,2
7:22.858   159429,(,0,0,0
7:22.894   159442,p,0,0,0
7:22.936   159457,),0,0,0
7:22.967   159468,(,0,0,1
7:23.008   159483,N,0,0,0
7:23.036   159493,),0,0,1
7:23.158   159537,(,0,0,2
7:23.286   159583,t,0,0,5
7:23.400   159624,t,0,0,5
7:23.492   159657,),0,0,2
7:23.689   159728,(,0,0,0
7:23.728   159742,p,0,0,0
7:23.772   159758,),0,0,0
7:23.800   159768,(,0,0,1
7:23.844   159784,N,0,0,0
7:23.872   159794,),0,0,1
7:24.008   159843,(,0,0,2
7:24.125   159885,t,0,0,0
7:24.219   159919,),0,0,2
7:24.633   160068,(,0,0,0
7:24.669   160081,p,0,0,0
7:24.711   160096,),0,0,0
7:24.736   160105,(,0,0,1
7:24.781   160121,N,0,0,0
7:24.806   160130,),0,0,1
7:24.950   160182,(,0,0,2
7:25.056   160220,t,0,0,0
7:25.142   160251,),0,0,2
7:25.644   160432,(,0,0,0
7:25.678   160444,p,0,0,0
7:25.717   160458,),0,0,0
7:25.736   160465,(,0,0,1
7:25.781   160481,N,0,0,0
7:25.806   160490,),0,0,1
7:26.219   160639,(,0,0,2
7:26.253   160651,t,0,0,5
7:26.303   160669,t,0,0,5
7:26.528   160750,),0,0,2
7:27.292   161025,(,0,0,0
7:27.331   161039,p,0,0,0
7:27.378   161056,),0,0,0
7:27.400   161064,(,0,0,1
7:27.428   161074,N,0,0,0
7:27.456   161084,),0,0,1
7:27.867   161232,(,0,0,2
7:27.889   161240,t,0,0,5
7:27.919   161251,t,0,0,5
7:27.944   161260,),0,0,2
7:28.233   161364,(,0,0,0
7:28.269   161377,p,0,0,0
7:28.311   161392,),0,0,0
7:28.347   161405,(,0,0,1
7:28.375   161415,N,0,0,0
7:28.400   161424,),0,0,1
7:28.558   161481,(,0,0,2
7:28.672   161522,t,0,0,5
7:28.772   161558,t,0,0,5
7:28.800   161568,),0,0,2
7:29.158   161697,(,0,0,0
7:29.192   161709,p,0,0,0
7:29.231   161723,),0,0,0
7:29.261   161734,(,0,0,1
7:29.303   161749,N,0,0,0
7:29.331   161759,),0,0,1
7:29.486   161815,(,0,0,2
7:29.594   161854,t,0,0,5
7:29.711   161896,t,0,0,5
7:29.789   161924,),0,0,2
7:30.058   162021,(,0,0,0
7:30.100   162036,p,0,0,0
7:30.150   162054,),0,0,0
7:30.161   162058,(,0,0,1
7:30.208   162075,N,0,0,0
7:30.233   162084,),0,0,1
7:30.436   162157,(,0,0,2
7:30.494   162178,t,0,0,0
7:30.606   162218,),0,0,2
7:31.033   162372,(,0,0,0
7:31.072   162386,p,0,0,0
7:31.111   162400,),0,0,0
7:31.133   162408,(,0,0,1
7:31.178   162424,N,0,0,0
7:31.206   162434,),0,0,1
7:31.367   162492,(,0,0,2
7:31.461   162526,t,0,0,0
7:31.550   162558,),0,0,2
7:32.022   162728,(,0,0,0
7:32.058   162741,p,0,0,0
7:32.100   162756,),0,0,0
7:32.119   162763,(,0,0,1
7:32.161   162778,N,0,0,0
7:32.189   162788,),0,0,1
7:32.614   162941,(,0,0,2
7:32.644   162952,t,0,0,5
7:32.694   162970,t,0,0,5
7:32.914   163049,),0,0,2
7:33.658   163317,(,0,0,0
7:33.700   163332,p,0,0,0
7:33.742   163347,),0,0,0
7:33.772   163358,(,0,0,1
7:33.800   163368,N,0,0,0
7:33.828   163378,),0,0,1
7:33.975   163431,(,0,0,2
7:34.094   163474,t,0,0,0
7:34.192   163509,),0,0,2
7:34.592   163653,(,0,0,0
7:34.636   163669,p,0,0,0
7:34.678   163684,),0,0,0
7:34.697   163691,(,0,0,1
7:34.742   163707,N,0,0,0
7:34.769   163717,),0,0,1
7:34.944   163780,(,0,0,2
7:35.036   163813,t,0,0,0
7:35.136   163849,),0,0,2
7:35.592   164013,(,0,0,0
7:35.633   164028,p,0,0,0
7:35.675   164043,),0,0,0
7:35.697   164051,(,0,0,1
7:35.742   164067,N,0,0,0
7:35.769   164077,),0,0,1
7:36.217   164238,(,0,0,2
7:36.250   164250,t,0,0,0
7:36.286   164263,),0,0,2
7:36.553   164359,(,0,0,0
7:36.603   164377,p,0,0,0
7:36.647   164393,),0,0,0
7:36.678   164404,(,0,0,1
7:36.706   164414,N,0,0,0
7:36.731   164423,),0,0,1
7:36.886   164479,(,0,0,2
7:36.986   164515,t,0,0,0
7:37.081   164549,),0,0,2
7:37.458   164685,(,0,0,0
7:37.492   164697,p,0,0,0
7:37.531   164711,),0,0,0
7:37.550   164718,(,0,0,1
7:37.597   164735,N,0,0,0
7:37.622   164744,),0,0,1
7:37.786   164803,(,0,0,2
7:37.858   164829,t,0,0,0
7:37.944   164860,),0,0,2
7:38.361   165010,(,0,0,0
7:38.397   165023,p,0,0,0
7:38.436   165037,),0,0,0
7:38.458   165045,(,0,0,1
7:38.500   165060,N,0,0,0
7:38.528   165070,),0,0,1
7:38.683   165126,(,0,0,2
7:38.778   165160,t,0,0,0
7:38.878   165196,),0,0,2
7:39.303   165349,(,0,0,0
7:39.339   165362,p,0,0,0
7:39.378   165376,),0,0,0
7:39.419   165391,(,0,0,1
7:39.447   165401,N,0,0,0
7:39.475   165411,),0,0,1
7:39.628   165466,(,0,0,2
7:39.731   165503,t,0,0,0
7:39.825   165537,),0,0,2
7:40.275   165699,(,0,0,0
7:40.311   165712,p,0,0,0
7:40.353   165727,),0,0,0
7:40.378   165736,(,0,0,1
7:40.422   165752,N,0,0,0
7:40.450   165762,),0,0,1
7:40.597   165815,(,0,0,2
7:40.725   165861,t,0,0,0
7:40.825   165897,),0,0,2
7:41.244   166048,(,0,0,0
7:41.281   166061,p,0,0,0
7:41.319   166075,),0,0,0
7:41.342   166083,(,0,0,1
7:41.386   166099,N,0,0,0
7:41.414   166109,),0,0,1
7:41.583   166170,(,0,0,2
7:41.683   166206,t,0,0,0
7:41.778   166240,),0,0,2
7:42.131   166367,(,0,0,0
7:42.167   166380,p,0,0,0
7:42.206   166394,),0,0,0
7:42.231   166403,(,0,0,1
7:42.272   166418,N,0,0,0
7:42.300   166428,),0,0,1
7:42.450   166482,(,0,0,2
7:42.558   166521,t,0,0,5
7:42.661   166558,t,0,0,5
7:42.761   166594,),0,0,2
7:42.983   166674,(,0,0,0
7:43.017   166686,p,0,0,0
7:43.058   166701,),0,0,0
7:43.081   166709,(,0,0,1
7:43.122   166724,N,0,0,0
7:43.147   166733,),0,0,1
7:43.283   166782,(,0,0,2
7:43.394   166822,t,0,0,0
7:43.481   166853,),0,0,2
7:43.825   166977,(,0,0,0
7:43.861   166990,p,0,0,0
7:43.900   167004,),0,0,0
7:43.925   167013,(,0,0,1
7:43.967   167028,N,0,0,0
7:43.994   167038,),0,0,1
7:44.125   167085,(,0,0,2
7:44.236   167125,t,0,0,5
7:44.342   167163,t,0,0,5
7:44.414   167189,),0,0,2
7:44.744   167308,(,0,0,0
7:44.789   167324,p,0,0,0
7:44.836   167341,),0,0,0
7:44.850   167346,(,0,0,1
7:44.889   167360,N,0,0,0
7:44.914   167369,),0,0,1
7:45.056   167420,(,0,0,2
7:45.167   167460,t,0,0,0
7:45.261   167494,),0,0,2
7:45.675   167643,(,0,0,0
7:45.714   167657,p,0,0,0
7:45.753   167671,),0,0,0
7:45.775   167679,(,0,0,1
7:45.819   167695,N,0,0,0
7:45.844   167704,),0,0,1
7:45.997   167759,(,0,0,2
7:46.108   167799,t,0,0,5
7:46.225   167841,t,0,0,5
7:46.311   167872,),0,0,2
7:46.628   167986,(,0,0,0
7:46.667   168000,p,0,0,0
7:46.706   168014,),0,0,0
7:46.733   168024,(,0,0,1
7:46.775   168039,N,0,0,0
7:46.803   168049,),0,0,1
7:46.953   168103,(,0,0,2
7:47.067   168144,t,0,0,5
7:47.189   168188,t,0,0,5
7:47.253   168211,),0,0,2
7:47.625   168345,(,0,0,0
7:47.667   168360,p,0,0,0
7:47.708   168375,),0,0,0
7:47.733   168384,(,0,0,1
7:47.778   168400,N,0,0,0
7:47.803   168409,),0,0,1
7:47.956   168464,(,0,0,2
7:48.078   168508,t,0,0,0
7:48.186   168547,),0,0,2
7:48.658   168717,(,0,0,0
7:48.694   168730,p,0,0,0
7:48.733   168744,),0,0,0
7:48.758   168753,(,0,0,1
7:48.803   168769,N,0,0,0
7:48.828   168778,),0,0,1
7:48.972   168830,(,0,0,2
7:49.086   168871,t,0,0,0
7:49.189   168908,),0,0,2
7:49.611   169060,(,0,0,0
7:49.650   169074,p,0,0,0
7:49.689   169088,),0,0,0
7:49.708   169095,(,0,0,1
7:49.753   169111,N,0,0,0
7:49.778   169120,),0,0,1
7:49.908   169167,(,0,0,2
7:50.017   169206,t,0,0,0
7:50.114   169241,),0,0,2
7:50.517   169386,(,0,0,0
7:50.553   169399,p,0,0,0
7:50.594   169414,),0,0,0
7:50.614   169421,(,0,0,1
7:50.656   169436,N,0,0,0
7:50.683   169446,),0,0,1
7:50.819   169495,(,0,0,2
7:50.925   169533,t,0,0,0
7:51.025   169569,),0,0,2
7:51.408   169707,(,0,0,0
7:51.444   169720,p,0,0,0
7:51.483   169734,),0,0,0
7:51.503   169741,(,0,0,1
7:51.544   169756,N,0,0,0
7:51.569   169765,),0,0,1
7:51.700   169812,(,0,0,2
7:51.814   169853,t,0,0,5
7:51.928   169894,t,0,0,5
7:52.006   169922,),0,0,2
7:52.325   170037,(,0,0,0
7:52.364   170051,p,0,0,0
7:52.406   170066,),0,0,0
7:52.431   170075,(,0,0,1
7:52.472   170090,N,0,0,0
7:52.497   170099,),0,0,1
7:52.650   170154,(,0,0,2
7:52.764   170195,t,0,0,0
7:52.869   170233,),0,0,2
7:53.361   170410,(,0,0,0
7:53.400   170424,p,0,0,0
7:53.442   170439,),0,0,0
7:53.467   170448,(,0,0,1
7:53.514   170465,N,0,0,0
7:53.539   170474,),0,0,1
7:53.686   170527,(,0,0,2
7:53.808   170571,t,0,0,0
7:53.903   170605,),0,0,2
7:54.364   170771,(,0,0,0
7:54.403   170785,p,0,0,0
7:54.442   170799,),0,0,0
7:54.481   170813,(,0,0,1
7:54.511   170824,N,0,0,0
7:54.536   170833,),0,0,1
7:54.700   170892,(,0,0,2
7:54.800   170928,t,0,0,0
7:54.903   170965,),0,0,2
7:55.292   171105,(,0,0,0
7:55.328   171118,p,0,0,0
7:55.369   171133,),0,0,0
7:55.392   171141,(,0,0,1
7:55.436   171157,N,0,0,0
7:55.461   171166,),0,0,1
7:55.606   171218,(,0,0,2
7:55.708   171255,t,0,0,0
7:55.806   171290,),0,0,2
7:56.203   171433,(,0,0,0
7:56.236   171445,p,0,0,0
7:56.278   171460,),0,0,0
7:56.300   171468,(,0,0,1
7:56.342   171483,N,0,0,0
7:56.367   171492,),0,0,1
7:56.517   171546,(,0,0,2
7:56.614   171581,t,0,0,0
7:56.711   171616,),0,0,2
7:57.161   171778,(,0,0,0
7:57.197   171791,p,0,0,0
7:57.236   171805,),0,0,0
7:57.258   171813,(,0,0,1
7:57.303   171829,N,0,0,0
7:57.331   171839,),0,0,1
7:57.469   171889,(,0,0,2
7:57.578   171928,t,0,0,0
7:57.678   171964,),0,0,2
7:58.189   172148,(,0,0,0
7:58.222   172160,p,0,0,0
7:58.267   172176,),0,0,0
7:58.289   172184,(,0,0,1
7:58.331   172199,N,0,0,0
7:58.358   172209,),0,0,1
7:58.506   172262,(,0,0,2
7:58.617   172302,t,0,0,0
7:58.725   172341,),0,0,2
7:59.192   172509,(,0,0,0
7:59.225   172521,p,0,0,0
7:59.269   172537,),0,0,0
7:59.294   172546,(,0,0,1
7:59.339   172562,N,0,0,0
7:59.367   172572,),0,0,1
7:59.522   172628,(,0,0,2
7:59.633   172668,t,0,0,0
7:59.744   172708,),0,0,2
8:00.156   172856,(,0,0,0
8:00.192   172869,p,0,0,0
8:00.231   172883,),0,0,0
8:00.256   172892,(,0,0,1
8:00.300   172908,N,0,0,0
8:00.325   172917,),0,0,1
8:00.472   172970,(,0,0,2
8:00.583   173010,t,0,0,0
8:00.706   173054,),0,0,2
8:01.128   173206,(,0,0,0
8:01.164   173219,p,0,0,0
8:01.203   173233,),0,0,0
8:01.228   173242,(,0,0,1
8:01.269   173257,N,0,0,0
8:01.297   173267,),0,0,1
8:01.442   173319,(,0,0,2
8:01.544   173356,t,0,0,0
8:01.647   173393,),0,0,2
8:02.078   173548,(,0,0,0
8:02.111   173560,p,0,0,0
8:02.150   173574,),0,0,0
8:02.175   173583,(,0,0,1
8:02.217   173598,N,0,0,0
8:02.242   173607,),0,0,1
8:02.378   173656,(,0,0,2
8:02.486   173695,t,0,0,0
8:02.583   173730,),0,0,2
8:02.967   173868,(,0,0,0
8:03.003   173881,p,0,0,0
8:03.044   173896,),0,0,0
8:03.064   173903,(,0,0,1
8:03.106   173918,N,0,0,0
8:03.133   173928,),0,0,1
8:03.319   173995,(,0,0,2
8:03.378   174016,t,0,0,0
8:03.486   174055,),0,0,2
8:03.839   174182,(,0,0,0
8:03.875   174195,p,0,0,0
8:03.917   174210,),0,0,0
8:03.953   174223,(,0,0,1
8:03.981   174233,N,0,0,0
8:04.008   174243,),0,0,1
8:04.158   174297,(,0,0,2
8:04.264   174335,t,0,0,5
8:04.444   174400,t,0,0,5
8:04.492   174417,),0,0,2
8:04.714   174497,(,0,0,0
8:04.761   174514,p,0,0,0
8:04.806   174530,),0,0,0
8:04.833   174540,(,0,0,1
8:04.881   174557,N,0,0,0
8:04.906   174566,),0,0,1
8:05.069   174625,(,0,0,2
8:05.175   174663,t,0,0,0
8:05.300   174708,),0,0,2
8:05.650   174834,(,0,0,0
8:05.686   174847,p,0,0,0
8:05.725   174861,),0,0,0
8:05.753   174871,(,0,0,1
8:05.797   174887,N,0,0,0
8:05.822   174896,),0,0,1
8:05.975   174951,(,0,0,2
8:06.086   174991,t,0,0,0
8:06.208   175035,),0,0,2
8:06.478   175132,(,0,0,0
8:06.519   175147,p,0,0,0
8:06.564   175163,),0,0,0
8:06.600   175176,(,0,0,1
8:06.628   175186,N,0,0,0
8:06.656   175196,),0,0,1
8:06.797   175247,(,0,0,2
8:06.911   175288,t,0,0,5
8:07.047   175337,t,0,0,5
8:07.128   175366,),0,0,2
8:07.319   175435,(,0,0,0
8:07.356   175448,p,0,0,0
8:07.400   175464,),0,0,0
8:07.428   175474,(,0,0,1
8:07.469   175489,N,0,0,0
8:07.497   175499,),0,0,1
8:07.633   175548,(,0,0,2
8:07.739   175586,t,0,0,0
8:07.856   175628,),0,0,2
8:08.136   175729,(,0,0,0
8:08.172   175742,p,0,0,0
8:08.217   175758,),0,0,0
8:08.239   175766,(,0,0,1
8:08.283   175782,N,0,0,0
8:08.308   175791,),0,0,1
8:08.461   175846,(,0,0,2
8:08.550   175878,t,0,0,0
8:08.656   175916,),0,0,2
8:08.936   176017,(,0,0,0
8:08.975   176031,p,0,0,0
8:09.017   176046,),0,0,0
8:09.039   176054,(,0,0,1
8:09.081   176069,N,0,0,0
8:09.108   176079,),0,0,1
8:09.253   176131,(,0,0,2
8:09.358   176169,t,0,0,0
8:09.475   176211,),0,0,2
8:09.800   176328,(,0,0,0
8:09.839   176342,p,0,0,0
8:09.881   176357,),0,0,0
8:09.908   176367,(,0,0,1
8:09.950   176382,N,0,0,0
8:09.978   176392,),0,0,1
8:10.136   176449,(,0,0,2
8:10.231   176483,t,0,0,0
8:10.361   176530,),0,0,2
8:10.683   176646,(,0,0,0
8:10.717   176658,p,0,0,0
8:10.758   176673,),0,0,0
8:10.783   176682,(,0,0,1
8:10.831   176699,N,0,0,0
8:10.858   176709,),0,0,1
8:11.003   176761,(,0,0,2
8:11.111   176800,t,0,0,0
8:11.236   176845,),0,0,2
8:12.431   177275,(,0,0,0
8:12.469   177289,p,0,0,0
8:12.511   177304,),0,0,0
8:12.536   177313,(,0,0,1
8:12.581   177329,N,0,0,0
8:12.608   177339,),0,0,1
8:12.772   177398,(,0,0,2
8:12.867   177432,t,0,0,0
8:13.003   177481,),0,0,2
8:18.456   179444,(,0,0,0
8:18.497   179459,p,0,0,0
8:18.542   179475,),0,0,0
8:18.567   179484,(,0,0,1
8:18.614   179501,N,0,0,0
8:18.642   179511,),0,0,1
8:18.806   179570,(,0,0,2
8:18.908   179607,t,0,0,0
8:19.036   179653,),0,0,2
9:11.967   198708,(,0,0,0
9:12.006   198722,p,0,0,0
9:12.044   198736,),0,0,0
9:12.086   198751,(,0,0,1
9:12.117   198762,N,0,0,0
9:12.142   198771,),0,0,1
9:12.303   198829,(,0,0,2
9:12.408   198867,t,0,0,0
9:12.522   198908,),0,0,2
9:13.003   199081,(,0,0,0
9:13.039   199094,p,0,0,0
9:13.081   199109,),0,0,0
9:13.100   199116,(,0,0,1
9:13.150   199134,N,0,0,0
9:13.175   199143,),0,0,1
9:13.333   199200,(,0,0,2
9:13.431   199235,t,0,0,0
9:13.536   199273,),0,0,2
9:13.844   199384,(,0,0,0
9:13.903   199405,p,0,0,0
9:14.008   199443,),0,0,0
9:14.092   199473,(,0,0,1
9:14.119   199483,N,0,0,0
9:14.142   199491,),0,0,1
9:14.292   199545,(,0,0,2
9:14.386   199579,t,0,0,0
9:14.489   199616,),0,0,2
9:14.864   199751,(,0,0,0
9:14.900   199764,p,0,0,0
9:14.939   199778,),0,0,0
9:14.983   199794,(,0,0,1
9:15.006   199802,N,0,0,0
9:15.028   199810,),0,0,1
9:15.175   199863,(,0,0,2
9:15.275   199899,t,0,0,0
9:15.381   199937,),0,0,2
9:15.789   200084,(,0,0,0
9:15.825   200097,p,0,0,0
9:15.867   200112,),0,0,0
9:15.914   200129,(,0,0,1
9:15.936   200137,N,0,0,0
9:15.958   200145,),0,0,1
9:16.114   200201,(,0,0,2
9:16.214   200237,t,0,0,0
9:16.328   200278,),0,0,2
9:16.775   200439,(,0,0,0
9:16.814   200453,p,0,0,0
9:16.856   200468,),0,0,0
9:16.903   200485,(,0,0,1
9:16.928   200494,N,0,0,0
9:16.953   200503,),0,0,1
9:17.125   200565,(,0,0,2
9:17.219   200599,t,0,0,0
9:17.336   200641,),0,0,2
9:19.717   201498,(,0,0,0
9:19.750   201510,p,0,0,0
9:19.789   201524,),0,0,0
9:19.833   201540,(,0,0,1
9:19.853   201547,N,0,0,0
9:19.875   201555,),0,0,1
9:20.561   201802,(,0,0,2
9:20.608   201819,t,0,0,0
9:20.664   201839,),0,0,2
9:21.431   202115,(,0,0,0
9:21.467   202128,p,0,0,0
9:21.508   202143,),0,0,0
9:21.553   202159,(,0,0,1
9:21.572   202166,N,0,0,0
9:21.594   202174,),0,0,1
9:22.283   202422,(,0,0,2
9:22.325   202437,t,0,0,0
9:22.386   202459,),0,0,2
9:26.442   203919,(,0,0,0
9:26.478   203932,p,0,0,0
9:26.519   203947,),0,0,0
9:26.564   203963,(,0,0,1
9:26.583   203970,N,0,0,0
9:26.606   203978,),0,0,1
9:30.117   205242,(,0,0,0
9:30.153   205255,p,0,0,0
9:30.192   205269,),0,0,0
9:30.239   205286,(,0,0,1
9:30.258   205293,N,0,0,0
9:30.283   205302,),0,0,1
9:30.436   205357,(,0,0,2
9:30.542   205395,t,0,0,0
9:30.633   205428,),0,0,2
9:33.078   206308,(,0,0,0
9:33.111   206320,p,0,0,0
9:33.164   206339,),0,0,0
9:33.200   206352,(,0,0,1
9:33.219   206359,N,0,0,0
9:33.242   206367,),0,0,1
9:33.403   206425,(,0,0,2
9:33.483   206454,t,0,0,5
9:33.944   206620,t,0,0,5
9:34.061   206662,),0,0,2
9:54.808   214131,(,0,0,0
9:54.842   214143,p,0,0,0
9:54.883   214158,),0,0,0
9:54.933   214176,(,0,0,1
9:54.956   214184,N,0,0,0
9:54.978   214192,),0,0,1
9:55.133   214248,(,0,0,2
9:55.236   214285,t,0,0,0
9:55.344   214324,),0,0,2
9:55.872   214514,(,0,0,1
9:55.897   214523,N,0,0,0
9:55.919   214531,),0,0,1
9:56.617   214782,(,0,0,2
9:56.656   214796,t,0,0,1
9:56.706   214814,),0,0,2
9:59.367   215772,(,0,0,0
9:59.378   215776,p,0,0,0
9:59.436   215797,),0,0,0
9:59.514   215825,(,0,0,1
9:59.558   215841,N,0,0,0
9:59.619   215863,),0,0,1
9:59.778   215920,(,0,0,2
9:59.853   215947,t,0,0,0
9:59.950   215982,),0,0,2
   10:07.617   218742,(,0,0,0
   10:07.650   218754,p,0,0,0
   10:07.692   218769,),0,0,0
   10:07.736   218785,(,0,0,1
   10:07.756   218792,N,0,0,0
   10:07.778   218800,),0,0,1
   10:07.925   218853,(,0,0,2
   10:08.025   218889,t,0,0,5
   10:08.467   219048,t,0,0,5
   10:08.561   219082,),0,0,2
   10:20.544   223396,(,0,0,0
   10:20.611   223420,p,0,0,0
   10:20.708   223455,),0,0,0
   10:20.800   223488,(,0,0,1
   10:20.822   223496,N,0,0,0
   10:20.844   223504,),0,0,1
   10:21.000   223560,(,0,0,2
   10:21.097   223595,t,0,0,0
   10:21.203   223633,),0,0,2
   10:24.567   224844,(,0,0,0
   10:24.603   224857,p,0,0,0
   10:24.644   224872,),0,0,0
   10:24.692   224889,(,0,0,1
   10:24.714   224897,N,0,0,0
   10:24.739   224906,),0,0,1
   10:24.908   224967,(,0,0,2
   10:25.006   225002,t,0,0,5
   10:25.450   225162,t,0,0,5
   10:25.522   225188,),0,0,2
   10:58.047   236897,(,0,0,1
   10:58.078   236908,N,0,0,0
   10:58.106   236918,),0,0,1
   10:58.167   236940,(,0,0,2
   10:58.183   236946,t,0,0,4
   10:58.364   237011,t,0,0,4
   10:58.472   237050,),0,0,2
   11:02.408   238467,(,0,0,0
   11:02.478   238492,p,0,0,0
   11:02.564   238523,),0,0,0
   11:02.656   238556,(,0,0,1
   11:02.681   238565,N,0,0,0
   11:02.725   238581,),0,0,1
   11:02.853   238627,(,0,0,2
   11:02.956   238664,t,0,0,0
   11:03.053   238699,),0,0,2
   11:03.428   238834,(,0,0,0
   11:03.492   238857,p,0,0,0
   11:03.539   238874,),0,0,0
   11:03.578   238888,(,0,0,1
   11:03.600   238896,N,0,0,0
   11:03.622   238904,),0,0,1
   11:03.769   238957,(,0,0,2
   11:03.867   238992,t,0,0,0
   11:03.972   239030,),0,0,2
   11:04.453   239203,(,0,0,0
   11:04.486   239215,p,0,0,0
   11:04.528   239230,),0,0,0
   11:04.575   239247,(,0,0,1
   11:04.597   239255,N,0,0,0
   11:04.622   239264,),0,0,1
   11:04.772   239318,(,0,0,2
   11:04.883   239358,t,0,0,0
   11:04.989   239396,),0,0,2
   11:05.444   239560,(,0,0,0
   11:05.489   239576,p,0,0,0
   11:05.531   239591,),0,0,0
   11:05.569   239605,(,0,0,1
   11:05.600   239616,N,0,0,0
   11:05.628   239626,),0,0,1
   11:05.794   239686,(,0,0,2
   11:05.889   239720,t,0,0,0
   11:05.994   239758,),0,0,2
   11:06.406   239906,(,0,0,0
   11:06.444   239920,p,0,0,0
   11:06.486   239935,),0,0,0
   11:06.492   239937,(,0,0,1
   11:06.553   239959,N,0,0,0
   11:06.592   239973,),0,0,1
   11:06.728   240022,(,0,0,2
   11:06.836   240061,t,0,0,0
   11:06.928   240094,),0,0,2
   11:07.303   240229,(,0,0,0
   11:07.336   240241,p,0,0,0
   11:07.372   240254,),0,0,0
   11:07.411   240268,(,0,0,1
   11:07.439   240278,N,0,0,0
   11:07.464   240287,),0,0,1
   11:07.625   240345,(,0,0,2
   11:07.717   240378,t,0,0,0
   11:07.814   240413,),0,0,2
   11:08.119   240523,(,0,0,0
   11:08.156   240536,p,0,0,0
   11:08.192   240549,),0,0,0
   11:08.239   240566,(,0,0,1
   11:08.258   240573,N,0,0,0
   11:08.283   240582,),0,0,1
   11:08.431   240635,(,0,0,2
   11:08.522   240668,t,0,0,0
   11:08.625   240705,),0,0,2
   11:08.917   240810,(,0,0,0
   11:08.956   240824,p,0,0,0
   11:08.994   240838,),0,0,0
   11:09.042   240855,(,0,0,1
   11:09.061   240862,N,0,0,0
   11:09.083   240870,),0,0,1
   11:09.244   240928,(,0,0,2
   11:09.336   240961,t,0,0,0
   11:09.439   240998,),0,0,2
   11:09.775   241119,(,0,0,0
   11:09.811   241132,p,0,0,0
   11:09.850   241146,),0,0,0
   11:09.894   241162,(,0,0,1
   11:09.917   241170,N,0,0,0
   11:09.939   241178,),0,0,1
   11:10.086   241231,(,0,0,2
   11:10.192   241269,t,0,0,0
   11:10.281   241301,),0,0,2
   11:10.719   241459,(,0,0,0
   11:10.761   241474,p,0,0,0
   11:10.800   241488,),0,0,0
   11:10.850   241506,(,0,0,1
   11:10.872   241514,N,0,0,0
   11:10.894   241522,),0,0,1
   11:11.072   241586,(,0,0,2
   11:11.167   241620,t,0,0,0
   11:11.275   241659,),0,0,2
   11:11.703   241813,(,0,0,0
   11:11.736   241825,p,0,0,0
   11:11.778   241840,),0,0,0
   11:11.828   241858,(,0,0,1
   11:11.847   241865,N,0,0,0
   11:11.872   241874,),0,0,1
   11:12.031   241931,(,0,0,2
   11:12.139   241970,t,0,0,0
   11:12.253   242011,),0,0,2
   11:12.714   242177,(,0,0,0
   11:12.750   242190,p,0,0,0
   11:12.794   242206,),0,0,0
   11:12.844   242224,(,0,0,1
   11:12.864   242231,N,0,0,0
   11:12.886   242239,),0,0,1
   11:13.047   242297,(,0,0,2
   11:13.133   242328,t,0,0,0
   11:13.242   242367,),0,0,2
   11:13.742   242547,(,0,0,0
   11:13.775   242559,p,0,0,0
   11:13.817   242574,),0,0,0
   11:13.861   242590,(,0,0,1
   11:13.881   242597,N,0,0,0
   11:13.925   242613,),0,0,1
   11:14.056   242660,(,0,0,2
   11:14.150   242694,t,0,0,0
   11:14.242   242727,),0,0,2
   11:14.750   242910,(,0,0,0
   11:14.783   242922,p,0,0,0
   11:14.828   242938,),0,0,0
   11:14.872   242954,(,0,0,1
   11:14.889   242960,N,0,0,0
   11:14.911   242968,),0,0,1
   11:15.044   243016,(,0,0,2
   11:15.158   243057,t,0,0,0
   11:15.239   243086,),0,0,2
   11:15.697   243251,(,0,0,0
   11:15.731   243263,p,0,0,0
   11:15.775   243279,),0,0,0
   11:15.822   243296,(,0,0,1
   11:15.844   243304,N,0,0,0
   11:15.867   243312,),0,0,1
   11:16.025   243369,(,0,0,2
   11:16.125   243405,t,0,0,0
   11:16.225   243441,),0,0,2
   11:16.681   243605,(,0,0,0
   11:16.717   243618,p,0,0,0
   11:16.764   243635,),0,0,0
   11:16.814   243653,(,0,0,1
   11:16.836   243661,N,0,0,0
   11:16.858   243669,),0,0,1
   11:17.019   243727,(,0,0,2
   11:17.122   243764,t,0,0,0
   11:17.222   243800,),0,0,2
   11:17.683   243966,(,0,0,0
   11:17.719   243979,p,0,0,0
   11:17.764   243995,),0,0,0
   11:17.811   244012,(,0,0,1
   11:17.833   244020,N,0,0,0
   11:17.858   244029,),0,0,1
   11:18.019   244087,(,0,0,2
   11:18.119   244123,t,0,0,0
   11:18.225   244161,),0,0,2
   11:18.617   244302,(,0,0,0
   11:18.653   244315,p,0,0,0
   11:18.694   244330,),0,0,0
   11:18.742   244347,(,0,0,1
   11:18.764   244355,N,0,0,0
   11:18.789   244364,),0,0,1
   11:18.947   244421,(,0,0,2
   11:19.047   244457,t,0,0,0
   11:19.153   244495,),0,0,2
   11:19.569   244645,(,0,0,0
   11:19.606   244658,p,0,0,0
   11:19.647   244673,),0,0,0
   11:19.694   244690,(,0,0,1
   11:19.714   244697,N,0,0,0
   11:19.736   244705,),0,0,1
   11:19.881   244757,(,0,0,2
   11:19.994   244798,t,0,0,0
   11:20.089   244832,),0,0,2
   11:20.494   244978,(,0,0,0
   11:20.531   244991,p,0,0,0
   11:20.569   245005,),0,0,0
   11:20.614   245021,(,0,0,1
   11:20.636   245029,N,0,0,0
   11:20.658   245037,),0,0,1
   11:20.819   245095,(,0,0,2
   11:20.908   245127,t,0,0,0
   11:21.011   245164,),0,0,2
   11:21.433   245316,(,0,0,0
   11:21.467   245328,p,0,0,0
   11:21.508   245343,),0,0,0
   11:21.556   245360,(,0,0,1
   11:21.572   245366,N,0,0,0
   11:21.594   245374,),0,0,1
   11:21.747   245429,(,0,0,2
   11:21.844   245464,t,0,0,0
   11:21.947   245501,),0,0,2
   11:22.417   245670,(,0,0,0
   11:22.450   245682,p,0,0,0
   11:22.494   245698,),0,0,0
   11:22.542   245715,(,0,0,1
   11:22.561   245722,N,0,0,0
   11:22.583   245730,),0,0,1
   11:22.736   245785,(,0,0,2
   11:22.850   245826,t,0,0,0
   11:22.956   245864,),0,0,2
   11:23.392   246021,(,0,0,0
   11:23.428   246034,p,0,0,0
   11:23.464   246047,),0,0,0
   11:23.511   246064,(,0,0,1
   11:23.533   246072,N,0,0,0
   11:23.556   246080,),0,0,1
   11:23.711   246136,(,0,0,2
   11:23.825   246177,t,0,0,0
   11:23.933   246216,),0,0,2
   11:24.336   246361,(,0,0,0
   11:24.372   246374,p,0,0,0
   11:24.411   246388,),0,0,0
   11:24.464   246407,(,0,0,1
   11:24.483   246414,N,0,0,0
   11:24.544   246436,),0,0,1
   11:24.669   246481,(,0,0,2
   11:24.767   246516,t,0,0,0
   11:24.869   246553,),0,0,2
   11:25.261   246694,(,0,0,0
   11:25.297   246707,p,0,0,0
   11:25.342   246723,),0,0,0
   11:25.386   246739,(,0,0,1
   11:25.408   246747,N,0,0,0
   11:25.433   246756,),0,0,1
   11:25.589   246812,(,0,0,2
   11:25.681   246845,t,0,0,5
   11:25.806   246890,t,0,0,5
   11:25.878   246916,),0,0,2
   11:26.094   246994,(,0,0,0
   11:26.131   247007,p,0,0,0
   11:26.167   247020,),0,0,0
   11:26.214   247037,(,0,0,1
   11:26.236   247045,N,0,0,0
   11:26.275   247059,),0,0,1
   11:26.397   247103,(,0,0,2
   11:26.503   247141,t,0,0,0
   11:26.611   247180,),0,0,2
   11:26.911   247288,(,0,0,0
   11:26.947   247301,p,0,0,0
   11:26.989   247316,),0,0,0
   11:27.033   247332,(,0,0,1
   11:27.050   247338,N,0,0,0
   11:27.072   247346,),0,0,1
   11:27.217   247398,(,0,0,2
   11:27.319   247435,t,0,0,0
   11:27.417   247470,),0,0,2
   11:27.733   247584,(,0,0,0
   11:27.769   247597,p,0,0,0
   11:27.814   247613,),0,0,0
   11:27.861   247630,(,0,0,1
   11:27.878   247636,N,0,0,0
   11:27.903   247645,),0,0,1
   11:28.092   247713,(,0,0,2
   11:28.153   247735,t,0,0,0
   11:28.269   247777,),0,0,2
   11:28.597   247895,(,0,0,0
   11:28.633   247908,p,0,0,0
   11:28.675   247923,),0,0,0
   11:28.728   247942,(,0,0,1
   11:28.753   247951,N,0,0,0
   11:28.792   247965,),0,0,1
   11:28.939   248018,(,0,0,2
   11:29.042   248055,t,0,0,0
   11:29.144   248092,),0,0,2
   11:29.447   248201,(,0,0,0
   11:29.483   248214,p,0,0,0
   11:29.525   248229,),0,0,0
   11:29.578   248248,(,0,0,1
   11:29.600   248256,N,0,0,0
   11:29.639   248270,),0,0,1
   11:29.778   248320,(,0,0,2
   11:29.886   248359,t,0,0,0
   11:29.997   248399,),0,0,2
   11:30.306   248510,(,0,0,0
   11:30.342   248523,p,0,0,0
   11:30.381   248537,),0,0,0
   11:30.431   248555,(,0,0,1
   11:30.453   248563,N,0,0,0
   11:30.475   248571,),0,0,1
   11:30.644   248632,(,0,0,2
   11:30.742   248667,t,0,0,0
   11:30.847   248705,),0,0,2
   11:31.136   248809,(,0,0,0
   11:31.172   248822,p,0,0,0
   11:31.211   248836,),0,0,0
   11:31.261   248854,(,0,0,1
   11:31.281   248861,N,0,0,0
   11:31.303   248869,),0,0,1
   11:31.469   248929,(,0,0,2
   11:31.556   248960,t,0,0,0
   11:31.644   248992,),0,0,2
   11:31.844   249064,(,0,0,0
   11:31.900   249084,p,0,0,0
   11:32.000   249120,),0,0,0
   11:32.092   249153,(,0,0,1
   11:32.111   249160,N,0,0,0
   11:32.133   249168,),0,0,1
   11:32.258   249213,(,0,0,2
   11:32.372   249254,t,0,0,0
   11:32.472   249290,),0,0,2
   11:32.792   249405,(,0,0,0
   11:32.828   249418,p,0,0,0
   11:32.869   249433,),0,0,0
   11:32.914   249449,(,0,0,1
   11:32.933   249456,N,0,0,0
   11:32.956   249464,),0,0,1
   11:33.117   249522,(,0,0,2
   11:33.203   249553,t,0,0,0
   11:33.294   249586,),0,0,2
   11:33.675   249723,(,0,0,1
   11:33.728   249742,N,0,0,0
   11:33.750   249750,),0,0,1
   11:33.911   249808,(,0,0,2
   11:34.006   249842,t,0,0,0
   11:34.086   249871,),0,0,2
   11:34.542   250035,(,0,0,1
   11:34.561   250042,N,0,0,0
   11:34.611   250060,),0,0,1
   11:34.736   250105,(,0,0,2
   11:34.850   250146,t,0,0,5
   11:34.986   250195,t,0,0,5
   11:35.014   250205,),0,0,2
   11:35.297   250307,(,0,0,0
   11:35.311   250312,p,0,0,0
   11:35.358   250329,),0,0,0
   11:35.394   250342,(,0,0,1
   11:35.422   250352,N,0,0,0
   11:35.492   250377,),0,0,1
   11:35.628   250426,(,0,0,2
   11:35.711   250456,t,0,0,0
   11:35.803   250489,),0,0,2
   11:36.089   250592,(,0,0,0
   11:36.114   250601,p,0,0,0
   11:36.142   250611,),0,0,0
   11:36.236   250645,(,0,0,1
   11:36.256   250652,N,0,0,0
   11:36.281   250661,),0,0,1
   11:36.447   250721,(,0,0,2
   11:36.542   250755,t,0,0,0
   11:36.633   250788,),0,0,2
   11:36.944   250900,(,0,0,0
   11:36.992   250917,p,0,0,0
   11:37.033   250932,),0,0,0
   11:37.083   250950,(,0,0,1
   11:37.106   250958,N,0,0,0
   11:37.128   250966,),0,0,1
   11:37.289   251024,(,0,0,2
   11:37.383   251058,t,0,0,0
   11:37.481   251093,),0,0,2
   11:37.681   251165,(,0,0,0
   11:37.703   251173,p,0,0,0
   11:37.769   251197,),0,0,0
   11:37.847   251225,(,0,0,1
   11:37.875   251235,N,0,0,0
   11:37.897   251243,),0,0,1
   11:38.042   251295,(,0,0,2
   11:38.147   251333,t,0,0,5
   11:38.272   251378,t,0,0,5
   11:38.336   251401,),0,0,2
   11:38.522   251468,(,0,0,0
   11:38.558   251481,p,0,0,0
   11:38.606   251498,),0,0,0
   11:38.644   251512,(,0,0,1
   11:38.661   251518,N,0,0,0
   11:38.683   251526,),0,0,1
   11:38.833   251580,(,0,0,2
   11:38.917   251610,t,0,0,0
   11:39.019   251647,),0,0,2
   11:39.331   251759,(,0,0,0
   11:39.369   251773,p,0,0,0
   11:39.408   251787,),0,0,0
   11:39.458   251805,(,0,0,1
   11:39.478   251812,N,0,0,0
   11:39.500   251820,),0,0,1
   11:39.653   251875,(,0,0,2
   11:39.747   251909,t,0,0,0
   11:39.858   251949,),0,0,2
   11:40.169   252061,(,0,0,0
   11:40.211   252076,p,0,0,0
   11:40.256   252092,),0,0,0
   11:40.303   252109,(,0,0,1
   11:40.325   252117,N,0,0,0
   11:40.347   252125,),0,0,1
   11:40.517   252186,(,0,0,2
   11:40.603   252217,t,0,0,0
   11:40.714   252257,),0,0,2
   11:41.164   252419,(,0,0,0
   11:41.203   252433,p,0,0,0
   11:41.253   252451,),0,0,0
   11:41.294   252466,(,0,0,1
   11:41.317   252474,N,0,0,0
   11:41.372   252494,),0,0,1
   11:41.514   252545,(,0,0,2
   11:41.606   252578,t,0,0,0
   11:41.725   252621,),0,0,2
   11:42.150   252774,(,0,0,0
   11:42.189   252788,p,0,0,0
   11:42.233   252804,),0,0,0
   11:42.278   252820,(,0,0,1
   11:42.300   252828,N,0,0,0
   11:42.325   252837,),0,0,1
   11:42.489   252896,(,0,0,2
   11:42.589   252932,t,0,0,0
   11:42.694   252970,),0,0,2
   11:43.178   253144,(,0,0,1
   11:43.225   253161,N,0,0,0
   11:43.247   253169,),0,0,1
   11:43.422   253232,(,0,0,2
   11:43.497   253259,t,0,0,0
   11:43.622   253304,),0,0,2
   11:43.836   253381,(,0,0,0
   11:43.917   253410,p,0,0,0
   11:43.975   253431,),0,0,0
   11:44.067   253464,(,0,0,1
   11:44.086   253471,N,0,0,0
   11:44.108   253479,),0,0,1
   11:44.267   253536,(,0,0,2
   11:44.350   253566,t,0,0,5
   11:44.469   253609,t,0,0,5
   11:44.533   253632,),0,0,2
   11:44.753   253711,(,0,0,0
   11:44.786   253723,p,0,0,0
   11:44.828   253738,),0,0,0
   11:44.869   253753,(,0,0,1
   11:44.892   253761,N,0,0,0
   11:44.914   253769,),0,0,1
   11:45.069   253825,(,0,0,2
   11:45.164   253859,t,0,0,5
   11:45.283   253902,t,0,0,5
   11:45.347   253925,),0,0,2
   11:45.583   254010,(,0,0,0
   11:45.622   254024,p,0,0,0
   11:45.661   254038,),0,0,0
   11:45.711   254056,(,0,0,1
   11:45.731   254063,N,0,0,0
   11:45.753   254071,),0,0,1
   11:45.908   254127,(,0,0,2
   11:46.011   254164,t,0,0,0
   11:46.108   254199,),0,0,2
   11:46.394   254302,(,0,0,0
   11:46.431   254315,p,0,0,0
   11:46.475   254331,),0,0,0
   11:46.519   254347,(,0,0,1
   11:46.547   254357,N,0,0,0
   11:46.572   254366,),0,0,1
   11:46.742   254427,(,0,0,2
   11:46.844   254464,t,0,0,5
   11:46.969   254509,t,0,0,5
   11:47.056   254540,),0,0,2
   11:47.267   254616,(,0,0,0
   11:47.300   254628,p,0,0,0
   11:47.339   254642,),0,0,0
   11:47.389   254660,(,0,0,1
   11:47.411   254668,N,0,0,0
   11:47.436   254677,),0,0,1
   11:47.600   254736,(,0,0,2
   11:47.697   254771,t,0,0,0
   11:47.808   254811,),0,0,2
   11:48.167   254940,(,0,0,0
   11:48.206   254954,p,0,0,0
   11:48.247   254969,),0,0,0
   11:48.300   254988,(,0,0,1
   11:48.319   254995,N,0,0,0
   11:48.342   255003,),0,0,1
   11:48.500   255060,(,0,0,2
   11:48.600   255096,t,0,0,0
   11:48.714   255137,),0,0,2
   11:49.131   255287,(,0,0,1
   11:49.183   255306,N,0,0,0
   11:49.206   255314,),0,0,1
   11:49.356   255368,(,0,0,2
   11:49.450   255402,t,0,0,5
   11:49.578   255448,t,0,0,5
   11:49.631   255467,),0,0,2
   11:50.017   255606,(,0,0,1
   11:50.036   255613,N,0,0,0
   11:50.061   255622,),0,0,1
   11:50.219   255679,(,0,0,2
   11:50.306   255710,t,0,0,0
   11:50.400   255744,),0,0,2
   11:50.725   255861,(,0,0,0
   11:50.731   255863,p,0,0,0
   11:50.769   255877,),0,0,0
   11:50.864   255911,(,0,0,1
   11:50.883   255918,N,0,0,0
   11:50.906   255926,),0,0,1
   11:51.356   256088,(,0,0,2
   11:51.392   256101,t,0,0,5
   11:51.444   256120,t,0,0,5
   11:51.522   256148,),0,0,2
   11:52.256   256412,(,0,0,0
   11:52.281   256421,p,0,0,0
   11:52.408   256467,),0,0,0
   11:52.469   256489,(,0,0,1
   11:52.519   256507,N,0,0,0
   11:52.544   256516,),0,0,1
   11:52.711   256576,(,0,0,2
   11:52.811   256612,t,0,0,5
   11:52.958   256665,t,0,0,5
   11:52.997   256679,),0,0,2
   11:53.211   256756,(,0,0,0
   11:53.247   256769,p,0,0,0
   11:53.303   256789,),0,0,0
   11:53.336   256801,(,0,0,1
   11:53.358   256809,N,0,0,0
   11:53.383   256818,),0,0,1
   11:53.489   256856,(,0,0,2
   11:53.506   256862,t,0,0,4
   11:53.642   256911,t,0,0,4
   11:53.725   256941,),0,0,2
   11:54.028   257050,(,0,0,0
   11:54.081   257069,p,0,0,0
   11:54.147   257093,),0,0,0
   11:54.178   257104,(,0,0,1
   11:54.200   257112,N,0,0,0
   11:54.222   257120,),0,0,1
   11:54.431   257195,(,0,0,2
   11:54.483   257214,t,0,0,0
   11:54.592   257253,),0,0,2
   11:54.861   257350,(,0,0,0
   11:54.894   257362,p,0,0,0
   11:54.939   257378,),0,0,0
   11:54.986   257395,(,0,0,1
   11:55.008   257403,N,0,0,0
   11:55.031   257411,),0,0,1
   11:55.469   257569,(,0,0,2
   11:55.500   257580,t,0,0,5
   11:55.547   257597,t,0,0,5
   11:55.625   257625,),0,0,2
   11:56.414   257909,(,0,0,0
   11:56.450   257922,p,0,0,0
   11:56.500   257940,),0,0,0
   11:56.531   257951,(,0,0,1
   11:56.550   257958,N,0,0,0
   11:56.572   257966,),0,0,1
   11:57.008   258123,(,0,0,2
   11:57.042   258135,t,0,0,5
   11:57.089   258152,t,0,0,5
   11:57.311   258232,),0,0,2
   11:58.000   258480,(,0,0,0
   11:58.039   258494,p,0,0,0
   11:58.089   258512,),0,0,0
   11:58.119   258523,(,0,0,1
   11:58.144   258532,N,0,0,0
   11:58.169   258541,),0,0,1
   11:58.608   258699,(,0,0,2
   11:58.644   258712,t,0,0,5
   11:58.692   258729,t,0,0,5
   11:58.931   258815,),0,0,2
   11:59.650   259074,(,0,0,0
   11:59.689   259088,p,0,0,0
   11:59.731   259103,),0,0,0
   11:59.772   259118,(,0,0,1
   11:59.794   259126,N,0,0,0
   11:59.819   259135,),0,0,1
   11:59.967   259188,(,0,0,2
   12:00.081   259229,t,0,0,0
   12:00.172   259262,),0,0,2
   12:00.450   259362,(,0,0,0
   12:00.489   259376,p,0,0,0
   12:00.531   259391,),0,0,0
   12:00.583   259410,(,0,0,1
   12:00.603   259417,N,0,0,0
   12:00.625   259425,),0,0,1
   12:01.069   259585,(,0,0,2
   12:01.106   259598,t,0,0,5
   12:01.156   259616,t,0,0,5
   12:01.233   259644,),0,0,2
   12:02.053   259939,(,0,0,0
   12:02.094   259954,p,0,0,0
   12:02.136   259969,),0,0,0
   12:02.172   259982,(,0,0,1
   12:02.194   259990,N,0,0,0
   12:02.217   259998,),0,0,1
   12:02.642   260151,(,0,0,2
   12:02.678   260164,t,0,0,5
   12:02.725   260181,t,0,0,5
   12:02.831   260219,),0,0,2
   12:03.733   260544,(,0,0,0
   12:03.772   260558,p,0,0,0
   12:03.819   260575,),0,0,0
   12:03.853   260587,(,0,0,1
   12:03.875   260595,N,0,0,0
   12:03.897   260603,),0,0,1
   12:04.053   260659,(,0,0,2
   12:04.158   260697,t,0,0,0
   12:04.250   260730,),0,0,2
   12:04.536   260833,(,0,0,0
   12:04.575   260847,p,0,0,0
   12:04.617   260862,),0,0,0
   12:04.664   260879,(,0,0,1
   12:04.686   260887,N,0,0,0
   12:04.714   260897,),0,0,1
   12:04.861   260950,(,0,0,2
   12:04.975   260991,t,0,0,0
   12:05.069   261025,),0,0,2
   12:05.347   261125,(,0,0,0
   12:05.383   261138,p,0,0,0
   12:05.422   261152,),0,0,0
   12:05.472   261170,(,0,0,1
   12:05.497   261179,N,0,0,0
   12:05.519   261187,),0,0,1
   12:05.669   261241,(,0,0,2
   12:05.775   261279,t,0,0,0
   12:05.881   261317,),0,0,2
   12:06.011   261364,(,0,0,0
   12:06.022   261368,p,0,0,0
   12:06.119   261403,),0,0,0
   12:06.311   261472,(,0,0,1
   12:06.328   261478,N,0,0,0
   12:06.353   261487,),0,0,1
   12:06.808   261651,(,0,0,2
   12:06.844   261664,t,0,0,5
   12:06.897   261683,t,0,0,5
   12:06.975   261711,),0,0,2
   12:07.628   261946,(,0,0,0
   12:07.714   261977,p,0,0,0
   12:07.792   262005,),0,0,0
   12:07.881   262037,(,0,0,1
   12:07.900   262044,N,0,0,0
   12:07.925   262053,),0,0,1
   12:08.069   262105,(,0,0,2
   12:08.175   262143,t,0,0,0
   12:08.269   262177,),0,0,2
   12:08.506   262262,(,0,0,0
   12:08.542   262275,p,0,0,0
   12:08.581   262289,),0,0,0
   12:08.628   262306,(,0,0,1
   12:08.647   262313,N,0,0,0
   12:08.669   262321,),0,0,1
   12:08.819   262375,(,0,0,2
   12:08.914   262409,t,0,0,0
   12:09.008   262443,),0,0,2
   12:09.236   262525,(,0,0,0
   12:09.272   262538,p,0,0,0
   12:09.311   262552,),0,0,0
   12:09.356   262568,(,0,0,1
   12:09.378   262576,N,0,0,0
   12:09.400   262584,),0,0,1
   12:09.811   262732,(,0,0,2
   12:09.850   262746,t,0,0,5
   12:09.900   262764,t,0,0,5
   12:10.125   262845,),0,0,2
   12:11.519   263347,(,0,0,1
   12:11.539   263354,N,0,0,0
   12:11.594   263374,),0,0,1
   12:11.781   263441,(,0,0,2
   12:11.836   263461,t,0,0,0
   12:11.906   263486,),0,0,2
   12:12.322   263636,(,0,0,1
   12:12.347   263645,N,0,0,0
   12:12.372   263654,),0,0,1
   12:12.800   263808,(,0,0,2
   12:12.836   263821,t,0,0,5
   12:12.886   263839,t,0,0,5
   12:13.106   263918,),0,0,2
   12:13.897   264203,(,0,0,1
   12:13.917   264210,N,0,0,0
   12:13.969   264229,),0,0,1
   12:14.361   264370,(,0,0,2
   12:14.394   264382,t,0,0,5
   12:14.444   264400,t,0,0,5
   12:14.650   264474,),0,0,2
   12:15.297   264707,(,0,0,0
   12:15.336   264721,p,0,0,0
   12:15.372   264734,),0,0,0
   12:15.417   264750,(,0,0,1
   12:15.439   264758,N,0,0,0
   12:15.461   264766,),0,0,1
   12:15.606   264818,(,0,0,2
   12:15.717   264858,t,0,0,0
   12:15.803   264889,),0,0,2
   12:16.067   264984,(,0,0,0
   12:16.106   264998,p,0,0,0
   12:16.150   265014,),0,0,0
   12:16.200   265032,(,0,0,1
   12:16.222   265040,N,0,0,0
   12:16.244   265048,),0,0,1
   12:16.403   265105,(,0,0,2
   12:16.508   265143,t,0,0,0
   12:16.600   265176,),0,0,2
   12:16.889   265280,(,0,0,0
   12:16.931   265295,p,0,0,0
   12:16.969   265309,),0,0,0
   12:17.022   265328,(,0,0,1
   12:17.042   265335,N,0,0,0
   12:17.064   265343,),0,0,1
   12:17.519   265507,(,0,0,2
   12:17.553   265519,t,0,0,5
   12:17.606   265538,t,0,0,5
   12:17.833   265620,),0,0,2
   12:18.550   265878,(,0,0,0
   12:18.592   265893,p,0,0,0
   12:18.644   265912,),0,0,0
   12:18.675   265923,(,0,0,1
   12:18.697   265931,N,0,0,0
   12:18.719   265939,),0,0,1
   12:18.867   265992,(,0,0,2
   12:18.986   266035,t,0,0,0
   12:19.069   266065,),0,0,2
   12:19.322   266156,(,0,0,0
   12:19.358   266169,p,0,0,0
   12:19.400   266184,),0,0,0
   12:19.450   266202,(,0,0,1
   12:19.472   266210,N,0,0,0
   12:19.494   266218,),0,0,1
   12:19.919   266371,(,0,0,2
   12:19.956   266384,t,0,0,5
   12:20.006   266402,t,0,0,5
   12:20.222   266480,),0,0,2
   13:11.936   285097,(,0,0,0
   13:11.978   285112,p,0,0,0
   13:12.106   285158,),0,0,0
   13:12.197   285191,(,0,0,1
   13:12.219   285199,N,0,0,0
   13:12.244   285208,),0,0,1
   13:12.631   285347,(,0,0,2
   13:12.669   285361,t,0,0,5
   13:12.722   285380,t,0,0,5
   13:12.789   285404,),0,0,2
   13:13.497   285659,(,0,0,1
   13:13.592   285693,N,0,0,0
   13:13.614   285701,),0,0,1
   13:13.719   285739,t,0,0,2
   13:13.831   285779,),0,0,2
   13:13.936   285817,(,0,0,1
   13:14.019   285847,N,0,0,0
   13:14.147   285893,),0,0,1
   13:14.192   285909,(,0,0,2
   13:14.356   285968,t,0,0,0
   13:14.464   286007,),0,0,2
   13:14.767   286116,(,0,0,0
   13:14.803   286129,p,0,0,0
   13:14.839   286142,),0,0,0
   13:14.889   286160,(,0,0,1
   13:14.908   286167,N,0,0,0
   13:14.933   286176,),0,0,1
   13:15.319   286315,(,0,0,2
   13:15.358   286329,t,0,0,0
   13:15.403   286345,),0,0,2
   13:16.139   286610,(,0,0,0
   13:16.178   286624,p,0,0,0
   13:16.219   286639,),0,0,0
   13:16.261   286654,(,0,0,1
   13:16.283   286662,N,0,0,0
   13:16.308   286671,),0,0,1
   13:16.703   286813,(,0,0,2
   13:16.744   286828,t,0,0,0
   13:16.789   286844,),0,0,2
   13:17.572   287126,(,0,0,0
   13:17.619   287143,p,0,0,0
   13:17.658   287157,),0,0,0
   13:17.706   287174,(,0,0,1
   13:17.725   287181,N,0,0,0
   13:17.750   287190,),0,0,1
   13:18.161   287338,(,0,0,2
   13:18.200   287352,t,0,0,0
   13:18.247   287369,),0,0,2
   13:19.075   287667,(,0,0,0
   13:19.117   287682,p,0,0,0
   13:19.161   287698,),0,0,0
   13:19.203   287713,(,0,0,1
   13:19.219   287719,N,0,0,0
   13:19.244   287728,),0,0,1
   13:19.400   287784,(,0,0,0
   13:19.472   287810,p,0,0,0
   13:19.564   287843,),0,0,0
   13:19.617   287862,(,0,0,1
   13:19.669   287881,N,0,0,0
   13:19.714   287897,),0,0,1
   13:19.811   287932,(,0,0,2
   13:19.833   287940,t,0,0,4
   13:19.917   287970,t,0,0,4
   13:19.992   287997,),0,0,2
   13:20.361   288130,(,0,0,0
   13:20.389   288140,p,0,0,0
   13:20.531   288191,),0,0,0
   13:20.617   288222,(,0,0,1
   13:20.636   288229,N,0,0,0
   13:20.658   288237,),0,0,1
   13:21.031   288371,(,0,0,2
   13:21.075   288387,t,0,0,0
   13:21.122   288404,),0,0,2
   13:21.922   288692,(,0,0,0
   13:21.961   288706,p,0,0,0
   13:22.003   288721,),0,0,0
   13:22.044   288736,(,0,0,1
   13:22.064   288743,N,0,0,0
   13:22.089   288752,),0,0,1
   13:22.486   288895,(,0,0,2
   13:22.536   288913,t,0,0,0
   13:22.589   288932,),0,0,2
   13:23.453   289243,(,0,0,0
   13:23.492   289257,p,0,0,0
   13:23.536   289273,),0,0,0
   13:23.578   289288,(,0,0,1
   13:23.600   289296,N,0,0,0
   13:23.636   289309,),0,0,1
   13:23.778   289360,(,0,0,2
   13:23.878   289396,t,0,0,0
   13:23.967   289428,),0,0,2
   13:24.039   289454,(,0,0,1
   13:24.100   289476,N,0,0,0
   13:24.181   289505,),0,0,1
   13:24.231   289523,(,0,0,2
   13:24.292   289545,t,0,0,4
   13:24.528   289630,t,0,0,4
   13:24.672   289682,),0,0,2
   13:24.864   289751,(,0,0,0
   13:24.908   289767,p,0,0,0
   13:24.969   289789,),0,0,0
   13:25.061   289822,(,0,0,1
   13:25.081   289829,N,0,0,0
   13:25.103   289837,),0,0,1
   13:25.219   289879,(,0,0,2
   13:25.342   289923,t,0,0,0
   13:25.436   289957,),0,0,2
   13:25.489   289976,(,0,0,1
   13:25.542   289995,N,0,0,0
   13:25.606   290018,),0,0,1
   13:25.647   290033,(,0,0,2
   13:25.717   290058,t,0,0,4
   13:25.936   290137,t,0,0,4
   13:26.022   290168,),0,0,2
   13:26.308   290271,(,0,0,0
   13:26.342   290283,p,0,0,0
   13:26.381   290297,),0,0,0
   13:26.414   290309,(,0,0,1
   13:26.436   290317,N,0,0,0
   13:26.472   290330,),0,0,1
   13:26.603   290377,(,0,0,2
   13:26.689   290408,t,0,0,0
   13:26.792   290445,),0,0,2
   13:26.842   290463,(,0,0,1
   13:26.906   290486,N,0,0,0
   13:26.939   290498,),0,0,1
   13:27.003   290521,(,0,0,2
   13:27.089   290552,t,0,0,1
   13:27.303   290629,),0,0,2
   13:27.683   290766,(,0,0,0
   13:27.719   290779,p,0,0,0
   13:27.764   290795,),0,0,0
   13:27.803   290809,(,0,0,1
   13:27.822   290816,N,0,0,0
   13:27.844   290824,),0,0,1
   13:27.964   290867,(,0,0,2
   13:28.078   290908,t,0,0,0
   13:28.181   290945,),0,0,2
   13:28.242   290967,(,0,0,1
   13:28.311   290992,N,0,0,0
   13:28.411   291028,),0,0,1
   13:28.447   291041,(,0,0,2
   13:28.500   291060,t,0,0,4
   13:28.747   291149,t,0,0,4
   13:28.778   291160,),0,0,2
   13:29.153   291295,(,0,0,1
   13:29.250   291330,N,0,0,0
   13:29.272   291338,),0,0,1
   13:29.689   291488,(,0,0,2
   13:29.739   291506,t,0,0,0
   13:29.789   291524,),0,0,2
   13:34.750   293310,(,0,0,0
   13:34.786   293323,p,0,0,0
   13:34.836   293341,),0,0,0
   13:34.878   293356,(,0,0,1
   13:34.900   293364,N,0,0,0
   13:34.922   293372,),0,0,1
   13:35.333   293520,(,0,0,2
   13:35.378   293536,t,0,0,0
   13:35.422   293552,),0,0,2
   13:36.300   293868,(,0,0,0
   13:36.339   293882,p,0,0,0
   13:36.386   293899,),0,0,0
   13:36.425   293913,(,0,0,1
   13:36.444   293920,N,0,0,0
   13:36.511   293944,),0,0,1
   13:36.869   294073,(,0,0,2
   13:36.922   294092,t,0,0,5
   13:36.967   294108,t,0,0,5
   13:37.006   294122,),0,0,2
   13:37.758   294393,(,0,0,0
   13:37.794   294406,p,0,0,0
   13:37.833   294420,),0,0,0
   13:37.875   294435,(,0,0,1
   13:37.894   294442,N,0,0,0
   13:37.917   294450,),0,0,1
   13:38.317   294594,(,0,0,2
   13:38.347   294605,t,0,0,5
   13:38.397   294623,t,0,0,5
   13:38.472   294650,),0,0,2
   13:39.164   294899,(,0,0,0
   13:39.203   294913,p,0,0,0
   13:39.239   294926,),0,0,0
   13:39.278   294940,(,0,0,1
   13:39.297   294947,N,0,0,0
   13:39.322   294956,),0,0,1
   13:39.769   295117,(,0,0,2
   13:39.806   295130,t,0,0,4
   13:39.847   295145,t,0,0,4
   13:39.919   295171,),0,0,2
   13:40.589   295412,(,0,0,0
   13:40.628   295426,p,0,0,0
   13:40.667   295440,),0,0,0
   13:40.714   295457,(,0,0,1
   13:40.736   295465,N,0,0,0
   13:40.761   295474,),0,0,1
   13:41.219   295639,(,0,0,2
   13:41.283   295662,t,0,0,0
   13:41.342   295683,),0,0,2
   13:42.094   295954,(,0,0,0
   13:42.128   295966,p,0,0,0
   13:42.178   295984,),0,0,0
   13:42.214   295997,(,0,0,1
   13:42.233   296004,N,0,0,0
   13:42.283   296022,),0,0,1
   13:42.675   296163,(,0,0,2
   13:42.725   296181,t,0,0,0
   13:42.775   296199,),0,0,2
   13:43.567   296484,(,0,0,0
   13:43.603   296497,p,0,0,0
   13:43.644   296512,),0,0,0
   13:43.683   296526,(,0,0,1
   13:43.703   296533,N,0,0,0
   13:43.728   296542,),0,0,1
   13:44.119   296683,(,0,0,2
   13:44.164   296699,t,0,0,0
   13:44.211   296716,),0,0,2
