Elapsedtime,sample,Type,Sub,Chan,Num
0:00.692,249,(,0,0,1
0:00.850,306,N,0,0,0
0:00.894,322,),0,0,1
0:00.928,334,(,0,0,2
0:01.075,387,t,0,0,0
0:01.214,437,),0,0,2
0:01.397,503,(,0,0,0
0:01.444,520,p,0,0,0
0:01.514,545,),0,0,0
0:01.536,553,(,0,0,1
0:01.681,605,N,0,0,0
0:01.728,622,),0,0,1
0:01.756,632,(,0,0,2
0:01.908,687,t,0,0,0
0:02.058,741,),0,0,2
0:02.108,759,(,0,0,0
0:02.161,778,p,0,0,0
0:02.250,810,),0,0,0
0:02.400,864,(,0,0,1
0:02.561,922,N,0,0,0
0:02.614,941,),0,0,1
0:02.642,951,(,0,0,2
0:02.803,1009,t,0,0,0
0:03.025,1089,),0,0,2
0:03.103,1117,(,0,0,0
0:03.136,1129,p,0,0,0
0:03.269,1177,),0,0,0
0:03.297,1187,(,0,0,1
0:03.444,1240,N,0,0,0
0:03.500,1260,),0,0,1
0:03.578,1288,(,0,0,2
0:03.672,1322,t,0,0,0
0:03.839,1382,),0,0,2
0:03.867,1392,(,0,0,0
0:03.889,1400,p,0,0,0
0:03.997,1439,),0,0,0
0:04.161,1498,(,0,0,1
0:04.311,1552,N,0,0,0
0:04.414,1589,),0,0,1
0:04.458,1605,(,0,0,2
0:04.533,1632,t,0,0,0
0:04.675,1683,),0,0,2
0:05.003,1801,(,0,0,1
0:05.144,1852,N,0,0,0
0:05.197,1871,),0,0,1
0:05.219,1879,(,0,0,2
0:05.369,1933,t,0,0,0
0:05.519,1987,),0,0,2
0:05.653,2035,(,0,0,0
0:05.706,2054,p,0,0,0
0:05.767,2076,),0,0,0
0:05.811,2092,(,0,0,1
0:05.978,2152,N,0,0,0
0:06.022,2168,),0,0,1
0:06.047,2177,(,0,0,2
0:06.186,2227,t,0,0,0
0:06.328,2278,),0,0,2
0:06.400,2304,(,0,0,0
0:06.464,2327,p,0,0,0
0:06.542,2355,),0,0,0
0:06.658,2397,(,0,0,1
0:06.806,2450,N,0,0,0
0:06.858,2469,),0,0,1
0:06.881,2477,(,0,0,2
0:07.025,2529,t,0,0,0
0:07.128,2566,),0,0,2
0:07.294,2626,(,0,0,0
0:07.367,2652,p,0,0,0
0:07.458,2685,),0,0,0
0:07.500,2700,(,0,0,1
0:07.658,2757,N,0,0,0
0:07.717,2778,),0,0,1
0:07.806,2810,(,0,0,2
0:07.894,2842,t,0,0,0
0:08.036,2893,),0,0,2
0:08.078,2908,(,0,0,0
0:08.108,2919,p,0,0,0
0:08.156,2936,),0,0,0
0:08.372,3014,(,0,0,1
0:08.525,3069,N,0,0,0
0:08.578,3088,),0,0,1
0:08.606,3098,(,0,0,2
0:08.758,3153,t,0,0,0
0:08.917,3210,),0,0,2
0:09.244,3328,(,0,0,1
0:09.392,3381,N,0,0,0
0:09.436,3397,),0,0,1
0:09.472,3410,(,0,0,2
0:09.633,3468,t,0,0,0
0:09.778,3520,),0,0,2
0:09.928,3574,(,0,0,0
0:10.008,3603,p,0,0,0
0:10.100,3636,),0,0,0
0:10.128,3646,(,0,0,1
0:10.272,3698,N,0,0,0
0:10.319,3715,),0,0,1
0:10.356,3728,(,0,0,2
0:10.506,3782,t,0,0,0
0:10.653,3835,),0,0,2
0:10.800,3888,(,0,0,0
0:10.839,3902,p,0,0,0
0:10.931,3935,),0,0,0
0:10.981,3953,(,0,0,1
0:11.128,4006,N,0,0,0
0:11.175,4023,),0,0,1
0:11.200,4032,(,0,0,2
0:11.339,4082,t,0,0,5
0:11.478,4132,t,0,0,5
0:11.525,4149,),0,0,2
0:11.572,4166,(,0,0,0
0:11.625,4185,p,0,0,0
0:11.711,4216,),0,0,0
0:11.783,4242,(,0,0,1
0:11.944,4300,N,0,0,0
0:11.992,4317,),0,0,1
0:12.017,4326,(,0,0,2
0:12.164,4379,t,0,0,0
0:12.306,4430,),0,0,2
0:12.611,4540,(,0,0,1
0:12.758,4593,N,0,0,0
0:12.803,4609,),0,0,1
0:12.833,4620,(,0,0,2
0:12.961,4666,t,0,0,0
0:13.131,4727,),0,0,2
0:13.217,4758,(,0,0,0
0:13.256,4772,p,0,0,0
0:13.278,4780,),0,0,0
0:13.439,4838,(,0,0,1
0:13.592,4893,N,0,0,0
0:13.694,4930,),0,0,1
0:13.722,4940,(,0,0,2
0:13.817,4974,t,0,0,0
0:13.961,5026,),0,0,2
0:14.311,5152,(,0,0,1
0:14.464,5207,N,0,0,0
0:14.519,5227,),0,0,1
0:14.544,5236,(,0,0,2
0:14.703,5293,t,0,0,0
0:14.847,5345,),0,0,2
0:14.992,5397,(,0,0,0
0:15.050,5418,p,0,0,0
0:15.125,5445,),0,0,0
0:15.172,5462,(,0,0,1
0:15.361,5530,N,0,0,0
0:15.414,5549,),0,0,1
0:15.444,5560,(,0,0,2
0:15.600,5616,t,0,0,0
0:15.750,5670,),0,0,2
0:15.833,5700,(,0,0,0
0:15.886,5719,p,0,0,0
0:15.972,5750,),0,0,0
0:16.072,5786,(,0,0,1
0:16.228,5842,N,0,0,0
0:16.281,5861,),0,0,1
0:16.308,5871,(,0,0,2
0:16.461,5926,t,0,0,0
0:16.567,5964,),0,0,2
0:16.906,6086,(,0,0,1
0:17.064,6143,N,0,0,0
0:17.114,6161,),0,0,1
0:17.142,6171,(,0,0,2
0:17.297,6227,t,0,0,0
0:17.425,6273,),0,0,2
0:17.744,6388,(,0,0,1
0:17.894,6442,N,0,0,0
0:17.942,6459,),0,0,1
0:17.981,6473,(,0,0,2
0:18.114,6521,t,0,0,0
0:18.264,6575,),0,0,2
0:18.592,6693,(,0,0,1
0:18.733,6744,N,0,0,0
0:18.778,6760,),0,0,1
0:18.789,6764,(,0,0,2
0:18.958,6825,t,0,0,0
0:19.100,6876,),0,0,2
0:19.400,6984,(,0,0,1
0:19.581,7049,N,0,0,0
0:19.622,7064,),0,0,1
0:19.658,7077,(,0,0,2
0:19.808,7131,t,0,0,0
0:19.942,7179,),0,0,2
0:20.122,7244,(,0,0,0
0:20.167,7260,p,0,0,0
0:20.250,7290,),0,0,0
0:20.278,7300,(,0,0,1
0:20.436,7357,N,0,0,0
0:20.486,7375,),0,0,1
0:20.514,7385,(,0,0,2
0:20.658,7437,t,0,0,0
0:20.806,7490,),0,0,2
0:20.836,7501,(,0,0,0
0:20.903,7525,p,0,0,0
0:20.986,7555,),0,0,0
0:21.144,7612,(,0,0,1
0:21.308,7671,N,0,0,0
0:21.361,7690,),0,0,1
0:21.389,7700,(,0,0,2
0:21.539,7754,t,0,0,0
0:21.736,7825,),0,0,2
0:21.828,7858,(,0,0,0
0:21.861,7870,p,0,0,0
0:21.967,7908,),0,0,0
0:21.997,7919,(,0,0,1
0:22.175,7983,N,0,0,0
0:22.228,8002,),0,0,1
0:22.314,8033,(,0,0,2
0:22.400,8064,t,0,0,0
0:22.558,8121,),0,0,2
0:22.869,8233,(,0,0,1
0:23.028,8290,N,0,0,0
0:23.078,8308,),0,0,1
0:23.083,8310,(,0,0,2
0:23.250,8370,t,0,0,0
0:23.394,8422,),0,0,2
0:23.408,8427,(,0,0,0
0:23.456,8444,p,0,0,0
0:23.506,8462,),0,0,0
0:23.703,8533,(,0,0,1
0:23.847,8585,N,0,0,0
0:23.892,8601,),0,0,1
0:23.919,8611,(,0,0,2
0:24.075,8667,t,0,0,0
0:24.217,8718,),0,0,2
0:24.444,8800,(,0,0,0
0:24.489,8816,p,0,0,0
0:24.514,8825,),0,0,0
0:24.531,8831,(,0,0,1
0:24.664,8879,N,0,0,0
0:24.708,8895,),0,0,1
0:24.739,8906,(,0,0,2
0:24.883,8958,t,0,0,0
0:25.019,9007,),0,0,2
0:25.125,9045,(,0,0,0
0:25.172,9062,p,0,0,0
0:25.253,9091,),0,0,0
0:25.344,9124,(,0,0,1
0:25.500,9180,N,0,0,0
0:25.550,9198,),0,0,1
0:25.583,9210,(,0,0,2
0:25.739,9266,t,0,0,0
0:25.853,9307,),0,0,2
0:26.231,9443,(,0,0,1
0:26.392,9501,N,0,0,0
0:26.439,9518,),0,0,1
0:26.469,9529,(,0,0,2
0:26.639,9590,t,0,0,0
0:26.767,9636,),0,0,2
0:26.822,9656,(,0,0,0
0:26.864,9671,p,0,0,0
0:26.969,9709,),0,0,0
0:27.119,9763,(,0,0,1
0:27.272,9818,N,0,0,0
0:27.322,9836,),0,0,1
0:27.353,9847,(,0,0,2
0:27.497,9899,t,0,0,0
0:27.644,9952,),0,0,2
0:27.978,10072,(,0,0,1
0:28.133,10128,N,0,0,0
0:28.175,10143,),0,0,1
0:28.186,10147,(,0,0,2
0:28.367,10212,t,0,0,0
0:28.514,10265,),0,0,2
0:28.783,10362,(,0,0,1
0:28.989,10436,N,0,0,0
0:29.031,10451,),0,0,1
0:29.067,10464,(,0,0,2
0:29.208,10515,t,0,0,0
0:29.342,10563,),0,0,2
0:29.492,10617,(,0,0,0
0:29.533,10632,p,0,0,0
0:29.614,10661,),0,0,0
0:29.658,10677,(,0,0,1
0:29.811,10732,N,0,0,0
0:29.858,10749,),0,0,1
0:29.886,10759,(,0,0,2
0:30.031,10811,t,0,0,0
0:30.161,10858,),0,0,2
0:30.264,10895,(,0,0,0
0:30.319,10915,p,0,0,0
0:30.408,10947,),0,0,0
0:30.489,10976,(,0,0,1
0:30.642,11031,N,0,0,0
0:30.686,11047,),0,0,1
0:30.719,11059,(,0,0,2
0:30.897,11123,t,0,0,0
0:31.039,11174,),0,0,2
0:31.319,11275,(,0,0,1
0:31.475,11331,N,0,0,0
0:31.519,11347,),0,0,1
0:31.553,11359,(,0,0,2
0:31.689,11408,t,0,0,0
0:31.858,11469,),0,0,2
0:31.883,11478,(,0,0,0
0:31.897,11483,p,0,0,0
0:31.972,11510,),0,0,0
0:32.181,11585,(,0,0,1
0:32.331,11639,N,0,0,0
0:32.383,11658,),0,0,1
0:32.406,11666,(,0,0,2
0:32.561,11722,t,0,0,0
0:32.719,11779,),0,0,2
0:33.047,11897,(,0,0,1
0:33.100,11916,N,0,0,0
0:33.239,11966,),0,0,1
0:33.269,11977,(,0,0,2
0:33.472,12050,t,0,0,0
0:33.608,12099,),0,0,2
0:33.811,12172,(,0,0,0
0:33.861,12190,p,0,0,0
0:33.931,12215,),0,0,0
0:33.956,12224,(,0,0,1
0:33.994,12238,N,0,0,0
0:34.136,12289,),0,0,1
0:34.158,12297,(,0,0,2
0:34.344,12364,t,0,0,0
0:34.469,12409,),0,0,2
0:34.608,12459,(,0,0,0
0:34.719,12499,p,0,0,0
0:34.783,12522,),0,0,0
0:34.806,12530,(,0,0,1
0:34.844,12544,N,0,0,0
0:34.983,12594,),0,0,1
0:35.022,12608,(,0,0,2
0:35.175,12663,t,0,0,0
0:35.353,12727,),0,0,2
0:35.614,12821,(,0,0,1
0:35.658,12837,N,0,0,0
0:35.803,12889,),0,0,1
0:35.894,12922,(,0,0,2
0:35.978,12952,t,0,0,0
0:36.108,12999,),0,0,2
0:36.136,13009,(,0,0,0
0:36.156,13016,p,0,0,0
0:36.225,13041,),0,0,0
0:36.422,13112,(,0,0,1
0:36.481,13133,N,0,0,0
0:36.631,13187,),0,0,1
0:36.647,13193,(,0,0,2
0:36.756,13232,t,0,0,0
0:36.944,13300,),0,0,2
0:36.956,13304,(,0,0,0
0:37.006,13322,p,0,0,0
0:37.033,13332,),0,0,0
0:37.253,13411,(,0,0,1
0:37.303,13429,N,0,0,0
0:37.450,13482,),0,0,1
0:37.458,13485,(,0,0,2
0:37.664,13559,t,0,0,0
0:37.789,13604,),0,0,2
0:38.042,13695,(,0,0,0
0:38.083,13710,p,0,0,0
0:38.122,13724,),0,0,0
0:38.142,13731,(,0,0,1
0:38.181,13745,N,0,0,0
0:38.331,13799,),0,0,1
0:38.353,13807,(,0,0,2
0:38.544,13876,t,0,0,0
0:38.692,13929,),0,0,2
0:38.875,13995,(,0,0,0
0:38.961,14026,p,0,0,0
0:39.006,14042,),0,0,0
0:39.033,14052,(,0,0,1
0:39.072,14066,N,0,0,0
0:39.219,14119,),0,0,1
0:39.258,14133,(,0,0,2
0:39.425,14193,t,0,0,0
0:39.533,14232,),0,0,2
0:39.892,14361,(,0,0,1
0:39.947,14381,N,0,0,0
0:40.086,14431,),0,0,1
0:40.097,14435,(,0,0,2
0:40.286,14503,t,0,0,0
0:40.425,14553,),0,0,2
0:40.469,14569,(,0,0,0
0:40.494,14578,p,0,0,0
0:40.542,14595,),0,0,0
0:40.717,14658,(,0,0,1
0:40.792,14685,N,0,0,0
0:40.939,14738,),0,0,1
0:40.969,14749,(,0,0,2
0:41.122,14804,t,0,0,0
0:41.261,14854,),0,0,2
0:41.314,14873,(,0,0,0
0:41.325,14877,p,0,0,0
0:41.361,14890,),0,0,0
0:41.594,14974,(,0,0,1
0:41.639,14990,N,0,0,0
0:41.775,15039,),0,0,1
0:41.797,15047,(,0,0,2
0:41.967,15108,t,0,0,0
0:42.092,15153,),0,0,2
0:42.219,15199,(,0,0,0
0:42.256,15212,p,0,0,0
0:42.381,15257,),0,0,0
0:42.428,15274,(,0,0,1
0:42.569,15325,N,0,0,0
0:42.617,15342,),0,0,1
0:42.647,15353,(,0,0,2
0:42.794,15406,t,0,0,0
0:42.939,15458,),0,0,2
0:43.028,15490,(,0,0,0
0:43.075,15507,p,0,0,0
0:43.153,15535,),0,0,0
0:43.239,15566,(,0,0,1
0:43.281,15581,N,0,0,0
0:43.392,15621,),0,0,1
0:43.439,15638,(,0,0,2
0:43.628,15706,t,0,0,0
0:43.725,15741,),0,0,2
0:44.089,15872,(,0,0,1
0:44.131,15887,N,0,0,0
0:44.278,15940,),0,0,1
0:44.297,15947,(,0,0,2
0:44.500,16020,t,0,0,0
0:44.639,16070,),0,0,2
0:44.953,16183,(,0,0,1
0:45.117,16242,N,0,0,0
0:45.167,16260,),0,0,1
0:45.197,16271,(,0,0,2
0:45.356,16328,t,0,0,0
0:45.517,16386,),0,0,2
0:45.847,16505,(,0,0,1
0:45.889,16520,N,0,0,0
0:46.028,16570,),0,0,1
0:46.064,16583,(,0,0,2
0:46.256,16652,t,0,0,0
0:46.397,16703,),0,0,2
0:46.528,16750,(,0,0,0
0:46.586,16771,p,0,0,0
0:46.689,16808,),0,0,0
0:46.717,16818,(,0,0,1
0:46.856,16868,N,0,0,0
0:46.903,16885,),0,0,1
0:46.933,16896,(,0,0,2
0:47.081,16949,t,0,0,0
0:47.217,16998,),0,0,2
0:47.331,17039,(,0,0,0
0:47.381,17057,p,0,0,0
0:47.461,17086,),0,0,0
0:47.531,17111,(,0,0,1
0:47.572,17126,N,0,0,0
0:47.708,17175,),0,0,1
0:47.719,17179,(,0,0,2
0:47.900,17244,t,0,0,0
0:48.000,17280,),0,0,2
0:48.008,17283,(,0,0,0
0:48.047,17297,p,0,0,0
0:48.128,17326,),0,0,0
0:48.342,17403,(,0,0,1
0:48.492,17457,N,0,0,0
0:48.536,17473,),0,0,1
0:48.567,17484,(,0,0,2
0:48.728,17542,t,0,0,0
0:48.858,17589,),0,0,2
0:49.194,17710,(,0,0,1
0:49.350,17766,N,0,0,0
0:49.397,17783,),0,0,1
0:49.433,17796,(,0,0,2
0:49.581,17849,t,0,0,0
0:49.728,17902,),0,0,2
0:49.761,17914,(,0,0,0
0:49.789,17924,p,0,0,0
0:49.861,17950,),0,0,0
0:50.056,18020,(,0,0,1
0:50.217,18078,N,0,0,0
0:50.256,18092,),0,0,1
0:50.275,18099,(,0,0,2
0:50.469,18169,t,0,0,0
0:50.608,18219,),0,0,2
0:50.778,18280,(,0,0,0
0:50.833,18300,p,0,0,0
0:50.919,18331,),0,0,0
0:50.944,18340,(,0,0,1
0:51.089,18392,N,0,0,0
0:51.133,18408,),0,0,1
0:51.172,18422,(,0,0,2
0:51.331,18479,t,0,0,0
0:51.469,18529,),0,0,2
0:51.606,18578,(,0,0,0
0:51.656,18596,p,0,0,0
0:51.736,18625,),0,0,0
0:51.808,18651,(,0,0,1
0:51.850,18666,N,0,0,0
0:51.994,18718,),0,0,1
0:52.006,18722,(,0,0,2
0:52.203,18793,t,0,0,0
0:52.319,18835,),0,0,2
0:52.333,18840,(,0,0,0
0:52.369,18853,p,0,0,0
0:52.461,18886,),0,0,0
0:52.653,18955,(,0,0,1
0:52.703,18973,N,0,0,0
0:52.844,19024,),0,0,1
0:52.858,19029,(,0,0,2
0:53.056,19100,t,0,0,0
0:53.175,19143,),0,0,2
0:53.492,19257,(,0,0,1
0:53.642,19311,N,0,0,0
0:53.686,19327,),0,0,1
0:53.719,19339,(,0,0,2
0:53.858,19389,t,0,0,0
0:54.014,19445,),0,0,2
0:54.033,19452,(,0,0,0
0:54.064,19463,p,0,0,0
0:54.128,19486,),0,0,0
0:54.331,19559,(,0,0,1
0:54.372,19574,N,0,0,0
0:54.497,19619,),0,0,1
0:54.528,19630,(,0,0,2
0:54.703,19693,t,0,0,0
0:54.836,19741,),0,0,2
0:54.983,19794,(,0,0,0
0:55.039,19814,p,0,0,0
0:55.142,19851,),0,0,0
0:55.158,19857,(,0,0,1
0:55.300,19908,N,0,0,0
0:55.344,19924,),0,0,1
0:55.375,19935,(,0,0,2
0:55.522,19988,t,0,0,0
0:55.664,20039,),0,0,2
0:55.789,20084,(,0,0,0
0:55.836,20101,p,0,0,0
0:55.919,20131,),0,0,0
0:55.989,20156,(,0,0,1
0:56.031,20171,N,0,0,0
0:56.178,20224,),0,0,1
0:56.200,20232,(,0,0,2
0:56.394,20302,t,0,0,0
0:56.506,20342,),0,0,2
0:56.872,20474,(,0,0,1
0:57.039,20534,N,0,0,0
0:57.094,20554,),0,0,1
0:57.125,20565,(,0,0,2
0:57.297,20627,t,0,0,0
0:57.431,20675,),0,0,2
0:57.758,20793,(,0,0,1
0:57.914,20849,N,0,0,0
0:57.964,20867,),0,0,1
0:57.997,20879,(,0,0,2
0:58.156,20936,t,0,0,0
0:58.311,20992,),0,0,2
0:58.619,21103,(,0,0,1
0:58.661,21118,N,0,0,0
0:58.797,21167,),0,0,1
0:58.833,21180,(,0,0,2
0:58.992,21237,t,0,0,0
0:59.131,21287,),0,0,2
0:59.297,21347,(,0,0,0
0:59.342,21363,p,0,0,0
0:59.414,21389,),0,0,0
0:59.447,21401,(,0,0,1
0:59.483,21414,N,0,0,0
0:59.631,21467,),0,0,1
0:59.661,21478,(,0,0,2
0:59.814,21533,t,0,0,0
0:59.947,21581,),0,0,2
1:00.050,21618,(,0,0,0
1:00.100,21636,p,0,0,0
1:00.181,21665,),0,0,0
1:00.269,21697,(,0,0,1
1:00.408,21747,N,0,0,0
1:00.464,21767,),0,0,1
1:00.525,21789,(,0,0,2
1:00.631,21827,t,0,0,0
1:00.731,21863,),0,0,2
1:01.100,21996,(,0,0,1
1:01.250,22050,N,0,0,0
1:01.297,22067,),0,0,1
1:01.403,22105,(,0,0,2
1:01.483,22134,t,0,0,0
1:01.622,22184,),0,0,2
1:01.969,22309,(,0,0,1
1:02.017,22326,N,0,0,0
1:02.175,22383,),0,0,1
1:02.203,22393,(,0,0,2
1:02.361,22450,t,0,0,0
1:02.508,22503,),0,0,2
1:02.856,22628,(,0,0,1
1:03.008,22683,N,0,0,0
1:03.056,22700,),0,0,1
1:03.086,22711,(,0,0,2
1:03.253,22771,t,0,0,0
1:03.400,22824,),0,0,2
1:03.625,22905,(,0,0,0
1:03.672,22922,p,0,0,0
1:03.711,22936,),0,0,0
1:03.728,22942,(,0,0,1
1:03.761,22954,N,0,0,0
1:03.903,23005,),0,0,1
1:03.922,23012,(,0,0,2
1:04.117,23082,t,0,0,0
1:04.253,23131,),0,0,2
1:04.314,23153,(,0,0,0
1:04.386,23179,p,0,0,0
1:04.461,23206,),0,0,0
1:04.572,23246,(,0,0,1
1:04.625,23265,N,0,0,0
1:04.772,23318,),0,0,1
1:04.811,23332,(,0,0,2
1:04.981,23393,t,0,0,0
1:05.183,23466,),0,0,2
1:05.417,23550,(,0,0,1
1:05.564,23603,N,0,0,0
1:05.614,23621,),0,0,1
1:05.692,23649,(,0,0,2
1:05.781,23681,t,0,0,0
1:05.928,23734,),0,0,2
1:05.953,23743,(,0,0,0
1:05.969,23749,p,0,0,0
1:06.039,23774,),0,0,0
1:06.247,23849,(,0,0,1
1:06.386,23899,N,0,0,0
1:06.486,23935,),0,0,1
1:06.525,23949,(,0,0,2
1:06.608,23979,t,0,0,0
1:06.742,24027,),0,0,2
1:06.767,24036,(,0,0,0
1:06.797,24047,p,0,0,0
1:06.839,24062,),0,0,0
1:07.064,24143,(,0,0,1
1:07.208,24195,N,0,0,0
1:07.256,24212,),0,0,1
1:07.283,24222,(,0,0,2
1:07.433,24276,t,0,0,0
1:07.572,24326,),0,0,2
1:07.778,24400,(,0,0,0
1:07.825,24417,p,0,0,0
1:07.894,24442,),0,0,0
1:07.917,24450,(,0,0,1
1:08.064,24503,N,0,0,0
1:08.117,24522,),0,0,1
1:08.144,24532,(,0,0,2
1:08.289,24584,t,0,0,0
1:08.431,24635,),0,0,2
1:08.558,24681,(,0,0,0
1:08.619,24703,p,0,0,0
1:08.703,24733,),0,0,0
1:08.781,24761,(,0,0,1
1:08.942,24819,N,0,0,0
1:08.994,24838,),0,0,1
1:09.028,24850,(,0,0,2
1:09.183,24906,t,0,0,0
1:09.361,24970,),0,0,2
1:09.672,25082,(,0,0,1
1:09.719,25099,N,0,0,0
1:09.881,25157,),0,0,1
1:09.914,25169,(,0,0,2
1:10.053,25219,t,0,0,0
1:10.214,25277,),0,0,2
1:10.236,25285,(,0,0,0
1:10.272,25298,p,0,0,0
1:10.322,25316,),0,0,0
1:10.531,25391,(,0,0,1
1:10.681,25445,N,0,0,0
1:10.733,25464,),0,0,1
1:10.761,25474,(,0,0,2
1:10.917,25530,t,0,0,0
1:11.056,25580,),0,0,2
1:11.336,25681,(,0,0,1
1:11.508,25743,N,0,0,0
1:11.553,25759,),0,0,1
1:11.583,25770,(,0,0,2
1:11.731,25823,t,0,0,0
1:11.867,25872,),0,0,2
1:12.025,25929,(,0,0,0
1:12.069,25945,p,0,0,0
1:12.142,25971,),0,0,0
1:12.189,25988,(,0,0,1
1:12.231,26003,N,0,0,0
1:12.381,26057,),0,0,1
1:12.419,26071,(,0,0,2
1:12.569,26125,t,0,0,0
1:12.697,26171,),0,0,2
1:12.803,26209,(,0,0,0
1:12.861,26230,p,0,0,0
1:12.961,26266,),0,0,0
1:13.042,26295,(,0,0,1
1:13.189,26348,N,0,0,0
1:13.239,26366,),0,0,1
1:13.261,26374,(,0,0,2
1:13.431,26435,t,0,0,0
1:13.564,26483,),0,0,2
1:13.897,26603,(,0,0,1
1:14.047,26657,N,0,0,0
1:14.094,26674,),0,0,1
1:14.131,26687,(,0,0,2
1:14.272,26738,t,0,0,0
1:14.428,26794,),0,0,2
1:14.753,26911,(,0,0,1
1:14.800,26928,N,0,0,0
1:14.956,26984,),0,0,1
1:14.994,26998,(,0,0,2
1:15.150,27054,t,0,0,0
1:15.294,27106,),0,0,2
1:15.575,27207,(,0,0,1
1:15.783,27282,N,0,0,0
1:15.833,27300,),0,0,1
1:15.867,27312,(,0,0,2
1:16.019,27367,t,0,0,0
1:16.156,27416,),0,0,2
1:16.300,27468,(,0,0,0
1:16.347,27485,p,0,0,0
1:16.425,27513,),0,0,0
1:16.483,27534,(,0,0,1
1:16.528,27550,N,0,0,0
1:16.686,27607,),0,0,1
1:16.717,27618,(,0,0,2
1:16.875,27675,t,0,0,0
1:16.992,27717,),0,0,2
1:17.011,27724,(,0,0,0
1:17.047,27737,p,0,0,0
1:17.131,27767,),0,0,0
1:17.317,27834,(,0,0,1
1:17.469,27889,N,0,0,0
1:17.522,27908,),0,0,1
1:17.547,27917,(,0,0,2
1:17.717,27978,t,0,0,0
1:17.844,28024,),0,0,2
1:18.147,28133,(,0,0,1
1:18.294,28186,N,0,0,0
1:18.339,28202,),0,0,1
1:18.375,28215,(,0,0,2
1:18.508,28263,t,0,0,0
1:18.664,28319,),0,0,2
1:18.681,28325,(,0,0,0
1:18.706,28334,p,0,0,0
1:18.769,28357,),0,0,0
1:18.975,28431,(,0,0,1
1:19.019,28447,N,0,0,0
1:19.169,28501,),0,0,1
1:19.197,28511,(,0,0,2
1:19.344,28564,t,0,0,0
1:19.486,28615,),0,0,2
1:19.781,28721,(,0,0,1
1:19.856,28748,N,0,0,0
1:20.011,28804,),0,0,1
1:20.044,28816,(,0,0,2
1:20.214,28877,t,0,0,0
1:20.350,28926,),0,0,2
1:20.544,28996,(,0,0,0
1:20.592,29013,p,0,0,0
1:20.675,29043,),0,0,0
1:20.711,29056,(,0,0,1
1:20.869,29113,N,0,0,0
1:20.925,29133,),0,0,1
1:20.953,29143,(,0,0,2
1:21.100,29196,t,0,0,5
1:21.264,29255,t,0,0,5
1:21.328,29278,),0,0,2
1:21.369,29293,(,0,0,0
1:21.431,29315,p,0,0,0
1:21.522,29348,),0,0,0
1:21.586,29371,(,0,0,1
1:21.636,29389,N,0,0,0
1:21.800,29448,),0,0,1
1:21.828,29458,(,0,0,2
1:21.983,29514,t,0,0,0
1:22.167,29580,),0,0,2
1:22.439,29678,(,0,0,1
1:22.486,29695,N,0,0,0
1:22.642,29751,),0,0,1
1:22.711,29776,(,0,0,2
1:22.814,29813,t,0,0,0
1:22.967,29868,),0,0,2
1:22.989,29876,(,0,0,0
1:23.017,29886,p,0,0,0
1:23.092,29913,),0,0,0
1:23.283,29982,(,0,0,1
1:23.425,30033,N,0,0,0
1:23.497,30059,),0,0,1
1:23.569,30085,(,0,0,2
1:23.656,30116,t,0,0,0
1:23.800,30168,),0,0,2
1:24.103,30277,(,0,0,1
1:24.147,30293,N,0,0,0
1:24.294,30346,),0,0,1
1:24.322,30356,(,0,0,2
1:24.483,30414,t,0,0,0
1:24.625,30465,),0,0,2
1:24.856,30548,(,0,0,0
1:24.906,30566,p,0,0,0
1:24.936,30577,),0,0,0
1:24.953,30583,(,0,0,1
1:25.092,30633,N,0,0,0
1:25.139,30650,),0,0,1
1:25.169,30661,(,0,0,2
1:25.322,30716,t,0,0,0
1:25.467,30768,),0,0,2
1:25.578,30808,(,0,0,0
1:25.628,30826,p,0,0,0
1:25.714,30857,),0,0,0
1:25.803,30889,(,0,0,1
1:25.847,30905,N,0,0,0
1:25.997,30959,),0,0,1
1:26.031,30971,(,0,0,2
1:26.189,31028,t,0,0,0
1:26.297,31067,),0,0,2
1:26.664,31199,(,0,0,1
1:26.714,31217,N,0,0,0
1:26.869,31273,),0,0,1
1:26.900,31284,(,0,0,2
1:27.072,31346,t,0,0,0
1:27.203,31393,),0,0,2
1:27.528,31510,(,0,0,1
1:27.578,31528,N,0,0,0
1:27.733,31584,),0,0,1
1:27.744,31588,(,0,0,2
1:27.925,31653,t,0,0,0
1:28.083,31710,),0,0,2
1:28.414,31829,(,0,0,1
1:28.461,31846,N,0,0,0
1:28.611,31900,),0,0,1
1:28.614,31901,t,0,0,2
1:28.797,31967,),0,0,2
1:29.039,32054,(,0,0,1
1:29.128,32086,N,0,0,0
1:29.231,32123,),0,0,1
1:29.267,32136,(,0,0,2
1:29.347,32165,t,0,0,1
1:29.481,32213,),0,0,2
1:29.919,32371,(,0,0,1
1:29.997,32399,N,0,0,0
1:30.142,32451,),0,0,1
1:30.172,32462,(,0,0,2
1:30.319,32515,t,0,0,0
1:30.472,32570,),0,0,2
1:30.614,32621,(,0,0,0
1:30.658,32637,p,0,0,0
1:30.733,32664,),0,0,0
1:30.775,32679,(,0,0,1
1:30.814,32693,N,0,0,0
1:30.967,32748,),0,0,1
1:30.994,32758,(,0,0,2
1:31.142,32811,t,0,0,5
1:31.297,32867,t,0,0,5
1:31.350,32886,),0,0,2
1:31.394,32902,(,0,0,0
1:31.450,32922,p,0,0,0
1:31.539,32954,),0,0,0
1:31.614,32981,(,0,0,1
1:31.758,33033,N,0,0,0
1:31.811,33052,),0,0,1
1:31.836,33061,(,0,0,2
1:31.983,33114,t,0,0,0
1:32.175,33183,),0,0,2
1:32.486,33295,(,0,0,1
1:32.642,33351,N,0,0,0
1:32.694,33370,),0,0,1
1:32.725,33381,(,0,0,2
1:32.867,33432,t,0,0,0
1:33.039,33494,),0,0,2
1:33.381,33617,(,0,0,1
1:33.536,33673,N,0,0,0
1:33.589,33692,),0,0,1
1:33.678,33724,(,0,0,2
1:33.772,33758,t,0,0,0
1:33.911,33808,),0,0,2
1:34.244,33928,(,0,0,1
1:34.294,33946,N,0,0,0
1:34.456,34004,),0,0,1
1:34.483,34014,(,0,0,2
1:34.631,34067,t,0,0,0
1:34.764,34115,),0,0,2
1:34.975,34191,(,0,0,0
1:35.019,34207,p,0,0,0
1:35.075,34227,),0,0,0
1:35.094,34234,(,0,0,1
1:35.231,34283,N,0,0,0
1:35.278,34300,),0,0,1
1:35.306,34310,(,0,0,2
1:35.450,34362,t,0,0,0
1:35.592,34413,),0,0,2
1:35.658,34437,(,0,0,0
1:35.706,34454,p,0,0,0
1:35.783,34482,),0,0,0
1:35.914,34529,(,0,0,1
1:35.956,34544,N,0,0,0
1:36.111,34600,),0,0,1
1:36.139,34610,(,0,0,2
1:36.292,34665,t,0,0,0
1:36.503,34741,),0,0,2
1:36.750,34830,(,0,0,1
1:36.897,34883,N,0,0,0
1:36.950,34902,),0,0,1
1:37.033,34932,(,0,0,2
1:37.119,34963,t,0,0,0
1:37.267,35016,),0,0,2
1:37.597,35135,(,0,0,1
1:37.742,35187,N,0,0,0
1:37.794,35206,),0,0,1
1:37.811,35212,(,0,0,2
1:37.967,35268,t,0,0,0
1:38.106,35318,),0,0,2
1:38.450,35442,(,0,0,1
1:38.497,35459,N,0,0,0
1:38.647,35513,),0,0,1
1:38.683,35526,(,0,0,2
1:38.842,35583,t,0,0,0
1:38.983,35634,),0,0,2
1:39.247,35729,(,0,0,0
1:39.297,35747,p,0,0,0
1:39.328,35758,),0,0,0
1:39.344,35764,(,0,0,1
1:39.483,35814,N,0,0,0
1:39.528,35830,),0,0,1
1:39.569,35845,(,0,0,2
1:39.714,35897,t,0,0,0
1:39.864,35951,),0,0,2
1:39.953,35983,(,0,0,0
1:40.008,36003,p,0,0,0
1:40.092,36033,),0,0,0
1:40.200,36072,(,0,0,1
1:40.244,36088,N,0,0,0
1:40.400,36144,),0,0,1
1:40.439,36158,(,0,0,2
1:40.581,36209,t,0,0,0
1:40.689,36248,),0,0,2
1:41.050,36378,(,0,0,1
1:41.097,36395,N,0,0,0
1:41.250,36450,),0,0,1
1:41.283,36462,(,0,0,2
1:41.431,36515,t,0,0,0
1:41.561,36562,),0,0,2
1:41.869,36673,(,0,0,1
1:42.017,36726,N,0,0,0
1:42.061,36742,),0,0,1
1:42.097,36755,(,0,0,2
1:42.233,36804,t,0,0,0
1:42.378,36856,),0,0,2
1:42.681,36965,(,0,0,1
1:42.828,37018,N,0,0,0
1:42.872,37034,),0,0,1
1:42.906,37046,(,0,0,2
1:43.050,37098,t,0,0,0
1:43.192,37149,),0,0,2
1:43.492,37257,(,0,0,1
1:43.575,37287,N,0,0,0
1:43.731,37343,),0,0,1
1:43.772,37358,(,0,0,2
1:43.925,37413,t,0,0,0
1:44.078,37468,),0,0,2
1:44.264,37535,(,0,0,0
1:44.306,37550,p,0,0,0
1:44.386,37579,),0,0,0
1:44.428,37594,(,0,0,1
1:44.469,37609,N,0,0,0
1:44.628,37666,),0,0,1
1:44.661,37678,(,0,0,2
1:44.811,37732,t,0,0,0
1:44.964,37787,),0,0,2
1:45.086,37831,(,0,0,0
1:45.161,37858,p,0,0,0
1:45.231,37883,),0,0,0
1:45.303,37909,(,0,0,1
1:45.461,37966,N,0,0,0
1:45.511,37984,),0,0,1
1:45.539,37994,(,0,0,2
1:45.686,38047,t,0,0,0
1:45.869,38113,),0,0,2
1:45.950,38142,(,0,0,0
1:46.011,38164,p,0,0,0
1:46.089,38192,),0,0,0
1:46.167,38220,(,0,0,1
1:46.319,38275,N,0,0,0
1:46.367,38292,),0,0,1
1:46.442,38319,(,0,0,2
1:46.533,38352,t,0,0,0
1:46.686,38407,),0,0,2
1:47.019,38527,(,0,0,1
1:47.061,38542,N,0,0,0
1:47.208,38595,),0,0,1
1:47.300,38628,(,0,0,2
1:47.372,38654,t,0,0,0
1:47.508,38703,),0,0,2
1:47.828,38818,(,0,0,1
1:47.878,38836,N,0,0,0
1:48.028,38890,),0,0,1
1:48.058,38901,(,0,0,2
1:48.203,38953,t,0,0,0
1:48.331,38999,),0,0,2
1:48.478,39052,(,0,0,0
1:48.525,39069,p,0,0,0
1:48.633,39108,),0,0,0
1:48.669,39121,(,0,0,1
1:48.706,39134,N,0,0,0
1:48.861,39190,),0,0,1
1:48.897,39203,(,0,0,2
1:49.042,39255,t,0,0,0
1:49.175,39303,),0,0,2
1:49.311,39352,(,0,0,0
1:49.350,39366,p,0,0,0
1:49.431,39395,),0,0,0
1:49.500,39420,(,0,0,1
1:49.542,39435,N,0,0,0
1:49.700,39492,),0,0,1
1:49.736,39505,(,0,0,2
1:49.881,39557,t,0,0,0
1:50.017,39606,),0,0,2
1:50.042,39615,(,0,0,0
1:50.081,39629,p,0,0,0
1:50.161,39658,),0,0,0
1:50.350,39726,(,0,0,1
1:50.403,39745,N,0,0,0
1:50.561,39802,),0,0,1
1:50.592,39813,(,0,0,2
1:50.742,39867,t,0,0,0
1:50.919,39931,),0,0,2
1:51.233,40044,(,0,0,1
1:51.394,40102,N,0,0,0
1:51.444,40120,),0,0,1
1:51.478,40132,(,0,0,2
1:51.622,40184,t,0,0,0
1:51.789,40244,),0,0,2
1:52.133,40368,(,0,0,1
1:52.281,40421,N,0,0,0
1:52.328,40438,),0,0,1
1:52.333,40440,(,0,0,2
1:52.503,40501,t,0,0,0
1:52.647,40553,),0,0,2
1:52.978,40672,(,0,0,1
1:53.122,40724,N,0,0,0
1:53.164,40739,),0,0,1
1:53.192,40749,(,0,0,2
1:53.336,40801,t,0,0,0
1:53.464,40847,),0,0,2
1:53.589,40892,(,0,0,0
1:53.686,40927,p,0,0,0
1:53.761,40954,),0,0,0
1:53.794,40966,(,0,0,1
1:53.933,41016,N,0,0,0
1:53.972,41030,),0,0,1
1:54.008,41043,(,0,0,2
1:54.147,41093,t,0,0,0
1:54.286,41143,),0,0,2
1:54.431,41195,(,0,0,0
1:54.472,41210,p,0,0,0
1:54.553,41239,),0,0,0
1:54.608,41259,(,0,0,1
1:54.758,41313,N,0,0,0
1:54.806,41330,),0,0,1
1:54.833,41340,(,0,0,2
1:54.972,41390,t,0,0,0
1:55.108,41439,),0,0,2
1:55.211,41476,(,0,0,0
1:55.281,41501,p,0,0,0
1:55.375,41535,),0,0,0
1:55.442,41559,(,0,0,1
1:55.600,41616,N,0,0,0
1:55.650,41634,),0,0,1
1:55.681,41645,(,0,0,2
1:55.831,41699,t,0,0,0
1:56.019,41767,),0,0,2
1:56.117,41802,(,0,0,0
1:56.156,41816,p,0,0,0
1:56.253,41851,),0,0,0
1:56.328,41878,(,0,0,1
1:56.483,41934,N,0,0,0
1:56.533,41952,),0,0,1
1:56.567,41964,(,0,0,2
1:56.717,42018,t,0,0,0
1:56.883,42078,),0,0,2
1:56.903,42085,(,0,0,0
1:56.922,42092,p,0,0,0
1:57.000,42120,),0,0,0
1:57.203,42193,(,0,0,1
1:57.361,42250,N,0,0,0
1:57.411,42268,),0,0,1
1:57.431,42275,(,0,0,2
1:57.597,42335,t,0,0,0
1:57.750,42390,),0,0,2
1:58.081,42509,(,0,0,1
1:58.128,42526,N,0,0,0
1:58.278,42580,),0,0,1
1:58.308,42591,(,0,0,2
1:58.458,42645,t,0,0,0
1:58.606,42698,),0,0,2
1:58.878,42796,(,0,0,1
1:58.967,42828,N,0,0,0
1:59.117,42882,),0,0,1
1:59.156,42896,(,0,0,2
1:59.300,42948,t,0,0,0
1:59.436,42997,),0,0,2
1:59.619,43063,(,0,0,0
1:59.661,43078,p,0,0,0
1:59.736,43105,),0,0,0
1:59.767,43116,(,0,0,1
1:59.808,43131,N,0,0,0
1:59.956,43184,),0,0,1
1:59.989,43196,(,0,0,2
2:00.131,43247,t,0,0,0
2:00.264,43295,),0,0,2
2:00.322,43316,(,0,0,0
2:00.364,43331,p,0,0,0
2:00.444,43360,),0,0,0
2:00.589,43412,(,0,0,1
2:00.631,43427,N,0,0,0
2:00.783,43482,),0,0,1
2:00.814,43493,(,0,0,2
2:00.953,43543,t,0,0,0
2:01.153,43615,),0,0,2
2:01.408,43707,(,0,0,1
2:01.456,43724,N,0,0,0
2:01.608,43779,),0,0,1
2:01.647,43793,(,0,0,2
2:01.797,43847,t,0,0,0
2:01.928,43894,),0,0,2
2:01.972,43910,(,0,0,0
2:01.994,43918,p,0,0,0
2:02.058,43941,),0,0,0
2:02.269,44017,(,0,0,1
2:02.317,44034,N,0,0,0
2:02.475,44091,),0,0,1
2:02.517,44106,(,0,0,2
2:02.661,44158,t,0,0,0
2:02.806,44210,),0,0,2
2:03.142,44331,(,0,0,1
2:03.189,44348,N,0,0,0
2:03.347,44405,),0,0,1
2:03.389,44420,(,0,0,2
2:03.544,44476,t,0,0,0
2:03.697,44531,),0,0,2
2:04.019,44647,(,0,0,1
2:04.072,44666,N,0,0,0
2:04.233,44724,),0,0,1
2:04.269,44737,(,0,0,2
2:04.428,44794,t,0,0,0
2:04.561,44842,),0,0,2
2:04.778,44920,(,0,0,0
2:04.822,44936,p,0,0,0
2:04.872,44954,),0,0,0
2:04.892,44961,(,0,0,1
2:04.928,44974,N,0,0,0
2:05.075,45027,),0,0,1
2:05.111,45040,(,0,0,2
2:05.258,45093,t,0,0,0
2:05.389,45140,),0,0,2
2:05.483,45174,(,0,0,0
2:05.528,45190,p,0,0,0
2:05.606,45218,),0,0,0
2:05.706,45254,(,0,0,1
2:05.750,45270,N,0,0,0
2:05.892,45321,),0,0,1
2:05.922,45332,(,0,0,2
2:06.064,45383,t,0,0,0
2:06.175,45423,),0,0,2
2:06.253,45451,(,0,0,0
2:06.322,45476,p,0,0,0
2:06.422,45512,),0,0,0
2:06.522,45548,(,0,0,1
2:06.567,45564,N,0,0,0
2:06.719,45619,),0,0,1
2:06.747,45629,(,0,0,2
2:06.917,45690,t,0,0,0
2:07.050,45738,),0,0,2
2:07.086,45751,(,0,0,0
2:07.097,45755,p,0,0,0
2:07.169,45781,),0,0,0
2:07.386,45859,(,0,0,1
2:07.431,45875,N,0,0,0
2:07.586,45931,),0,0,1
2:07.614,45941,(,0,0,2
2:07.747,45989,t,0,0,0
2:07.917,46050,),0,0,2
2:08.253,46171,(,0,0,1
2:08.408,46227,N,0,0,0
2:08.458,46245,),0,0,1
2:08.483,46254,(,0,0,2
2:08.647,46313,t,0,0,0
2:08.789,46364,),0,0,2
2:08.825,46377,(,0,0,0
2:08.839,46382,p,0,0,0
2:08.914,46409,),0,0,0
2:09.122,46484,(,0,0,1
2:09.164,46499,N,0,0,0
2:09.322,46556,),0,0,1
2:09.350,46566,(,0,0,2
2:09.508,46623,t,0,0,0
2:09.661,46678,),0,0,2
2:09.894,46762,(,0,0,0
2:09.944,46780,p,0,0,0
2:09.978,46792,),0,0,0
2:09.994,46798,(,0,0,1
2:10.028,46810,N,0,0,0
2:10.186,46867,),0,0,1
2:10.225,46881,(,0,0,2
2:10.383,46938,t,0,0,0
2:10.511,46984,),0,0,2
2:10.619,47023,(,0,0,0
2:10.672,47042,p,0,0,0
2:10.747,47069,),0,0,0
2:10.828,47098,(,0,0,1
2:10.875,47115,N,0,0,0
2:11.028,47170,),0,0,1
2:11.061,47182,(,0,0,2
2:11.214,47237,t,0,0,0
2:11.331,47279,),0,0,2
2:11.350,47286,(,0,0,0
2:11.386,47299,p,0,0,0
2:11.467,47328,),0,0,0
2:11.658,47397,(,0,0,1
2:11.706,47414,N,0,0,0
2:11.864,47471,),0,0,1
2:11.892,47481,(,0,0,2
2:12.044,47536,t,0,0,0
2:12.194,47590,),0,0,2
2:12.489,47696,(,0,0,1
2:12.533,47712,N,0,0,0
2:12.683,47766,),0,0,1
2:12.747,47789,(,0,0,2
2:12.844,47824,t,0,0,0
2:13.006,47882,),0,0,2
2:13.022,47888,(,0,0,0
2:13.036,47893,p,0,0,0
2:13.131,47927,),0,0,0
2:13.322,47996,(,0,0,1
2:13.364,48011,N,0,0,0
2:13.511,48064,),0,0,1
2:13.539,48074,(,0,0,2
2:13.700,48132,t,0,0,0
2:13.839,48182,),0,0,2
2:14.175,48303,(,0,0,1
2:14.217,48318,N,0,0,0
2:14.361,48370,),0,0,1
2:14.369,48373,(,0,0,2
2:14.586,48451,t,0,0,0
2:14.717,48498,),0,0,2
2:14.886,48559,(,0,0,0
2:14.903,48565,p,0,0,0
2:15.042,48615,),0,0,0
2:15.078,48628,(,0,0,1
2:15.119,48643,N,0,0,0
2:15.283,48702,),0,0,1
2:15.317,48714,(,0,0,2
2:15.478,48772,t,0,0,0
2:15.617,48822,),0,0,2
2:15.750,48870,(,0,0,0
2:15.797,48887,p,0,0,0
2:15.881,48917,),0,0,0
2:15.944,48940,(,0,0,1
2:15.992,48957,N,0,0,0
2:16.153,49015,),0,0,1
2:16.183,49026,(,0,0,2
2:16.336,49081,t,0,0,0
2:16.461,49126,),0,0,2
2:16.483,49134,(,0,0,0
2:16.525,49149,p,0,0,0
2:16.608,49179,),0,0,0
2:16.781,49241,(,0,0,1
2:16.828,49258,N,0,0,0
2:16.969,49309,),0,0,1
2:17.014,49325,(,0,0,2
2:17.203,49393,t,0,0,0
2:17.336,49441,),0,0,2
2:17.614,49541,(,0,0,1
2:17.658,49557,N,0,0,0
2:17.808,49611,),0,0,1
2:17.839,49622,(,0,0,2
2:17.983,49674,t,0,0,0
2:18.136,49729,),0,0,2
2:18.142,49731,(,0,0,0
2:18.175,49743,p,0,0,0
2:18.231,49763,),0,0,0
2:18.433,49836,(,0,0,1
2:18.478,49852,N,0,0,0
2:18.631,49907,),0,0,1
2:18.636,49909,(,0,0,2
2:18.817,49974,t,0,0,0
2:18.969,50029,),0,0,2
2:19.281,50141,(,0,0,1
2:19.322,50156,N,0,0,0
2:19.461,50206,),0,0,1
2:19.478,50212,(,0,0,2
2:19.692,50289,t,0,0,0
2:19.819,50335,),0,0,2
2:20.156,50456,(,0,0,1
2:20.194,50470,N,0,0,0
2:20.339,50522,),0,0,1
2:20.356,50528,(,0,0,2
2:20.550,50598,t,0,0,0
2:20.692,50649,),0,0,2
2:20.814,50693,(,0,0,0
2:20.864,50711,p,0,0,0
2:20.944,50740,),0,0,0
2:21.017,50766,(,0,0,1
2:21.069,50785,N,0,0,0
2:21.228,50842,),0,0,1
2:21.261,50854,(,0,0,2
2:21.408,50907,t,0,0,0
2:21.531,50951,),0,0,2
2:21.536,50953,(,0,0,0
2:21.578,50968,p,0,0,0
2:21.664,50999,),0,0,0
2:21.875,51075,(,0,0,1
2:21.933,51096,N,0,0,0
2:22.092,51153,),0,0,1
2:22.122,51164,(,0,0,2
2:22.303,51229,t,0,0,0
2:22.433,51276,),0,0,2
2:22.761,51394,(,0,0,1
2:22.806,51410,N,0,0,0
2:22.958,51465,),0,0,1
2:22.989,51476,(,0,0,2
2:23.128,51526,t,0,0,0
2:23.275,51579,),0,0,2
2:23.308,51591,(,0,0,0
2:23.356,51608,p,0,0,0
2:23.392,51621,),0,0,0
2:23.558,51681,(,0,0,1
2:23.628,51706,N,0,0,0
2:23.767,51756,),0,0,1
2:23.789,51764,(,0,0,2
2:23.972,51830,t,0,0,0
2:24.100,51876,),0,0,2
2:24.375,51975,(,0,0,1
2:24.442,51999,N,0,0,0
2:24.583,52050,),0,0,1
2:24.625,52065,(,0,0,2
2:24.775,52119,t,0,0,0
2:24.911,52168,),0,0,2
2:25.078,52228,(,0,0,0
2:25.131,52247,p,0,0,0
2:25.197,52271,),0,0,0
2:25.225,52281,(,0,0,1
2:25.267,52296,N,0,0,0
2:25.417,52350,),0,0,1
2:25.458,52365,(,0,0,2
2:25.608,52419,t,0,0,0
2:25.747,52469,),0,0,2
2:25.875,52515,(,0,0,0
2:25.972,52550,p,0,0,0
2:26.044,52576,),0,0,0
2:26.078,52588,(,0,0,1
2:26.119,52603,N,0,0,0
2:26.283,52662,),0,0,1
2:26.311,52672,(,0,0,2
2:26.472,52730,t,0,0,0
2:26.675,52803,),0,0,2
2:26.964,52907,(,0,0,1
2:27.011,52924,N,0,0,0
2:27.156,52976,),0,0,1
2:27.181,52985,(,0,0,2
2:27.358,53049,t,0,0,0
2:27.528,53110,),0,0,2
2:27.567,53124,(,0,0,0
2:27.583,53130,p,0,0,0
2:27.664,53159,),0,0,0
2:27.861,53230,(,0,0,1
2:28.006,53282,N,0,0,0
2:28.058,53301,),0,0,1
2:28.147,53333,(,0,0,2
2:28.236,53365,t,0,0,0
2:28.389,53420,),0,0,2
2:28.419,53431,(,0,0,0
2:28.447,53441,p,0,0,0
2:28.525,53469,),0,0,0
2:28.711,53536,(,0,0,1
2:28.756,53552,N,0,0,0
2:28.903,53605,),0,0,1
2:28.933,53616,(,0,0,2
2:29.094,53674,t,0,0,0
2:29.219,53719,),0,0,2
2:29.433,53796,(,0,0,0
2:29.486,53815,p,0,0,0
2:29.522,53828,),0,0,0
2:29.539,53834,(,0,0,1
2:29.569,53845,N,0,0,0
2:29.706,53894,),0,0,1
2:29.731,53903,(,0,0,2
2:29.906,53966,t,0,0,0
2:30.039,54014,),0,0,2
2:30.125,54045,(,0,0,0
2:30.186,54067,p,0,0,0
2:30.258,54093,),0,0,0
2:30.364,54131,(,0,0,1
2:30.411,54148,N,0,0,0
2:30.569,54205,),0,0,1
2:30.597,54215,(,0,0,2
2:30.744,54268,t,0,0,0
2:30.853,54307,),0,0,2
2:31.200,54432,(,0,0,1
2:31.247,54449,N,0,0,0
2:31.389,54500,),0,0,1
2:31.417,54510,(,0,0,2
2:31.603,54577,t,0,0,0
2:31.739,54626,),0,0,2
2:32.056,54740,(,0,0,1
2:32.103,54757,N,0,0,0
2:32.258,54813,),0,0,1
2:32.289,54824,(,0,0,2
2:32.439,54878,t,0,0,0
2:32.597,54935,),0,0,2
2:32.928,55054,(,0,0,1
2:32.969,55069,N,0,0,0
2:33.122,55124,),0,0,1
2:33.133,55128,(,0,0,2
2:33.336,55201,t,0,0,0
2:33.481,55253,),0,0,2
2:33.628,55306,(,0,0,0
2:33.706,55334,p,0,0,0
2:33.781,55361,),0,0,0
2:33.806,55370,(,0,0,1
2:33.844,55384,N,0,0,0
2:33.989,55436,),0,0,1
2:34.008,55443,(,0,0,2
2:34.189,55508,t,0,0,0
2:34.331,55559,),0,0,2
2:34.464,55607,(,0,0,0
2:34.522,55628,p,0,0,0
2:34.592,55653,),0,0,0
2:34.658,55677,(,0,0,1
2:34.703,55693,N,0,0,0
2:34.856,55748,),0,0,1
2:34.886,55759,(,0,0,2
2:35.033,55812,t,0,0,0
2:35.158,55857,),0,0,2
2:35.164,55859,(,0,0,0
2:35.203,55873,p,0,0,0
2:35.294,55906,),0,0,0
2:35.503,55981,(,0,0,1
2:35.544,55996,N,0,0,0
2:35.678,56044,),0,0,1
2:35.700,56052,(,0,0,2
2:35.886,56119,t,0,0,0
2:36.000,56160,),0,0,2
2:36.017,56166,(,0,0,0
2:36.064,56183,p,0,0,0
2:36.153,56215,),0,0,0
2:36.311,56272,(,0,0,1
2:36.358,56289,N,0,0,0
2:36.494,56338,),0,0,1
2:36.506,56342,(,0,0,2
2:36.667,56400,t,0,0,0
2:36.811,56452,),0,0,2
2:37.128,56566,(,0,0,1
2:37.169,56581,N,0,0,0
2:37.325,56637,),0,0,1
2:37.358,56649,(,0,0,2
2:37.511,56704,t,0,0,0
2:37.661,56758,),0,0,2
2:37.953,56863,(,0,0,1
2:38.042,56895,N,0,0,0
2:38.186,56947,),0,0,1
2:38.217,56958,(,0,0,2
2:38.411,57028,t,0,0,0
2:38.558,57081,),0,0,2
2:38.725,57141,(,0,0,0
2:38.781,57161,p,0,0,0
2:38.853,57187,),0,0,0
2:38.892,57201,(,0,0,1
2:38.936,57217,N,0,0,0
2:39.097,57275,),0,0,1
2:39.133,57288,(,0,0,2
2:39.286,57343,t,0,0,0
2:39.431,57395,),0,0,2
2:39.461,57406,(,0,0,0
2:39.511,57424,p,0,0,0
2:39.589,57452,),0,0,0
2:39.758,57513,(,0,0,1
2:39.814,57533,N,0,0,0
2:39.950,57582,),0,0,1
2:39.969,57589,(,0,0,2
2:40.192,57669,t,0,0,0
2:40.325,57717,),0,0,2
2:40.617,57822,(,0,0,1
2:40.661,57838,N,0,0,0
2:40.808,57891,),0,0,1
2:40.814,57893,(,0,0,2
2:40.972,57950,t,0,0,0
2:41.142,58011,),0,0,2
2:41.153,58015,(,0,0,0
2:41.175,58023,p,0,0,0
2:41.256,58052,),0,0,0
2:41.450,58122,(,0,0,1
2:41.494,58138,N,0,0,0
2:41.694,58210,),0,0,1
2:41.708,58215,(,0,0,2
2:41.808,58251,t,0,0,0
2:41.964,58307,),0,0,2
2:42.267,58416,(,0,0,1
2:42.319,58435,N,0,0,0
2:42.461,58486,),0,0,1
2:42.469,58489,(,0,0,2
2:42.653,58555,t,0,0,0
2:42.783,58602,),0,0,2
2:42.969,58669,(,0,0,0
2:43.025,58689,p,0,0,0
2:43.092,58713,),0,0,0
2:43.119,58723,(,0,0,1
2:43.158,58737,N,0,0,0
2:43.300,58788,),0,0,1
2:43.344,58804,(,0,0,2
2:43.492,58857,t,0,0,0
2:43.628,58906,),0,0,2
2:43.661,58918,(,0,0,0
2:43.731,58943,p,0,0,0
2:43.803,58969,),0,0,0
2:43.958,59025,(,0,0,1
2:44.006,59042,N,0,0,0
2:44.169,59101,),0,0,1
2:44.197,59111,(,0,0,2
2:44.344,59164,t,0,0,0
2:44.542,59235,),0,0,2
2:44.819,59335,(,0,0,1
2:44.869,59353,N,0,0,0
2:45.025,59409,),0,0,1
2:45.031,59411,(,0,0,2
2:45.200,59472,t,0,0,0
2:45.383,59538,),0,0,2
2:45.706,59654,(,0,0,1
2:45.756,59672,N,0,0,0
2:45.914,59729,),0,0,1
2:46.008,59763,(,0,0,2
2:46.103,59797,t,0,0,0
2:46.256,59852,),0,0,2
2:46.292,59865,(,0,0,0
2:46.328,59878,p,0,0,0
2:46.383,59898,),0,0,0
2:46.581,59969,(,0,0,1
2:46.628,59986,N,0,0,0
2:46.767,60036,),0,0,1
2:46.803,60049,(,0,0,2
2:46.958,60105,t,0,0,0
2:47.089,60152,),0,0,2
2:47.289,60224,(,0,0,0
2:47.344,60244,p,0,0,0
2:47.400,60264,),0,0,0
2:47.419,60271,(,0,0,1
2:47.453,60283,N,0,0,0
2:47.583,60330,),0,0,1
2:47.600,60336,(,0,0,2
2:47.767,60396,t,0,0,0
2:47.903,60445,),0,0,2
2:47.958,60465,(,0,0,0
2:48.017,60486,p,0,0,0
2:48.086,60511,),0,0,0
2:48.219,60559,(,0,0,1
2:48.264,60575,N,0,0,0
2:48.411,60628,),0,0,1
2:48.439,60638,(,0,0,2
2:48.578,60688,t,0,0,0
2:48.786,60763,),0,0,2
2:49.042,60855,(,0,0,1
2:49.094,60874,N,0,0,0
2:49.239,60926,),0,0,1
2:49.311,60952,(,0,0,2
2:49.408,60987,t,0,0,0
2:49.561,61042,),0,0,2
2:49.606,61058,(,0,0,0
2:49.622,61064,p,0,0,0
2:49.711,61096,),0,0,0
2:49.900,61164,(,0,0,1
2:49.942,61179,N,0,0,0
2:50.103,61237,),0,0,1
2:50.131,61247,(,0,0,2
2:50.231,61283,t,0,0,0
2:50.444,61360,),0,0,2
2:50.789,61484,(,0,0,1
2:50.836,61501,N,0,0,0
2:51.006,61562,),0,0,1
2:51.033,61572,(,0,0,2
2:51.192,61629,t,0,0,0
2:51.339,61682,),0,0,2
2:51.481,61733,(,0,0,0
2:51.511,61744,p,0,0,0
2:51.597,61775,),0,0,0
2:51.636,61789,(,0,0,1
2:51.714,61817,N,0,0,0
2:51.858,61869,),0,0,1
2:51.881,61877,(,0,0,2
2:52.064,61943,t,0,0,0
2:52.208,61995,),0,0,2
2:52.283,62022,(,0,0,0
2:52.344,62044,p,0,0,0
2:52.414,62069,),0,0,0
2:52.519,62107,(,0,0,1
2:52.575,62127,N,0,0,0
2:52.725,62181,),0,0,1
2:52.756,62192,(,0,0,2
2:52.900,62244,t,0,0,0
2:53.117,62322,),0,0,2
2:53.356,62408,(,0,0,1
2:53.406,62426,N,0,0,0
2:53.558,62481,),0,0,1
2:53.647,62513,(,0,0,2
2:53.736,62545,t,0,0,0
2:53.878,62596,),0,0,2
2:53.914,62609,(,0,0,0
2:53.953,62623,p,0,0,0
2:54.031,62651,),0,0,0
2:54.203,62713,(,0,0,1
2:54.244,62728,N,0,0,0
2:54.386,62779,),0,0,1
2:54.414,62789,(,0,0,2
2:54.514,62825,t,0,0,0
2:54.700,62892,),0,0,2
2:55.031,63011,(,0,0,1
2:55.075,63027,N,0,0,0
2:55.222,63080,),0,0,1
2:55.250,63090,(,0,0,2
2:55.400,63144,t,0,0,0
2:55.547,63197,),0,0,2
2:55.675,63243,(,0,0,0
2:55.708,63255,p,0,0,0
2:55.819,63295,),0,0,0
2:55.878,63316,(,0,0,1
2:55.911,63328,N,0,0,0
2:56.061,63382,),0,0,1
2:56.072,63386,(,0,0,2
2:56.253,63451,t,0,0,0
2:56.394,63502,),0,0,2
2:56.489,63536,(,0,0,0
2:56.556,63560,p,0,0,0
2:56.636,63589,),0,0,0
2:56.736,63625,(,0,0,1
2:56.783,63642,N,0,0,0
2:56.953,63703,),0,0,1
2:56.981,63713,(,0,0,2
2:57.128,63766,t,0,0,0
2:57.236,63805,),0,0,2
2:57.317,63834,(,0,0,0
2:57.381,63857,p,0,0,0
2:57.478,63892,),0,0,0
2:57.608,63939,(,0,0,1
2:57.656,63956,N,0,0,0
2:57.817,64014,),0,0,1
2:57.850,64026,(,0,0,2
2:58.014,64085,t,0,0,0
2:58.158,64137,),0,0,2
2:58.467,64248,(,0,0,1
2:58.525,64269,N,0,0,0
2:58.681,64325,),0,0,1
2:58.711,64336,(,0,0,2
2:58.861,64390,t,0,0,0
2:59.011,64444,),0,0,2
2:59.022,64448,(,0,0,0
2:59.064,64463,p,0,0,0
2:59.131,64487,),0,0,0
2:59.319,64555,(,0,0,1
2:59.364,64571,N,0,0,0
2:59.500,64620,),0,0,1
2:59.539,64634,(,0,0,2
2:59.689,64688,t,0,0,0
2:59.839,64742,),0,0,2
2:59.961,64786,(,0,0,0
3:00.008,64803,p,0,0,0
3:00.125,64845,),0,0,0
3:00.147,64853,(,0,0,1
3:00.183,64866,N,0,0,0
3:00.322,64916,),0,0,1
3:00.361,64930,(,0,0,2
3:00.500,64980,t,0,0,0
3:00.639,65030,),0,0,2
3:00.764,65075,(,0,0,0
3:00.817,65094,p,0,0,0
3:00.886,65119,),0,0,0
3:00.956,65144,(,0,0,1
3:01.003,65161,N,0,0,0
3:01.144,65212,),0,0,1
3:01.189,65228,(,0,0,2
3:01.339,65282,t,0,0,0
3:01.464,65327,),0,0,2
3:01.828,65458,(,0,0,1
3:01.875,65475,N,0,0,0
3:02.044,65536,),0,0,1
3:02.069,65545,(,0,0,2
3:02.242,65607,t,0,0,0
3:02.378,65656,),0,0,2
3:02.711,65776,(,0,0,1
3:02.761,65794,N,0,0,0
3:02.928,65854,),0,0,1
3:02.961,65866,(,0,0,2
3:03.094,65914,t,0,0,0
3:03.256,65972,),0,0,2
3:03.578,66088,(,0,0,1
3:03.625,66105,N,0,0,0
3:03.783,66162,),0,0,1
3:03.819,66175,(,0,0,2
3:03.969,66229,t,0,0,0
3:04.117,66282,),0,0,2
3:04.411,66388,(,0,0,1
3:04.483,66414,N,0,0,0
3:04.636,66469,),0,0,1
3:04.672,66482,(,0,0,2
3:04.819,66535,t,0,0,0
3:04.961,66586,),0,0,2
3:05.133,66648,(,0,0,0
3:05.175,66663,p,0,0,0
3:05.244,66688,),0,0,0
3:05.272,66698,(,0,0,1
3:05.314,66713,N,0,0,0
3:05.467,66768,),0,0,1
3:05.494,66778,(,0,0,2
3:05.633,66828,t,0,0,5
3:05.800,66888,t,0,0,5
3:05.861,66910,),0,0,2
3:06.094,66994,(,0,0,1
3:06.142,67011,N,0,0,0
3:06.289,67064,),0,0,1
3:06.322,67076,(,0,0,2
3:06.467,67128,t,0,0,0
3:06.661,67198,),0,0,2
3:06.678,67204,(,0,0,0
3:06.733,67224,p,0,0,0
3:06.853,67267,),0,0,0
3:06.928,67294,(,0,0,1
3:06.978,67312,N,0,0,0
3:07.128,67366,),0,0,1
3:07.194,67390,(,0,0,2
3:07.286,67423,t,0,0,0
3:07.444,67480,),0,0,2
3:07.783,67602,(,0,0,1
3:07.825,67617,N,0,0,0
3:07.994,67678,),0,0,1
3:08.069,67705,(,0,0,2
3:08.147,67733,t,0,0,0
3:08.300,67788,),0,0,2
3:08.311,67792,(,0,0,0
3:08.361,67810,p,0,0,0
3:08.408,67827,),0,0,0
3:08.608,67899,(,0,0,1
3:08.683,67926,N,0,0,0
3:08.842,67983,),0,0,1
3:08.872,67994,(,0,0,2
3:09.031,68051,t,0,0,0
3:09.181,68105,),0,0,2
3:09.439,68198,(,0,0,0
3:09.486,68215,p,0,0,0
3:09.528,68230,),0,0,0
3:09.544,68236,(,0,0,1
3:09.578,68248,N,0,0,0
3:09.733,68304,),0,0,1
3:09.775,68319,(,0,0,2
3:09.928,68374,t,0,0,0
3:10.072,68426,),0,0,2
3:10.181,68465,(,0,0,0
3:10.228,68482,p,0,0,0
3:10.306,68510,),0,0,0
3:10.394,68542,(,0,0,1
3:10.442,68559,N,0,0,0
3:10.600,68616,),0,0,1
3:10.628,68626,(,0,0,2
3:10.772,68678,t,0,0,5
3:10.897,68723,t,0,0,5
3:10.931,68735,),0,0,2
3:11.228,68842,(,0,0,1
3:11.272,68858,N,0,0,0
3:11.419,68911,),0,0,1
3:11.444,68920,(,0,0,2
3:11.606,68978,t,0,0,0
3:11.736,69025,),0,0,2
3:12.042,69135,(,0,0,1
3:12.086,69151,N,0,0,0
3:12.242,69207,),0,0,1
3:12.275,69219,(,0,0,2
3:12.397,69263,t,0,0,0
3:12.558,69321,),0,0,2
3:12.581,69329,(,0,0,0
3:12.603,69337,p,0,0,0
3:12.678,69364,),0,0,0
3:12.878,69436,(,0,0,1
3:12.919,69451,N,0,0,0
3:13.067,69504,),0,0,1
3:13.097,69515,(,0,0,2
3:13.242,69567,t,0,0,0
3:13.389,69620,),0,0,2
3:13.725,69741,(,0,0,1
3:13.781,69761,N,0,0,0
3:13.936,69817,),0,0,1
3:13.964,69827,(,0,0,2
3:14.117,69882,t,0,0,0
3:14.267,69936,),0,0,2
3:14.503,70021,(,0,0,0
3:14.550,70038,p,0,0,0
3:14.617,70062,),0,0,0
3:14.636,70069,(,0,0,1
3:14.672,70082,N,0,0,0
3:14.831,70139,),0,0,1
3:14.861,70150,(,0,0,2
3:15.008,70203,t,0,0,0
3:15.153,70255,),0,0,2
3:15.244,70288,(,0,0,0
3:15.289,70304,p,0,0,0
3:15.372,70334,),0,0,0
3:15.500,70380,(,0,0,1
3:15.542,70395,N,0,0,0
3:15.703,70453,),0,0,1
3:15.733,70464,(,0,0,2
3:15.878,70516,t,0,0,0
3:15.983,70554,),0,0,2
3:16.061,70582,(,0,0,0
3:16.117,70602,p,0,0,0
3:16.208,70635,),0,0,0
3:16.339,70682,(,0,0,1
3:16.394,70702,N,0,0,0
3:16.550,70758,),0,0,1
3:16.578,70768,(,0,0,2
3:16.733,70824,t,0,0,0
3:16.867,70872,),0,0,2
3:17.186,70987,(,0,0,1
3:17.236,71005,N,0,0,0
3:17.397,71063,),0,0,1
3:17.431,71075,(,0,0,2
3:17.556,71120,t,0,0,0
3:17.703,71173,),0,0,2
3:18.022,71288,(,0,0,1
3:18.069,71305,N,0,0,0
3:18.214,71357,),0,0,1
3:18.247,71369,(,0,0,2
3:18.392,71421,t,0,0,0
3:18.531,71471,),0,0,2
3:18.839,71582,(,0,0,1
3:18.897,71603,N,0,0,0
3:19.042,71655,),0,0,1
3:19.069,71665,(,0,0,2
3:19.211,71716,t,0,0,0
3:19.347,71765,),0,0,2
3:19.569,71845,(,0,0,0
3:19.622,71864,p,0,0,0
3:19.678,71884,),0,0,0
3:19.694,71890,(,0,0,1
3:19.731,71903,N,0,0,0
3:19.889,71960,),0,0,1
3:19.917,71970,(,0,0,2
3:20.058,72021,t,0,0,0
3:20.211,72076,),0,0,2
3:20.275,72099,(,0,0,0
3:20.367,72132,p,0,0,0
3:20.447,72161,),0,0,0
3:20.564,72203,(,0,0,1
3:20.606,72218,N,0,0,0
3:20.764,72275,),0,0,1
3:20.792,72285,(,0,0,2
3:20.939,72338,t,0,0,0
3:21.053,72379,),0,0,2
3:21.233,72444,(,0,0,0
3:21.294,72466,p,0,0,0
3:21.400,72504,),0,0,0
3:21.433,72516,(,0,0,1
3:21.483,72534,N,0,0,0
3:21.647,72593,),0,0,1
3:21.675,72603,(,0,0,2
3:21.842,72663,t,0,0,0
3:21.969,72709,),0,0,2
3:22.306,72830,(,0,0,1
3:22.361,72850,N,0,0,0
3:22.522,72908,),0,0,1
3:22.556,72920,(,0,0,2
3:22.669,72961,t,0,0,0
3:22.842,73023,),0,0,2
3:22.847,73025,(,0,0,0
3:22.900,73044,p,0,0,0
3:22.942,73059,),0,0,0
3:23.147,73133,(,0,0,1
3:23.194,73150,N,0,0,0
3:23.342,73203,),0,0,1
3:23.425,73233,(,0,0,2
3:23.522,73268,t,0,0,0
3:23.661,73318,),0,0,2
3:23.967,73428,(,0,0,1
3:24.011,73444,N,0,0,0
3:24.161,73498,),0,0,1
3:24.236,73525,(,0,0,2
3:24.333,73560,t,0,0,0
3:24.469,73609,),0,0,2
3:24.697,73691,(,0,0,0
3:24.747,73709,p,0,0,0
3:24.794,73726,),0,0,0
3:24.808,73731,(,0,0,1
3:24.844,73744,N,0,0,0
3:25.003,73801,),0,0,1
3:25.031,73811,(,0,0,2
3:25.178,73864,t,0,0,0
3:25.331,73919,),0,0,2
3:25.442,73959,(,0,0,0
3:25.492,73977,p,0,0,0
3:25.564,74003,),0,0,0
3:25.653,74035,(,0,0,1
3:25.714,74057,N,0,0,0
3:25.858,74109,),0,0,1
3:25.903,74125,(,0,0,2
3:26.050,74178,t,0,0,0
3:26.172,74222,),0,0,2
3:26.269,74257,(,0,0,0
3:26.406,74306,p,0,0,0
3:26.447,74321,),0,0,0
3:26.539,74354,(,0,0,1
3:26.589,74372,N,0,0,0
3:26.742,74427,),0,0,1
3:26.747,74429,(,0,0,2
3:26.947,74501,t,0,0,0
3:27.078,74548,),0,0,2
3:27.111,74560,(,0,0,0
3:27.178,74584,p,0,0,0
3:27.239,74606,),0,0,0
3:27.397,74663,(,0,0,1
3:27.450,74682,N,0,0,0
3:27.608,74739,),0,0,1
3:27.636,74749,(,0,0,2
3:27.769,74797,t,0,0,0
3:27.931,74855,),0,0,2
3:28.281,74981,(,0,0,1
3:28.325,74997,N,0,0,0
3:28.497,75059,),0,0,1
3:28.558,75081,(,0,0,2
3:28.642,75111,t,0,0,0
3:28.783,75162,),0,0,2
3:28.931,75215,(,0,0,0
3:28.950,75222,p,0,0,0
3:28.975,75231,),0,0,0
3:29.108,75279,(,0,0,1
3:29.156,75296,N,0,0,0
3:29.303,75349,),0,0,1
3:29.336,75361,(,0,0,2
3:29.481,75413,t,0,0,0
3:29.617,75462,),0,0,2
3:29.806,75530,(,0,0,0
3:29.839,75542,p,0,0,0
3:29.931,75575,),0,0,0
3:29.947,75581,(,0,0,1
3:29.986,75595,N,0,0,0
3:30.133,75648,),0,0,1
3:30.172,75662,(,0,0,2
3:30.317,75714,t,0,0,0
3:30.456,75764,),0,0,2
3:30.589,75812,(,0,0,0
3:30.644,75832,p,0,0,0
3:30.706,75854,),0,0,0
3:30.758,75873,(,0,0,1
3:30.806,75890,N,0,0,0
3:30.950,75942,),0,0,1
3:30.992,75957,(,0,0,2
3:31.139,76010,t,0,0,0
3:31.267,76056,),0,0,2
3:31.283,76062,(,0,0,0
3:31.350,76086,p,0,0,0
3:31.419,76111,),0,0,0
3:31.592,76173,(,0,0,1
3:31.636,76189,N,0,0,0
3:31.797,76247,),0,0,1
3:31.822,76256,(,0,0,2
3:31.969,76309,t,0,0,0
3:32.161,76378,),0,0,2
3:32.456,76484,(,0,0,1
3:32.511,76504,N,0,0,0
3:32.681,76565,),0,0,1
3:32.706,76574,(,0,0,2
3:32.861,76630,t,0,0,0
3:33.022,76688,),0,0,2
3:33.361,76810,(,0,0,1
3:33.417,76830,N,0,0,0
3:33.578,76888,),0,0,1
3:33.603,76897,(,0,0,2
3:33.706,76934,t,0,0,0
3:33.906,77006,),0,0,2
3:33.931,77015,(,0,0,0
3:33.981,77033,p,0,0,0
3:34.039,77054,),0,0,0
3:34.222,77120,(,0,0,1
3:34.286,77143,N,0,0,0
3:34.422,77192,),0,0,1
3:34.442,77199,(,0,0,2
3:34.625,77265,t,0,0,0
3:34.761,77314,),0,0,2
3:35.081,77429,(,0,0,1
3:35.117,77442,N,0,0,0
3:35.267,77496,),0,0,1
3:35.294,77506,(,0,0,2
3:35.433,77556,t,0,0,0
3:35.569,77605,),0,0,2
3:35.719,77659,(,0,0,0
3:35.769,77677,p,0,0,0
3:35.850,77706,),0,0,0
3:35.892,77721,(,0,0,1
3:35.939,77738,N,0,0,0
3:36.094,77794,),0,0,1
3:36.125,77805,(,0,0,2
3:36.261,77854,t,0,0,0
3:36.392,77901,),0,0,2
3:36.406,77906,(,0,0,0
3:36.472,77930,p,0,0,0
3:36.547,77957,),0,0,0
3:36.714,78017,(,0,0,1
3:36.758,78033,N,0,0,0
3:36.903,78085,),0,0,1
3:36.919,78091,(,0,0,2
3:37.100,78156,t,0,0,0
3:37.283,78222,),0,0,2
3:37.292,78225,(,0,0,0
3:37.303,78229,p,0,0,0
3:37.350,78246,),0,0,0
3:37.536,78313,(,0,0,1
3:37.614,78341,N,0,0,0
3:37.778,78400,),0,0,1
3:37.856,78428,(,0,0,2
3:37.953,78463,t,0,0,0
3:38.108,78519,),0,0,2
3:38.264,78575,(,0,0,0
3:38.286,78583,p,0,0,0
3:38.394,78622,),0,0,0
3:38.433,78636,(,0,0,1
3:38.481,78653,N,0,0,0
3:38.636,78709,),0,0,1
3:38.664,78719,(,0,0,2
3:38.822,78776,t,0,0,0
3:38.961,78826,),0,0,2
3:39.306,78950,(,0,0,1
3:39.347,78965,N,0,0,0
3:39.486,79015,),0,0,1
3:39.514,79025,(,0,0,2
3:39.706,79094,t,0,0,0
3:39.833,79140,),0,0,2
3:40.181,79265,(,0,0,1
3:40.217,79278,N,0,0,0
3:40.367,79332,),0,0,1
3:40.411,79348,(,0,0,2
3:40.564,79403,t,0,0,0
3:40.700,79452,),0,0,2
3:40.858,79509,(,0,0,0
3:40.919,79531,p,0,0,0
3:40.994,79558,),0,0,0
3:41.044,79576,(,0,0,1
3:41.083,79590,N,0,0,0
3:41.236,79645,),0,0,1
3:41.303,79669,(,0,0,2
3:41.400,79704,t,0,0,5
3:41.544,79756,t,0,0,5
3:41.603,79777,),0,0,2
3:41.636,79789,(,0,0,0
3:41.681,79805,p,0,0,0
3:41.689,79808,),0,0,0
3:41.853,79867,(,0,0,1
3:41.900,79884,N,0,0,0
3:42.036,79933,),0,0,1
3:42.053,79939,(,0,0,2
3:42.228,80002,t,0,0,0
3:42.397,80063,),0,0,2
3:42.667,80160,(,0,0,1
3:42.708,80175,N,0,0,0
3:42.842,80223,),0,0,1
3:42.875,80235,(,0,0,2
3:43.033,80292,t,0,0,0
3:43.178,80344,),0,0,2
3:43.203,80353,(,0,0,0
3:43.239,80366,p,0,0,0
3:43.325,80397,),0,0,0
3:43.497,80459,(,0,0,1
3:43.547,80477,N,0,0,0
3:43.694,80530,),0,0,1
3:43.708,80535,(,0,0,2
3:43.833,80580,t,0,0,0
3:44.036,80653,),0,0,2
3:44.075,80667,(,0,0,0
3:44.092,80673,p,0,0,0
3:44.144,80692,),0,0,0
3:44.367,80772,(,0,0,1
3:44.411,80788,N,0,0,0
3:44.572,80846,),0,0,1
3:44.611,80860,(,0,0,2
3:44.775,80919,t,0,0,0
3:44.917,80970,),0,0,2
3:45.072,81026,(,0,0,0
3:45.117,81042,p,0,0,0
3:45.225,81081,),0,0,0
3:45.247,81089,(,0,0,1
3:45.306,81110,N,0,0,0
3:45.464,81167,),0,0,1
3:45.508,81183,(,0,0,2
3:45.667,81240,t,0,0,0
3:45.814,81293,),0,0,2
3:45.933,81336,(,0,0,0
3:45.994,81358,p,0,0,0
3:46.067,81384,),0,0,0
3:46.139,81410,(,0,0,1
3:46.183,81426,N,0,0,0
3:46.264,81455,),0,0,1
3:46.356,81488,(,0,0,2
3:46.533,81552,t,0,0,0
3:46.650,81594,),0,0,2
3:46.667,81600,(,0,0,0
3:46.708,81615,p,0,0,0
3:46.797,81647,),0,0,0
3:46.989,81716,(,0,0,1
3:47.031,81731,N,0,0,0
3:47.181,81785,),0,0,1
3:47.211,81796,(,0,0,2
3:47.364,81851,t,0,0,0
3:47.506,81902,),0,0,2
3:47.786,82003,(,0,0,1
3:47.847,82025,N,0,0,0
3:47.997,82079,),0,0,1
3:48.028,82090,(,0,0,2
3:48.158,82137,t,0,0,0
3:48.314,82193,),0,0,2
3:48.361,82210,(,0,0,0
3:48.375,82215,p,0,0,0
3:48.411,82228,),0,0,0
3:48.642,82311,(,0,0,1
3:48.692,82329,N,0,0,0
3:48.828,82378,),0,0,1
3:48.850,82386,(,0,0,2
3:48.967,82428,t,0,0,0
3:49.156,82496,),0,0,2
3:49.483,82614,(,0,0,1
3:49.533,82632,N,0,0,0
3:49.675,82683,),0,0,1
3:49.697,82691,(,0,0,2
3:49.881,82757,t,0,0,0
3:50.014,82805,),0,0,2
3:50.233,82884,(,0,0,0
3:50.294,82906,p,0,0,0
3:50.333,82920,),0,0,0
3:50.350,82926,(,0,0,1
3:50.383,82938,N,0,0,0
3:50.550,82998,),0,0,1
3:50.586,83011,(,0,0,2
3:50.733,83064,t,0,0,0
3:50.883,83118,),0,0,2
3:50.953,83143,(,0,0,0
3:51.028,83170,p,0,0,0
3:51.100,83196,),0,0,0
3:51.211,83236,(,0,0,1
3:51.261,83254,N,0,0,0
3:51.342,83283,),0,0,1
3:51.439,83318,(,0,0,2
3:51.619,83383,t,0,0,0
3:51.714,83417,),0,0,2
3:52.072,83546,(,0,0,1
3:52.122,83564,N,0,0,0
3:52.267,83616,),0,0,1
3:52.294,83626,(,0,0,2
3:52.483,83694,t,0,0,0
3:52.625,83745,),0,0,2
3:52.931,83855,(,0,0,1
3:52.978,83872,N,0,0,0
3:53.133,83928,),0,0,1
3:53.167,83940,(,0,0,2
3:53.308,83991,t,0,0,0
3:53.464,84047,),0,0,2
3:53.769,84157,(,0,0,1
3:53.811,84172,N,0,0,0
3:53.939,84218,),0,0,1
3:53.972,84230,(,0,0,2
3:54.147,84293,t,0,0,0
3:54.292,84345,),0,0,2
3:54.542,84435,(,0,0,1
3:54.631,84467,N,0,0,0
3:54.772,84518,),0,0,1
3:54.806,84530,(,0,0,2
3:54.947,84581,t,0,0,0
3:55.089,84632,),0,0,2
3:55.247,84689,(,0,0,0
3:55.297,84707,p,0,0,0
3:55.367,84732,),0,0,0
3:55.414,84749,(,0,0,1
3:55.456,84764,N,0,0,0
3:55.619,84823,),0,0,1
3:55.642,84831,(,0,0,2
3:55.803,84889,t,0,0,0
3:55.950,84942,),0,0,2
3:55.975,84951,(,0,0,0
3:56.033,84972,p,0,0,0
3:56.117,85002,),0,0,0
3:56.306,85070,(,0,0,1
3:56.350,85086,N,0,0,0
3:56.514,85145,),0,0,1
3:56.550,85158,(,0,0,2
3:56.711,85216,t,0,0,0
3:56.883,85278,),0,0,2
3:57.181,85385,(,0,0,1
3:57.236,85405,N,0,0,0
3:57.397,85463,),0,0,1
3:57.431,85475,(,0,0,2
3:57.569,85525,t,0,0,0
3:57.725,85581,),0,0,2
3:57.800,85608,(,0,0,0
3:57.869,85633,p,0,0,0
3:57.917,85650,),0,0,0
3:58.053,85699,(,0,0,1
3:58.092,85713,N,0,0,0
3:58.231,85763,),0,0,1
3:58.267,85776,(,0,0,2
3:58.397,85823,t,0,0,0
3:58.586,85891,),0,0,2
3:58.892,86001,(,0,0,1
3:58.939,86018,N,0,0,0
3:59.067,86064,),0,0,1
3:59.103,86077,(,0,0,2
3:59.286,86143,t,0,0,0
3:59.417,86190,),0,0,2
3:59.553,86239,(,0,0,0
3:59.575,86247,p,0,0,0
3:59.631,86267,),0,0,0
3:59.678,86284,(,0,0,1
3:59.756,86312,N,0,0,0
3:59.908,86367,),0,0,1
3:59.939,86378,(,0,0,2
4:00.086,86431,t,0,0,0
4:00.231,86483,),0,0,2
4:00.269,86497,(,0,0,0
4:00.347,86525,p,0,0,0
4:00.422,86552,),0,0,0
4:00.544,86596,(,0,0,1
4:00.586,86611,N,0,0,0
4:00.742,86667,),0,0,1
4:00.769,86677,(,0,0,2
4:00.925,86733,t,0,0,0
4:01.144,86812,),0,0,2
4:01.383,86898,(,0,0,1
4:01.431,86915,N,0,0,0
4:01.561,86962,),0,0,1
4:01.589,86972,(,0,0,2
4:01.772,87038,t,0,0,0
4:01.911,87088,),0,0,2
4:01.931,87095,(,0,0,0
4:01.969,87109,p,0,0,0
4:02.053,87139,),0,0,0
4:02.239,87206,(,0,0,1
4:02.292,87225,N,0,0,0
4:02.439,87278,),0,0,1
4:02.467,87288,(,0,0,2
4:02.625,87345,t,0,0,0
4:02.781,87401,),0,0,2
4:02.819,87415,(,0,0,0
4:02.869,87433,p,0,0,0
4:02.897,87443,),0,0,0
4:03.111,87520,(,0,0,1
4:03.156,87536,N,0,0,0
4:03.294,87586,),0,0,1
4:03.325,87597,(,0,0,2
4:03.528,87670,t,0,0,0
4:03.664,87719,),0,0,2
4:03.825,87777,(,0,0,0
4:03.844,87784,p,0,0,0
4:03.981,87833,),0,0,0
4:04.006,87842,(,0,0,1
4:04.050,87858,N,0,0,0
4:04.208,87915,),0,0,1
4:04.244,87928,(,0,0,2
4:04.389,87980,t,0,0,0
4:04.542,88035,),0,0,2
4:04.653,88075,(,0,0,0
4:04.711,88096,p,0,0,0
4:04.781,88121,),0,0,0
4:04.850,88146,(,0,0,1
4:04.894,88162,N,0,0,0
4:04.975,88191,),0,0,1
4:05.061,88222,(,0,0,2
4:05.231,88283,t,0,0,0
4:05.339,88322,),0,0,2
4:05.356,88328,(,0,0,0
4:05.389,88340,p,0,0,0
4:05.469,88369,),0,0,0
4:05.658,88437,(,0,0,1
4:05.708,88455,N,0,0,0
4:05.839,88502,),0,0,1
4:05.864,88511,(,0,0,2
4:06.058,88581,t,0,0,0
4:06.183,88626,),0,0,2
4:06.481,88733,(,0,0,1
4:06.528,88750,N,0,0,0
4:06.661,88798,),0,0,1
4:06.686,88807,(,0,0,2
4:06.853,88867,t,0,0,0
4:07.006,88922,),0,0,2
4:07.014,88925,(,0,0,0
4:07.047,88937,p,0,0,0
4:07.119,88963,),0,0,0
4:07.311,89032,(,0,0,1
4:07.358,89049,N,0,0,0
4:07.508,89103,),0,0,1
4:07.547,89117,(,0,0,2
4:07.706,89174,t,0,0,0
4:07.861,89230,),0,0,2
4:08.156,89336,(,0,0,1
4:08.239,89366,N,0,0,0
4:08.383,89418,),0,0,1
4:08.411,89428,(,0,0,2
4:08.600,89496,t,0,0,0
4:08.756,89552,),0,0,2
4:08.928,89614,(,0,0,0
4:08.986,89635,p,0,0,0
4:09.053,89659,),0,0,0
4:09.092,89673,(,0,0,1
4:09.136,89689,N,0,0,0
4:09.278,89740,),0,0,1
4:09.300,89748,(,0,0,2
4:09.478,89812,t,0,0,0
4:09.619,89863,),0,0,2
4:09.633,89868,(,0,0,0
4:09.722,89900,p,0,0,0
4:09.786,89923,),0,0,0
4:09.956,89984,(,0,0,1
4:10.003,90001,N,0,0,0
4:10.161,90058,),0,0,1
4:10.186,90067,(,0,0,2
4:10.333,90120,t,0,0,0
4:10.511,90184,),0,0,2
4:10.556,90200,(,0,0,0
4:10.567,90204,p,0,0,0
4:10.697,90251,),0,0,0
4:10.792,90285,(,0,0,1
4:10.842,90303,N,0,0,0
4:10.975,90351,),0,0,1
4:10.997,90359,(,0,0,2
4:11.153,90415,t,0,0,0
4:11.319,90475,),0,0,2
4:11.333,90480,(,0,0,0
4:11.372,90494,p,0,0,0
4:11.444,90520,),0,0,0
4:11.631,90587,(,0,0,1
4:11.678,90604,N,0,0,0
4:11.825,90657,),0,0,1
4:11.858,90669,(,0,0,2
4:12.019,90727,t,0,0,0
4:12.158,90777,),0,0,2
4:12.444,90880,(,0,0,1
4:12.503,90901,N,0,0,0
4:12.647,90953,),0,0,1
4:12.658,90957,(,0,0,2
4:12.842,91023,t,0,0,0
4:12.986,91075,),0,0,2
4:13.144,91132,(,0,0,0
4:13.206,91154,p,0,0,0
4:13.267,91176,),0,0,0
4:13.289,91184,(,0,0,1
4:13.331,91199,N,0,0,0
4:13.475,91251,),0,0,1
4:13.519,91267,(,0,0,2
4:13.669,91321,t,0,0,0
4:13.808,91371,),0,0,2
4:13.842,91383,(,0,0,0
4:13.914,91409,p,0,0,0
4:13.978,91432,),0,0,0
4:14.128,91486,(,0,0,1
4:14.183,91506,N,0,0,0
4:14.353,91567,),0,0,1
4:14.378,91576,(,0,0,2
4:14.542,91635,t,0,0,0
4:14.733,91704,),0,0,2
4:14.775,91719,(,0,0,0
4:14.831,91739,p,0,0,0
4:14.942,91779,),0,0,0
4:15.014,91805,(,0,0,1
4:15.061,91822,N,0,0,0
4:15.200,91872,),0,0,1
4:15.228,91882,(,0,0,2
4:15.394,91942,t,0,0,0
4:15.564,92003,),0,0,2
4:15.600,92016,(,0,0,0
4:15.619,92023,p,0,0,0
4:15.708,92055,),0,0,0
4:15.892,92121,(,0,0,1
4:15.944,92140,N,0,0,0
4:16.100,92196,),0,0,1
4:16.194,92230,(,0,0,2
4:16.297,92267,t,0,0,0
4:16.439,92318,),0,0,2
4:16.464,92327,(,0,0,0
4:16.497,92339,p,0,0,0
4:16.564,92363,),0,0,0
4:16.747,92429,(,0,0,1
4:16.808,92451,N,0,0,0
4:16.956,92504,),0,0,1
4:16.989,92516,(,0,0,2
4:17.133,92568,t,0,0,0
4:17.267,92616,),0,0,2
4:17.447,92681,(,0,0,0
4:17.508,92703,p,0,0,0
4:17.572,92726,),0,0,0
4:17.592,92733,(,0,0,1
4:17.633,92748,N,0,0,0
4:17.783,92802,),0,0,1
4:17.811,92812,(,0,0,2
4:17.947,92861,t,0,0,0
4:18.086,92911,),0,0,2
4:18.206,92954,(,0,0,0
4:18.328,92998,p,0,0,0
4:18.364,93011,),0,0,0
4:18.392,93021,(,0,0,1
4:18.442,93039,N,0,0,0
4:18.575,93087,),0,0,1
4:18.600,93096,(,0,0,2
4:18.775,93159,t,0,0,0
4:18.956,93224,),0,0,2
4:19.244,93328,(,0,0,1
4:19.289,93344,N,0,0,0
4:19.447,93401,),0,0,1
4:19.450,93402,t,0,0,2
4:19.614,93461,),0,0,2
4:19.850,93546,(,0,0,1
4:19.969,93589,N,0,0,0
4:20.078,93628,),0,0,1
4:20.097,93635,(,0,0,2
4:20.175,93663,t,0,0,4
4:20.322,93716,t,0,0,4
4:20.428,93754,),0,0,2
4:20.867,93912,(,0,0,1
4:20.914,93929,N,0,0,0
4:21.058,93981,),0,0,1
4:21.150,94014,(,0,0,2
4:21.244,94048,t,0,0,0
4:21.411,94108,),0,0,2
4:21.714,94217,(,0,0,1
4:21.772,94238,N,0,0,0
4:21.919,94291,),0,0,1
4:21.958,94305,(,0,0,2
4:22.106,94358,t,0,0,0
4:22.256,94412,),0,0,2
4:22.453,94483,(,0,0,0
4:22.503,94501,p,0,0,0
4:22.572,94526,),0,0,0
4:22.592,94533,(,0,0,1
4:22.631,94547,N,0,0,0
4:22.778,94600,),0,0,1
4:22.808,94611,(,0,0,2
4:22.953,94663,t,0,0,0
4:23.086,94711,),0,0,2
4:23.125,94725,(,0,0,0
4:23.172,94742,p,0,0,0
4:23.258,94773,),0,0,0
4:23.408,94827,(,0,0,1
4:23.458,94845,N,0,0,0
4:23.608,94899,),0,0,1
4:23.636,94909,(,0,0,2
4:23.775,94959,t,0,0,0
4:23.958,95025,),0,0,2
4:24.039,95054,(,0,0,0
4:24.133,95088,p,0,0,0
4:24.214,95117,),0,0,0
4:24.239,95126,(,0,0,1
4:24.289,95144,N,0,0,0
4:24.442,95199,),0,0,1
4:24.511,95224,(,0,0,2
4:24.597,95255,t,0,0,0
4:24.756,95312,),0,0,2
4:25.058,95421,(,0,0,1
4:25.111,95440,N,0,0,0
4:25.275,95499,),0,0,1
4:25.361,95530,(,0,0,2
4:25.439,95558,t,0,0,0
4:25.581,95609,),0,0,2
4:25.900,95724,(,0,0,1
4:25.947,95741,N,0,0,0
4:26.108,95799,),0,0,1
4:26.139,95810,(,0,0,2
4:26.297,95867,t,0,0,0
4:26.439,95918,),0,0,2
4:26.672,96002,(,0,0,0
4:26.719,96019,p,0,0,0
4:26.781,96041,),0,0,0
4:26.800,96048,(,0,0,1
4:26.833,96060,N,0,0,0
4:27.006,96122,),0,0,1
4:27.042,96135,(,0,0,2
4:27.197,96191,t,0,0,0
4:27.353,96247,),0,0,2
4:27.517,96306,(,0,0,0
4:27.608,96339,p,0,0,0
4:27.656,96356,),0,0,0
4:27.692,96369,(,0,0,1
4:27.733,96384,N,0,0,0
4:27.892,96441,),0,0,1
4:27.919,96451,(,0,0,2
4:28.072,96506,t,0,0,0
4:28.172,96542,),0,0,2
4:28.342,96603,(,0,0,0
4:28.433,96636,p,0,0,0
4:28.514,96665,),0,0,0
4:28.547,96677,(,0,0,1
4:28.592,96693,N,0,0,0
4:28.742,96747,),0,0,1
4:28.822,96776,(,0,0,2
4:28.908,96807,t,0,0,0
4:29.042,96855,),0,0,2
4:29.128,96886,(,0,0,0
4:29.172,96902,p,0,0,0
4:29.203,96913,),0,0,0
4:29.378,96976,(,0,0,1
4:29.414,96989,N,0,0,0
4:29.556,97040,),0,0,1
4:29.575,97047,(,0,0,2
4:29.731,97103,t,0,0,0
4:29.867,97152,),0,0,2
4:30.169,97261,(,0,0,1
4:30.239,97286,N,0,0,0
4:30.389,97340,),0,0,1
4:30.414,97349,(,0,0,2
4:30.561,97402,t,0,0,0
4:30.692,97449,),0,0,2
4:30.944,97540,(,0,0,0
4:30.986,97555,p,0,0,0
4:31.014,97565,),0,0,0
4:31.033,97572,(,0,0,1
4:31.064,97583,N,0,0,0
4:31.225,97641,),0,0,1
4:31.253,97651,(,0,0,2
4:31.397,97703,t,0,0,0
4:31.547,97757,),0,0,2
4:31.650,97794,(,0,0,0
4:31.706,97814,p,0,0,0
4:31.786,97843,),0,0,0
4:31.883,97878,(,0,0,1
4:31.928,97894,N,0,0,0
4:32.083,97950,),0,0,1
4:32.128,97966,(,0,0,2
4:32.283,98022,t,0,0,0
4:32.392,98061,),0,0,2
4:32.472,98090,(,0,0,0
4:32.531,98111,p,0,0,0
4:32.628,98146,),0,0,0
4:32.753,98191,(,0,0,1
4:32.803,98209,N,0,0,0
4:32.969,98269,),0,0,1
4:32.997,98279,(,0,0,2
4:33.161,98338,t,0,0,0
4:33.294,98386,),0,0,2
4:33.622,98504,(,0,0,1
4:33.672,98522,N,0,0,0
4:33.825,98577,),0,0,1
4:33.856,98588,(,0,0,2
4:34.006,98642,t,0,0,0
4:34.153,98695,),0,0,2
4:34.489,98816,(,0,0,1
4:34.531,98831,N,0,0,0
4:34.683,98886,),0,0,1
4:34.722,98900,(,0,0,2
4:34.875,98955,t,0,0,0
4:35.014,99005,),0,0,2
4:35.347,99125,(,0,0,1
4:35.381,99137,N,0,0,0
4:35.531,99191,),0,0,1
4:36.975,99711,(,0,0,1
4:37.125,99765,N,0,0,0
4:37.175,99783,),0,0,1
4:37.200,99792,(,0,0,2
4:37.361,99850,t,0,0,0
4:37.483,99894,),0,0,2
4:37.811   100012,(,0,0,1
4:37.975   100071,N,0,0,0
4:38.025   100089,),0,0,1
4:38.028   100090,(,0,0,2
4:38.200   100152,t,0,0,0
4:38.350   100206,),0,0,2
4:38.694   100330,(,0,0,1
4:38.850   100386,N,0,0,0
4:38.900   100404,),0,0,1
4:38.908   100407,(,0,0,2
4:39.097   100475,t,0,0,0
4:39.239   100526,),0,0,2
4:39.597   100655,(,0,0,1
4:39.739   100706,N,0,0,0
4:39.739   100706,),0,0,1
4:39.744   100708,(,0,0,2
4:39.978   100792,t,0,0,0
4:40.122   100844,),0,0,2
4:40.464   100967,(,0,0,1
4:40.603   101017,N,0,0,0
4:40.606   101018,),0,0,1
4:40.650   101034,(,0,0,2
4:40.828   101098,t,0,0,0
4:40.961   101146,),0,0,2
4:41.292   101265,(,0,0,1
4:41.433   101316,N,0,0,0
4:41.481   101333,),0,0,1
4:41.508   101343,(,0,0,2
4:41.661   101398,t,0,0,0
4:41.808   101451,),0,0,2
4:42.108   101559,(,0,0,1
4:42.256   101612,N,0,0,0
4:42.256   101612,),0,0,1
4:42.261   101614,(,0,0,2
4:42.464   101687,t,0,0,0
4:42.614   101741,),0,0,2
4:42.958   101865,(,0,0,1
4:43.106   101918,N,0,0,0
4:43.153   101935,),0,0,1
4:43.181   101945,(,0,0,2
4:43.333   102000,t,0,0,0
4:43.472   102050,),0,0,2
4:43.794   102166,(,0,0,1
4:43.961   102226,N,0,0,0
4:43.964   102227,),0,0,1
4:44.008   102243,(,0,0,2
4:44.197   102311,t,0,0,0
4:44.339   102362,),0,0,2
4:44.681   102485,(,0,0,1
4:44.825   102537,N,0,0,0
4:44.875   102555,),0,0,1
4:44.908   102567,(,0,0,2
4:45.064   102623,t,0,0,0
4:45.203   102673,),0,0,2
4:45.542   102795,(,0,0,1
4:45.697   102851,N,0,0,0
4:45.747   102869,),0,0,1
4:45.783   102882,(,0,0,2
4:45.942   102939,t,0,0,0
4:46.133   103008,),0,0,2
4:46.408   103107,(,0,0,1
4:46.547   103157,N,0,0,0
4:46.597   103175,),0,0,1
4:46.625   103185,(,0,0,2
4:46.767   103236,t,0,0,0
4:46.925   103293,),0,0,2
4:47.239   103406,(,0,0,1
4:47.386   103459,N,0,0,0
4:47.436   103477,),0,0,1
4:47.458   103485,(,0,0,2
4:47.611   103540,t,0,0,0
4:47.756   103592,),0,0,2
4:48.089   103712,(,0,0,1
4:48.222   103760,N,0,0,0
4:48.267   103776,),0,0,1
4:48.294   103786,(,0,0,2
4:48.447   103841,t,0,0,0
4:48.575   103887,),0,0,2
4:48.886   103999,(,0,0,1
4:49.050   104058,N,0,0,0
4:49.094   104074,),0,0,1
4:49.125   104085,(,0,0,2
4:49.267   104136,t,0,0,0
4:49.403   104185,),0,0,2
4:49.742   104307,(,0,0,1
4:49.886   104359,N,0,0,0
4:49.936   104377,),0,0,1
4:49.969   104389,(,0,0,2
4:50.128   104446,t,0,0,0
4:50.228   104482,),0,0,2
4:50.625   104625,(,0,0,1
4:50.786   104683,N,0,0,0
4:50.839   104702,),0,0,1
4:50.872   104714,(,0,0,2
4:51.033   104772,t,0,0,0
4:51.169   104821,),0,0,2
4:51.525   104949,(,0,0,1
4:51.667   105000,N,0,0,0
4:51.719   105019,),0,0,1
4:51.750   105030,(,0,0,2
4:51.903   105085,t,0,0,0
4:52.050   105138,),0,0,2
4:52.375   105255,(,0,0,1
4:52.522   105308,N,0,0,0
4:52.525   105309,),0,0,1
4:52.567   105324,(,0,0,2
4:52.756   105392,t,0,0,0
4:52.894   105442,),0,0,2
4:53.217   105558,(,0,0,1
4:53.353   105607,N,0,0,0
4:53.356   105608,),0,0,1
4:53.397   105623,(,0,0,2
4:53.586   105691,t,0,0,0
4:53.714   105737,),0,0,2
4:54.039   105854,(,0,0,1
4:54.169   105901,N,0,0,0
4:54.217   105918,),0,0,1
4:54.244   105928,(,0,0,2
4:54.392   105981,t,0,0,0
4:54.514   106025,),0,0,2
4:54.828   106138,(,0,0,1
4:55.003   106201,N,0,0,0
4:55.050   106218,),0,0,1
4:55.081   106229,(,0,0,2
4:55.258   106293,t,0,0,0
4:55.383   106338,),0,0,2
4:55.711   106456,(,0,0,1
4:55.864   106511,N,0,0,0
4:55.917   106530,),0,0,1
4:55.953   106543,(,0,0,2
4:56.078   106588,t,0,0,0
4:56.225   106641,),0,0,2
4:57.456   107084,(,0,0,1
4:57.492   107097,N,0,0,0
4:57.606   107138,),0,0,1
4:57.650   107154,(,0,0,2
4:57.839   107222,t,0,0,0
4:57.981   107273,),0,0,2
4:58.339   107402,(,0,0,1
4:58.369   107413,N,0,0,0
4:58.531   107471,),0,0,1
4:58.564   107483,(,0,0,2
4:58.722   107540,t,0,0,0
4:58.856   107588,),0,0,2
4:59.158   107697,(,0,0,1
4:59.311   107752,N,0,0,0
4:59.361   107770,),0,0,1
4:59.389   107780,(,0,0,2
4:59.536   107833,t,0,0,0
4:59.694   107890,),0,0,2
4:59.975   107991,(,0,0,1
5:00.131   108047,N,0,0,0
5:00.211   108076,),0,0,1
5:00.244   108088,(,0,0,2
5:00.331   108119,t,0,0,0
5:00.483   108174,),0,0,2
5:00.825   108297,(,0,0,1
5:00.950   108342,N,0,0,0
5:00.953   108343,),0,0,1
5:00.997   108359,(,0,0,2
5:01.183   108426,t,0,0,0
5:01.319   108475,),0,0,2
5:01.642   108591,(,0,0,1
5:01.803   108649,N,0,0,0
5:01.853   108667,),0,0,1
5:01.881   108677,(,0,0,2
5:02.028   108730,t,0,0,5
5:02.342   108843,t,0,0,5
5:02.428   108874,),0,0,2
5:02.528   108910,(,0,0,1
5:02.692   108969,N,0,0,0
5:02.739   108986,),0,0,1
5:02.772   108998,(,0,0,2
5:02.936   109057,t,0,0,0
5:03.078   109108,),0,0,2
5:03.439   109238,(,0,0,1
5:03.589   109292,N,0,0,0
5:03.633   109308,),0,0,1
5:03.664   109319,(,0,0,2
5:03.828   109378,t,0,0,0
5:04.000   109440,),0,0,2
5:04.303   109549,(,0,0,1
5:04.444   109600,N,0,0,0
5:04.492   109617,),0,0,1
5:04.517   109626,(,0,0,2
5:04.661   109678,t,0,0,0
5:04.814   109733,),0,0,2
5:05.125   109845,(,0,0,1
5:05.264   109895,N,0,0,0
5:05.317   109914,),0,0,1
5:05.403   109945,(,0,0,2
5:05.492   109977,t,0,0,0
5:05.622   110024,),0,0,2
5:05.961   110146,(,0,0,1
5:06.094   110194,N,0,0,0
5:06.144   110212,),0,0,1
5:06.172   110222,(,0,0,2
5:06.328   110278,t,0,0,0
5:06.475   110331,),0,0,2
5:06.806   110450,(,0,0,1
5:06.939   110498,N,0,0,0
5:06.983   110514,),0,0,1
5:07.014   110525,(,0,0,2
5:07.167   110580,t,0,0,0
5:07.300   110628,),0,0,2
5:07.639   110750,(,0,0,1
5:07.783   110802,N,0,0,0
5:07.833   110820,),0,0,1
5:07.858   110829,(,0,0,2
5:08.014   110885,t,0,0,0
5:08.211   110956,),0,0,2
5:08.478   111052,(,0,0,1
5:08.642   111111,N,0,0,0
5:08.694   111130,),0,0,1
5:08.769   111157,(,0,0,2
5:08.869   111193,t,0,0,0
5:09.025   111249,),0,0,2
5:09.528   111430,N,0,0,0
5:09.531   111431,(,0,0,1
5:09.647   111473,),0,0,1
5:09.669   111481,(,0,0,2
5:09.758   111513,t,0,0,0
5:09.903   111565,),0,0,2
5:10.239   111686,(,0,0,1
5:10.389   111740,N,0,0,0
5:10.439   111758,),0,0,1
5:10.469   111769,(,0,0,2
5:10.622   111824,t,0,0,0
5:10.756   111872,),0,0,2
5:11.883   112278,(,0,0,1
5:12.056   112340,N,0,0,0
5:12.100   112356,),0,0,1
5:12.128   112366,(,0,0,2
5:12.281   112421,t,0,0,0
5:12.489   112496,),0,0,2
5:12.739   112586,(,0,0,1
5:12.869   112633,N,0,0,0
5:12.919   112651,),0,0,1
5:12.992   112677,(,0,0,2
5:13.086   112711,t,0,0,0
5:13.228   112762,),0,0,2
5:13.725   112941,N,0,0,0
5:13.728   112942,(,0,0,1
5:13.867   112992,),0,0,1
5:13.872   112994,(,0,0,2
5:13.964   113027,t,0,0,0
5:14.122   113084,),0,0,2
5:14.458   113205,(,0,0,1
5:14.625   113265,N,0,0,0
5:14.631   113267,),0,0,1
5:14.672   113282,(,0,0,2
5:14.867   113352,t,0,0,0
5:15.011   113404,),0,0,2
5:16.192   113829,(,0,0,1
5:16.364   113891,N,0,0,0
5:16.408   113907,),0,0,1
5:16.436   113917,(,0,0,2
5:16.592   113973,t,0,0,0
5:16.689   114008,),0,0,2
5:17.064   114143,(,0,0,1
5:17.200   114192,N,0,0,0
5:17.247   114209,),0,0,1
5:17.275   114219,(,0,0,2
5:17.414   114269,t,0,0,0
5:17.544   114316,),0,0,2
5:18.017   114486,N,0,0,0
5:18.017   114486,(,0,0,1
5:18.156   114536,),0,0,1
5:18.244   114568,t,0,0,3
5:18.383   114618,),0,0,2
5:18.706   114734,(,0,0,1
5:18.853   114787,N,0,0,0
5:18.900   114804,),0,0,1
5:18.931   114815,(,0,0,2
5:19.094   114874,t,0,0,0
5:19.225   114921,),0,0,2
5:20.406   115346,(,0,0,1
5:20.561   115402,N,0,0,0
5:20.606   115418,),0,0,1
5:20.639   115430,(,0,0,2
5:20.797   115487,t,0,0,0
5:20.900   115524,),0,0,2
5:21.289   115664,(,0,0,1
5:21.436   115717,N,0,0,0
5:21.489   115736,),0,0,1
5:21.519   115747,(,0,0,2
5:21.681   115805,t,0,0,0
5:21.828   115858,),0,0,2
5:22.192   115989,(,0,0,1
5:22.331   116039,N,0,0,0
5:22.350   116046,),0,0,1
5:22.378   116056,(,0,0,2
5:22.556   116120,t,0,0,0
5:22.694   116170,),0,0,2
5:23.022   116288,(,0,0,1
5:23.167   116340,N,0,0,0
5:23.172   116342,),0,0,1
5:23.208   116355,(,0,0,2
5:23.392   116421,t,0,0,0
5:23.525   116469,),0,0,2
5:23.828   116578,(,0,0,1
5:23.978   116632,N,0,0,0
5:24.022   116648,),0,0,1
5:24.053   116659,(,0,0,2
5:24.194   116710,t,0,0,0
5:24.331   116759,),0,0,2
5:24.658   116877,(,0,0,1
5:24.803   116929,N,0,0,0
5:24.850   116946,),0,0,1
5:24.878   116956,(,0,0,2
5:25.031   117011,t,0,0,0
5:25.136   117049,),0,0,2
5:25.469   117169,(,0,0,1
5:25.644   117232,N,0,0,0
5:25.692   117249,),0,0,1
5:25.725   117261,(,0,0,2
5:25.892   117321,t,0,0,0
5:26.031   117371,),0,0,2
5:26.372   117494,(,0,0,1
5:26.531   117551,N,0,0,0
5:26.536   117553,),0,0,1
5:26.581   117569,(,0,0,2
5:26.775   117639,t,0,0,0
5:26.925   117693,),0,0,2
5:27.256   117812,(,0,0,1
5:27.411   117868,N,0,0,0
5:27.456   117884,),0,0,1
5:27.489   117896,(,0,0,2
5:27.650   117954,t,0,0,0
5:27.797   118007,),0,0,2
5:28.108   118119,(,0,0,1
5:28.275   118179,N,0,0,0
5:28.319   118195,),0,0,1
5:28.350   118206,(,0,0,2
5:28.500   118260,t,0,0,0
5:28.636   118309,),0,0,2
5:29.772   118718,(,0,0,1
5:29.953   118783,N,0,0,0
5:29.997   118799,),0,0,1
5:30.022   118808,(,0,0,2
5:30.186   118867,t,0,0,0
5:30.308   118911,),0,0,2
5:30.622   119024,(,0,0,1
5:30.775   119079,N,0,0,0
5:30.775   119079,),0,0,1
5:30.781   119081,(,0,0,2
5:30.994   119158,t,0,0,0
5:31.139   119210,),0,0,2
5:31.436   119317,(,0,0,1
5:31.606   119378,N,0,0,0
5:31.650   119394,),0,0,1
5:31.686   119407,(,0,0,2
5:31.842   119463,t,0,0,0
5:31.983   119514,),0,0,2
5:32.325   119637,(,0,0,1
5:32.469   119689,N,0,0,0
5:32.469   119689,),0,0,1
5:32.475   119691,(,0,0,2
5:32.714   119777,t,0,0,0
5:32.864   119831,),0,0,2
5:33.203   119953,(,0,0,1
5:33.344   120004,N,0,0,0
5:33.394   120022,),0,0,1
5:33.428   120034,(,0,0,2
5:33.589   120092,t,0,0,0
5:33.733   120144,),0,0,2
5:34.900   120564,(,0,0,1
5:35.069   120625,N,0,0,0
5:35.117   120642,),0,0,1
5:35.144   120652,(,0,0,2
5:35.275   120699,t,0,0,0
5:35.442   120759,),0,0,2
5:35.758   120873,(,0,0,1
5:35.889   120920,N,0,0,0
5:35.942   120939,),0,0,1
5:35.964   120947,(,0,0,2
5:36.111   121000,t,0,0,0
5:36.253   121051,),0,0,2
5:36.556   121160,(,0,0,1
5:36.711   121216,N,0,0,0
5:36.717   121218,),0,0,1
5:36.758   121233,(,0,0,2
5:36.947   121301,t,0,0,0
5:37.089   121352,),0,0,2
5:37.439   121478,(,0,0,1
5:37.581   121529,N,0,0,0
5:37.633   121548,),0,0,1
5:37.661   121558,(,0,0,2
5:37.814   121613,t,0,0,0
5:37.958   121665,),0,0,2
5:39.156   122096,(,0,0,1
5:39.314   122153,N,0,0,0
5:39.367   122172,),0,0,1
5:39.397   122183,(,0,0,2
5:39.542   122235,t,0,0,0
5:39.708   122295,),0,0,2
5:40.039   122414,(,0,0,1
5:40.181   122465,N,0,0,0
5:40.233   122484,),0,0,1
5:40.250   122490,(,0,0,2
5:40.417   122550,t,0,0,0
5:40.561   122602,),0,0,2
5:40.872   122714,(,0,0,1
5:41.017   122766,N,0,0,0
5:41.022   122768,),0,0,1
5:41.067   122784,(,0,0,2
5:41.247   122849,t,0,0,0
5:41.386   122899,),0,0,2
5:41.717   123018,(,0,0,1
5:41.850   123066,N,0,0,0
5:41.897   123083,),0,0,1
5:41.928   123094,(,0,0,2
5:42.075   123147,t,0,0,0
5:42.217   123198,),0,0,2
5:42.536   123313,(,0,0,1
5:42.681   123365,N,0,0,0
5:42.731   123383,),0,0,1
5:42.758   123393,(,0,0,2
5:42.903   123445,t,0,0,0
5:43.100   123516,),0,0,2
5:43.372   123614,(,0,0,1
5:43.514   123665,N,0,0,0
5:43.561   123682,),0,0,1
5:43.639   123710,(,0,0,2
5:43.728   123742,t,0,0,0
5:43.886   123799,),0,0,2
5:44.206   123914,(,0,0,1
5:44.369   123973,N,0,0,0
5:44.392   123981,),0,0,1
5:44.439   123998,(,0,0,2
5:44.608   124059,t,0,0,0
5:44.767   124116,),0,0,2
5:45.122   124244,(,0,0,1
5:45.278   124300,N,0,0,0
5:45.281   124301,),0,0,1
5:45.331   124319,(,0,0,2
5:45.522   124388,t,0,0,0
5:45.669   124441,),0,0,2
5:46.008   124563,(,0,0,1
5:46.147   124613,N,0,0,0
5:46.194   124630,),0,0,1
5:46.231   124643,(,0,0,2
5:46.383   124698,t,0,0,0
5:46.531   124751,),0,0,2
5:46.822   124856,(,0,0,1
5:46.981   124913,N,0,0,0
5:47.031   124931,),0,0,1
5:47.061   124942,(,0,0,2
5:47.206   124994,t,0,0,0
5:47.311   125032,),0,0,2
5:47.656   125156,(,0,0,1
5:47.803   125209,N,0,0,0
5:47.853   125227,),0,0,1
5:47.939   125258,(,0,0,2
5:48.025   125289,t,0,0,0
5:48.178   125344,),0,0,2
5:48.472   125450,(,0,0,1
5:48.619   125503,N,0,0,0
5:48.667   125520,),0,0,1
5:48.686   125527,(,0,0,2
5:48.844   125584,t,0,0,0
5:48.997   125639,),0,0,2
5:49.319   125755,(,0,0,1
5:49.469   125809,N,0,0,0
5:49.519   125827,),0,0,1
5:49.550   125838,(,0,0,2
5:49.711   125896,t,0,0,0
5:49.864   125951,),0,0,2
5:50.222   126080,(,0,0,1
5:50.350   126126,N,0,0,0
5:50.394   126142,),0,0,1
5:50.428   126154,(,0,0,2
5:50.581   126209,t,0,0,0
5:50.725   126261,),0,0,2
5:51.056   126380,(,0,0,1
5:51.222   126440,N,0,0,0
5:51.275   126459,),0,0,1
5:51.303   126469,(,0,0,2
5:51.453   126523,t,0,0,0
5:51.567   126564,),0,0,2
5:51.939   126698,(,0,0,1
5:52.081   126749,N,0,0,0
5:52.133   126768,),0,0,1
5:52.161   126778,(,0,0,2
5:52.325   126837,t,0,0,0
5:52.461   126886,),0,0,2
5:52.769   126997,(,0,0,1
5:52.944   127060,N,0,0,0
5:52.997   127079,),0,0,1
5:53.028   127090,(,0,0,2
5:53.169   127141,t,0,0,0
5:53.308   127191,),0,0,2
5:53.636   127309,(,0,0,1
5:53.767   127356,N,0,0,0
5:53.817   127374,),0,0,1
5:53.844   127384,(,0,0,2
5:53.992   127437,t,0,0,0
5:54.136   127489,),0,0,2
5:54.453   127603,(,0,0,1
5:54.578   127648,N,0,0,0
5:54.583   127650,),0,0,1
5:54.625   127665,(,0,0,2
5:54.800   127728,t,0,0,0
5:54.944   127780,),0,0,2
5:55.000   127800,(,0,0,0
5:55.058   127821,p,0,0,0
5:55.125   127845,),0,0,0
5:55.256   127892,(,0,0,1
5:55.411   127948,N,0,0,0
5:55.461   127966,),0,0,1
5:55.489   127976,(,0,0,2
5:55.642   128031,t,0,0,0
5:55.781   128081,),0,0,2
5:56.122   128204,(,0,0,1
5:56.269   128257,N,0,0,0
5:56.325   128277,),0,0,1
5:56.353   128287,(,0,0,2
5:56.525   128349,t,0,0,0
5:56.683   128406,),0,0,2
5:57.019   128527,(,0,0,1
5:57.161   128578,N,0,0,0
5:57.214   128597,),0,0,1
5:57.247   128609,(,0,0,2
5:57.386   128659,t,0,0,0
5:57.561   128722,),0,0,2
5:57.906   128846,(,0,0,1
5:58.047   128897,N,0,0,0
5:58.103   128917,),0,0,1
5:58.131   128927,(,0,0,2
5:58.281   128981,t,0,0,0
5:58.428   129034,),0,0,2
6:00.386   129739,(,0,0,1
6:00.550   129798,N,0,0,0
6:00.603   129817,),0,0,1
6:00.628   129826,(,0,0,2
6:00.778   129880,t,0,0,0
6:00.967   129948,),0,0,2
6:01.236   130045,(,0,0,1
6:01.386   130099,N,0,0,0
6:01.439   130118,),0,0,1
6:01.511   130144,(,0,0,2
6:01.608   130179,t,0,0,0
6:01.772   130238,),0,0,2
6:02.106   130358,(,0,0,1
6:02.244   130408,N,0,0,0
6:02.306   130430,),0,0,1
6:02.386   130459,(,0,0,2
6:02.475   130491,t,0,0,0
6:02.619   130543,),0,0,2
6:02.969   130669,(,0,0,1
6:03.117   130722,N,0,0,0
6:03.172   130742,),0,0,1
6:03.197   130751,(,0,0,2
6:03.356   130808,t,0,0,0
6:03.508   130863,),0,0,2
6:03.814   130973,(,0,0,1
6:03.992   131037,N,0,0,0
6:04.039   131054,),0,0,1
6:04.069   131065,(,0,0,2
6:04.217   131118,t,0,0,0
6:04.372   131174,),0,0,2
6:04.692   131289,(,0,0,1
6:04.844   131344,N,0,0,0
6:04.897   131363,),0,0,1
6:04.928   131374,(,0,0,2
6:05.067   131424,t,0,0,0
6:05.172   131462,),0,0,2
6:05.539   131594,(,0,0,1
6:05.683   131646,N,0,0,0
6:05.731   131663,),0,0,1
6:05.822   131696,(,0,0,2
6:05.897   131723,t,0,0,0
6:06.033   131772,),0,0,2
6:06.356   131888,(,0,0,1
6:06.500   131940,N,0,0,0
6:06.503   131941,),0,0,1
6:06.544   131956,(,0,0,2
6:06.717   132018,t,0,0,0
6:06.853   132067,),0,0,2
6:08.953   132823,(,0,0,1
6:09.097   132875,N,0,0,0
6:09.100   132876,),0,0,1
6:09.147   132893,(,0,0,2
6:09.328   132958,t,0,0,0
6:09.481   133013,),0,0,2
6:11.508   133743,(,0,0,1
6:11.633   133788,N,0,0,0
6:11.689   133808,),0,0,1
6:11.769   133837,(,0,0,2
6:11.850   133866,t,0,0,0
6:11.983   133914,),0,0,2
6:12.328   134038,(,0,0,1
6:12.461   134086,N,0,0,0
6:12.511   134104,),0,0,1
6:12.536   134113,(,0,0,2
6:12.686   134167,t,0,0,0
6:12.819   134215,),0,0,2
6:13.144   134332,(,0,0,1
6:13.311   134392,N,0,0,0
6:13.331   134399,),0,0,1
6:13.364   134411,(,0,0,2
6:13.536   134473,t,0,0,0
6:13.681   134525,),0,0,2
6:15.772   135278,(,0,0,1
6:15.911   135328,N,0,0,0
6:15.964   135347,),0,0,1
6:15.997   135359,(,0,0,2
6:16.136   135409,t,0,0,0
6:16.306   135470,),0,0,2
6:16.644   135592,(,0,0,1
6:16.772   135638,N,0,0,0
6:16.819   135655,),0,0,1
6:16.853   135667,(,0,0,2
6:17.003   135721,t,0,0,0
6:17.150   135774,),0,0,2
6:17.467   135888,(,0,0,1
6:17.600   135936,N,0,0,0
6:17.625   135945,),0,0,1
6:17.675   135963,(,0,0,2
6:17.817   136014,t,0,0,5
6:18.003   136081,t,0,0,5
6:18.164   136139,),0,0,2
6:18.281   136181,(,0,0,1
6:18.417   136230,N,0,0,0
6:18.419   136231,),0,0,1
6:18.425   136233,(,0,0,2
6:18.631   136307,t,0,0,0
6:18.775   136359,),0,0,2
6:19.106   136478,(,0,0,1
6:19.244   136528,N,0,0,0
6:19.297   136547,),0,0,1
6:19.322   136556,(,0,0,2
6:19.467   136608,t,0,0,0
6:19.681   136685,),0,0,2
6:19.964   136787,(,0,0,1
6:20.111   136840,N,0,0,0
6:20.114   136841,),0,0,1
6:20.164   136859,(,0,0,2
6:20.350   136926,t,0,0,0
6:20.511   136984,),0,0,2
6:20.819   137095,(,0,0,1
6:21.003   137161,N,0,0,0
6:21.008   137163,),0,0,1
6:21.058   137181,(,0,0,2
6:21.242   137247,t,0,0,0
6:21.389   137300,),0,0,2
6:21.719   137419,(,0,0,1
6:21.872   137474,N,0,0,0
6:21.919   137491,),0,0,1
6:21.958   137505,(,0,0,2
6:22.108   137559,t,0,0,0
6:22.267   137616,),0,0,2
6:22.581   137729,(,0,0,1
6:22.717   137778,N,0,0,0
6:22.758   137793,),0,0,1
6:22.792   137805,(,0,0,2
6:22.947   137861,t,0,0,0
6:23.078   137908,),0,0,2
6:23.403   138025,(,0,0,1
6:23.550   138078,N,0,0,0
6:23.597   138095,),0,0,1
6:23.631   138107,(,0,0,2
6:23.778   138160,t,0,0,0
6:23.903   138205,),0,0,2
6:24.253   138331,(,0,0,1
6:24.386   138379,N,0,0,0
6:24.431   138395,),0,0,1
6:24.461   138406,(,0,0,2
6:24.594   138454,t,0,0,0
6:24.700   138492,),0,0,2
6:25.083   138630,(,0,0,1
6:25.214   138677,N,0,0,0
6:25.264   138695,),0,0,1
6:25.289   138704,(,0,0,2
6:25.444   138760,t,0,0,0
6:25.572   138806,),0,0,2
6:25.919   138931,(,0,0,1
6:26.061   138982,N,0,0,0
6:26.100   138996,),0,0,1
6:26.114   139001,(,0,0,2
6:26.292   139065,t,0,0,0
6:26.453   139123,),0,0,2
6:26.794   139246,(,0,0,1
6:26.936   139297,N,0,0,0
6:26.975   139311,),0,0,1
6:26.997   139319,(,0,0,2
6:27.181   139385,t,0,0,0
6:27.322   139436,),0,0,2
6:27.664   139559,(,0,0,1
6:27.806   139610,N,0,0,0
6:27.858   139629,),0,0,1
6:27.889   139640,(,0,0,2
6:28.042   139695,t,0,0,0
6:28.186   139747,),0,0,2
6:28.519   139867,(,0,0,1
6:28.669   139921,N,0,0,0
6:28.719   139939,),0,0,1
6:28.753   139951,(,0,0,2
6:28.911   140008,t,0,0,0
6:29.039   140054,),0,0,2
6:29.350   140166,(,0,0,1
6:29.397   140183,N,0,0,0
6:29.544   140236,),0,0,1
6:29.550   140238,(,0,0,2
6:29.736   140305,t,0,0,0
6:29.931   140375,),0,0,2
6:30.169   140461,(,0,0,1
6:30.219   140479,N,0,0,0
6:30.369   140533,),0,0,1
6:30.464   140567,(,0,0,2
6:30.542   140595,t,0,0,0
6:30.681   140645,),0,0,2
6:30.978   140752,(,0,0,1
6:31.044   140776,N,0,0,0
6:31.197   140831,),0,0,1
6:31.225   140841,(,0,0,2
6:31.386   140899,t,0,0,0
6:31.533   140952,),0,0,2
6:31.883   141078,(,0,0,1
6:31.928   141094,N,0,0,0
6:32.044   141136,),0,0,1
6:32.050   141138,(,0,0,2
6:32.286   141223,t,0,0,0
6:32.428   141274,),0,0,2
6:32.775   141399,(,0,0,1
6:32.925   141453,N,0,0,0
6:32.972   141470,),0,0,1
6:33.058   141501,(,0,0,2
6:33.161   141538,t,0,0,5
6:33.344   141604,t,0,0,5
6:33.467   141648,),0,0,2
6:33.619   141703,(,0,0,1
6:33.781   141761,N,0,0,0
6:33.836   141781,),0,0,1
6:33.867   141792,(,0,0,2
6:34.017   141846,t,0,0,0
6:34.133   141888,),0,0,2
6:34.494   142018,(,0,0,1
6:34.631   142067,N,0,0,0
6:34.689   142088,),0,0,1
6:34.719   142099,(,0,0,2
6:34.872   142154,t,0,0,0
6:35.003   142201,),0,0,2
6:35.322   142316,(,0,0,1
6:35.456   142364,N,0,0,0
6:35.503   142381,),0,0,1
6:35.539   142394,(,0,0,2
6:35.667   142440,t,0,0,0
6:35.817   142494,),0,0,2
6:36.150   142614,(,0,0,1
6:36.289   142664,N,0,0,0
6:36.331   142679,),0,0,1
6:36.369   142693,(,0,0,2
6:36.522   142748,t,0,0,0
6:36.669   142801,),0,0,2
6:37.836   143221,(,0,0,1
6:37.975   143271,N,0,0,0
6:38.025   143289,),0,0,1
6:38.053   143299,(,0,0,2
6:38.203   143353,t,0,0,0
6:38.336   143401,),0,0,2
6:41.292   144465,(,0,0,1
6:41.422   144512,N,0,0,0
6:41.425   144513,),0,0,1
6:41.467   144528,(,0,0,2
6:41.647   144593,t,0,0,0
6:41.783   144642,),0,0,2
6:42.917   145050,(,0,0,1
6:42.967   145068,N,0,0,0
6:43.100   145116,),0,0,1
6:43.125   145125,(,0,0,2
6:43.317   145194,t,0,0,0
6:43.444   145240,),0,0,2
6:45.567   146004,(,0,0,1
6:45.700   146052,N,0,0,0
6:45.747   146069,),0,0,1
6:45.778   146080,(,0,0,2
6:45.928   146134,t,0,0,0
6:46.067   146184,),0,0,2
6:48.203   146953,N,0,0,0
6:48.203   146953,(,0,0,1
6:48.336   147001,),0,0,1
6:48.344   147004,(,0,0,2
6:48.436   147037,t,0,0,0
6:48.581   147089,),0,0,2
6:48.867   147192,(,0,0,1
6:49.033   147252,N,0,0,0
6:49.036   147253,),0,0,1
6:49.075   147267,(,0,0,2
6:49.258   147333,t,0,0,0
6:49.394   147382,),0,0,2
6:49.733   147504,(,0,0,1
6:49.875   147555,N,0,0,0
6:49.922   147572,),0,0,1
6:49.953   147583,(,0,0,2
6:50.111   147640,t,0,0,0
6:50.264   147695,),0,0,2
6:52.347   148445,(,0,0,1
6:52.511   148504,N,0,0,0
6:52.558   148521,),0,0,1
6:52.567   148524,(,0,0,2
6:52.744   148588,t,0,0,0
6:52.889   148640,),0,0,2
6:54.017   149046,(,0,0,1
6:54.156   149096,N,0,0,0
6:54.206   149114,),0,0,1
6:54.233   149124,(,0,0,2
6:54.383   149178,t,0,0,0
6:54.478   149212,),0,0,2
6:54.850   149346,(,0,0,1
6:54.992   149397,N,0,0,0
6:55.042   149415,),0,0,1
6:55.072   149426,(,0,0,2
6:55.217   149478,t,0,0,0
6:55.364   149531,),0,0,2
6:55.700   149652,(,0,0,1
6:55.856   149708,N,0,0,0
6:55.908   149727,),0,0,1
6:56.003   149761,(,0,0,2
6:56.086   149791,t,0,0,0
6:56.239   149846,),0,0,2
6:56.581   149969,(,0,0,1
6:56.733   150024,N,0,0,0
6:56.783   150042,),0,0,1
6:56.814   150053,(,0,0,2
6:56.967   150108,t,0,0,5
6:57.272   150218,t,0,0,5
6:57.344   150244,),0,0,2
6:57.450   150282,(,0,0,1
6:57.603   150337,N,0,0,0
6:57.653   150355,),0,0,1
6:57.681   150365,(,0,0,2
6:57.831   150419,t,0,0,0
6:57.972   150470,),0,0,2
6:58.300   150588,(,0,0,1
6:58.467   150648,N,0,0,0
6:58.511   150664,),0,0,1
6:58.544   150676,(,0,0,2
6:58.722   150740,t,0,0,0
6:58.839   150782,),0,0,2
6:59.161   150898,(,0,0,1
6:59.297   150947,N,0,0,0
6:59.342   150963,),0,0,1
6:59.344   150964,(,0,0,2
6:59.514   151025,t,0,0,0
6:59.650   151074,),0,0,2
6:59.992   151197,(,0,0,1
7:00.128   151246,N,0,0,0
7:00.178   151264,),0,0,1
7:00.211   151276,(,0,0,2
7:00.358   151329,t,0,0,0
7:00.492   151377,),0,0,2
7:01.647   151793,(,0,0,1
7:01.794   151846,N,0,0,0
7:01.794   151846,),0,0,1
7:01.797   151847,(,0,0,2
7:02.028   151930,t,0,0,0
7:02.239   152006,),0,0,2
7:02.497   152099,(,0,0,1
7:02.669   152161,N,0,0,0
7:02.675   152163,),0,0,1
7:02.728   152182,(,0,0,2
7:02.906   152246,t,0,0,0
7:03.067   152304,),0,0,2
7:03.433   152436,(,0,0,1
7:03.572   152486,N,0,0,0
7:03.622   152504,),0,0,1
7:03.647   152513,(,0,0,2
7:03.803   152569,t,0,0,0
7:03.947   152621,),0,0,2
7:04.306   152750,(,0,0,1
7:04.444   152800,N,0,0,0
7:04.492   152817,),0,0,1
7:04.519   152827,(,0,0,2
7:04.669   152881,t,0,0,5
7:04.856   152948,t,0,0,5
7:04.989   152996,),0,0,2
7:05.131   153047,(,0,0,1
7:05.272   153098,N,0,0,0
7:05.275   153099,),0,0,1
7:05.281   153101,(,0,0,2
7:05.489   153176,t,0,0,0
7:05.600   153216,),0,0,2
7:05.950   153342,(,0,0,1
7:06.092   153393,N,0,0,0
7:06.142   153411,),0,0,1
7:06.167   153420,(,0,0,2
7:06.314   153473,t,0,0,0
7:06.433   153516,),0,0,2
7:06.778   153640,(,0,0,1
7:06.917   153690,N,0,0,0
7:06.961   153706,),0,0,1
7:06.986   153715,(,0,0,2
7:07.147   153773,t,0,0,0
7:07.286   153823,),0,0,2
7:17.047   157337,(,0,0,1
7:17.178   157384,N,0,0,0
7:17.178   157384,),0,0,1
7:17.183   157386,(,0,0,2
7:17.375   157455,t,0,0,0
7:17.533   157512,),0,0,2
7:19.550   158238,(,0,0,1
7:19.697   158291,N,0,0,0
7:19.697   158291,),0,0,1
7:19.700   158292,(,0,0,2
7:19.936   158377,t,0,0,0
7:20.108   158439,),0,0,2
7:23.778   159760,(,0,0,1
7:23.958   159825,N,0,0,0
7:23.961   159826,),0,0,1
7:24.003   159841,(,0,0,2
7:24.164   159899,t,0,0,0
7:24.319   159955,),0,0,2
7:24.644   160072,(,0,0,1
7:24.783   160122,N,0,0,0
7:24.828   160138,),0,0,1
7:24.858   160149,(,0,0,2
7:25.006   160202,t,0,0,0
7:25.142   160251,),0,0,2
7:26.344   160684,(,0,0,1
7:26.525   160749,N,0,0,0
7:26.575   160767,),0,0,1
7:26.611   160780,(,0,0,2
7:26.756   160832,t,0,0,0
7:26.961   160906,),0,0,2
7:27.242   161007,(,0,0,1
7:27.406   161066,N,0,0,0
7:27.453   161083,),0,0,1
7:27.489   161096,(,0,0,2
7:27.622   161144,t,0,0,0
7:27.781   161201,),0,0,2
7:30.592   162213,(,0,0,1
7:30.747   162269,N,0,0,0
7:30.792   162285,),0,0,1
7:30.828   162298,(,0,0,2
7:30.958   162345,t,0,0,0
7:31.128   162406,),0,0,2
7:34.058   163461,(,0,0,1
7:34.222   163520,N,0,0,0
7:34.272   163538,),0,0,1
7:34.306   163550,(,0,0,2
7:34.436   163597,t,0,0,0
7:34.586   163651,),0,0,2
7:34.908   163767,(,0,0,1
7:35.061   163822,N,0,0,0
7:35.108   163839,),0,0,1
7:35.142   163851,(,0,0,2
7:35.286   163903,t,0,0,0
7:35.419   163951,),0,0,2
7:35.717   164058,(,0,0,1
7:35.869   164113,N,0,0,0
7:35.919   164131,),0,0,1
7:35.950   164142,(,0,0,2
7:36.092   164193,t,0,0,0
7:36.228   164242,),0,0,2
7:36.544   164356,(,0,0,1
7:36.689   164408,N,0,0,0
7:36.744   164428,),0,0,1
7:36.769   164437,(,0,0,2
7:36.914   164489,t,0,0,0
7:37.083   164550,),0,0,2
7:37.392   164661,(,0,0,1
7:37.531   164711,N,0,0,0
7:37.761   164794,),0,0,1
7:37.764   164795,t,0,0,3
7:37.922   164852,),0,0,2
7:38.258   164973,(,0,0,1
7:38.417   165030,N,0,0,0
7:38.467   165048,),0,0,1
7:38.497   165059,(,0,0,2
7:38.661   165118,t,0,0,0
7:38.806   165170,),0,0,2
7:39.164   165299,(,0,0,1
7:39.300   165348,N,0,0,0
7:39.350   165366,),0,0,1
7:39.381   165377,(,0,0,2
7:39.533   165432,t,0,0,5
7:39.711   165496,t,0,0,5
7:39.775   165519,),0,0,2
7:39.994   165598,(,0,0,1
7:40.161   165658,N,0,0,0
7:40.217   165678,),0,0,1
7:40.242   165687,(,0,0,2
7:40.397   165743,t,0,0,0
7:40.536   165793,),0,0,2
7:40.828   165898,(,0,0,1
7:40.997   165959,N,0,0,0
7:41.050   165978,),0,0,1
7:41.081   165989,(,0,0,2
7:41.219   166039,t,0,0,0
7:41.353   166087,),0,0,2
7:41.706   166214,(,0,0,1
7:41.844   166264,N,0,0,0
7:41.847   166265,),0,0,1
7:41.889   166280,(,0,0,2
7:42.069   166345,t,0,0,0
7:42.197   166391,),0,0,2
7:43.344   166804,(,0,0,1
7:43.486   166855,N,0,0,0
7:43.536   166873,),0,0,1
7:43.569   166885,(,0,0,2
7:43.733   166944,t,0,0,0
7:43.861   166990,),0,0,2
7:46.806   168050,(,0,0,1
7:46.964   168107,N,0,0,0
7:46.964   168107,),0,0,1
7:47.008   168123,(,0,0,2
7:47.189   168188,t,0,0,0
7:47.319   168235,),0,0,2
7:48.464   168647,(,0,0,1
7:48.606   168698,N,0,0,0
7:48.631   168707,),0,0,1
7:48.678   168724,(,0,0,2
7:48.842   168783,t,0,0,5
7:49.031   168851,t,0,0,5
7:49.147   168893,),0,0,2
7:49.308   168951,(,0,0,1
7:49.464   169007,N,0,0,0
7:49.508   169023,),0,0,1
7:49.544   169036,(,0,0,2
7:49.697   169091,t,0,0,0
7:49.806   169130,),0,0,2
7:53.592   170493,(,0,0,1
7:53.742   170547,N,0,0,0
7:53.786   170563,),0,0,1
7:53.817   170574,(,0,0,2
7:53.953   170623,t,0,0,0
7:54.103   170677,),0,0,2
7:57.011   171724,(,0,0,1
7:57.156   171776,N,0,0,0
7:57.156   171776,),0,0,1
7:57.161   171778,(,0,0,2
7:57.375   171855,t,0,0,0
7:57.547   171917,),0,0,2
7:58.756   172352,(,0,0,1
7:58.878   172396,N,0,0,0
7:58.922   172412,),0,0,1
7:58.953   172423,(,0,0,2
7:59.097   172475,t,0,0,0
7:59.236   172525,),0,0,2
7:59.556   172640,(,0,0,1
7:59.694   172690,N,0,0,0
7:59.747   172709,),0,0,1
7:59.775   172719,(,0,0,2
7:59.917   172770,t,0,0,0
8:00.081   172829,),0,0,2
8:00.389   172940,(,0,0,1
8:00.511   172984,N,0,0,0
8:00.561   173002,),0,0,1
8:00.594   173014,(,0,0,2
8:00.731   173063,t,0,0,0
8:00.878   173116,),0,0,2
8:01.206   173234,(,0,0,1
8:01.358   173289,N,0,0,0
8:01.411   173308,),0,0,1
8:01.439   173318,(,0,0,2
8:01.594   173374,t,0,0,0
8:01.742   173427,),0,0,2
8:02.103   173557,(,0,0,1
8:02.242   173607,N,0,0,0
8:02.297   173627,),0,0,1
8:02.325   173637,(,0,0,2
8:02.467   173688,t,0,0,5
8:02.625   173745,t,0,0,5
8:02.678   173764,),0,0,2
8:02.953   173863,(,0,0,1
8:03.111   173920,N,0,0,0
8:03.164   173939,),0,0,1
8:03.192   173949,(,0,0,2
8:03.353   174007,t,0,0,0
8:03.475   174051,),0,0,2
8:03.831   174179,(,0,0,1
8:03.964   174227,N,0,0,0
8:04.019   174247,),0,0,1
8:04.036   174253,(,0,0,2
8:04.194   174310,t,0,0,0
8:04.339   174362,),0,0,2
8:04.697   174491,(,0,0,1
8:04.831   174539,N,0,0,0
8:04.889   174560,),0,0,1
8:04.919   174571,(,0,0,2
8:05.064   174623,t,0,0,5
8:05.261   174694,t,0,0,5
8:05.394   174742,),0,0,2
8:05.525   174789,(,0,0,1
8:05.664   174839,N,0,0,0
8:05.714   174857,),0,0,1
8:05.739   174866,(,0,0,2
8:05.881   174917,t,0,0,5
8:06.000   174960,t,0,0,5
8:06.036   174973,),0,0,2
8:06.353   175087,(,0,0,1
8:06.481   175133,N,0,0,0
8:06.486   175135,),0,0,1
8:06.528   175150,(,0,0,2
8:06.694   175210,t,0,0,0
8:06.836   175261,),0,0,2
8:08.031   175691,(,0,0,1
8:08.164   175739,),0,0,1
8:08.167   175740,N,0,0,0
8:08.169   175741,(,0,0,2
8:08.397   175823,t,0,0,0
8:08.550   175878,),0,0,2
8:10.636   176629,(,0,0,1
8:10.786   176683,N,0,0,0
8:10.792   176685,),0,0,1
8:10.839   176702,(,0,0,2
8:11.011   176764,t,0,0,0
8:11.156   176816,),0,0,2
8:13.139   177530,(,0,0,1
8:13.281   177581,N,0,0,0
8:13.331   177599,),0,0,1
8:13.364   177611,(,0,0,2
8:13.503   177661,t,0,0,0
8:13.650   177714,),0,0,2
8:13.969   177829,(,0,0,1
8:14.144   177892,N,0,0,0
8:14.186   177907,),0,0,1
8:14.217   177918,(,0,0,2
8:14.372   177974,t,0,0,5
8:14.664   178079,t,0,0,5
8:14.753   178111,),0,0,2
8:14.858   178149,(,0,0,1
8:15.011   178204,N,0,0,0
8:15.061   178222,),0,0,1
8:15.092   178233,(,0,0,2
8:15.239   178286,t,0,0,0
8:15.369   178333,),0,0,2
8:15.722   178460,(,0,0,1
8:15.886   178519,N,0,0,0
8:15.931   178535,),0,0,1
8:15.961   178546,(,0,0,2
8:16.114   178601,t,0,0,0
8:16.242   178647,),0,0,2
8:16.736   178825,N,0,0,0
8:16.736   178825,(,0,0,1
8:16.861   178870,),0,0,1
8:16.872   178874,(,0,0,2
8:16.961   178906,t,0,0,0
8:17.097   178955,),0,0,2
8:17.406   179066,(,0,0,1
8:17.575   179127,N,0,0,0
8:17.619   179143,),0,0,1
8:17.650   179154,(,0,0,2
8:17.800   179208,t,0,0,5
8:17.969   179269,t,0,0,5
8:18.100   179316,),0,0,2
8:18.256   179372,(,0,0,1
8:18.394   179422,N,0,0,0
8:18.444   179440,),0,0,1
8:18.472   179450,(,0,0,2
8:18.614   179501,t,0,0,0
8:18.719   179539,),0,0,2
8:19.083   179670,(,0,0,1
8:19.214   179717,N,0,0,0
8:19.261   179734,),0,0,1
8:19.333   179760,(,0,0,2
8:19.428   179794,t,0,0,0
8:19.578   179848,),0,0,2
8:19.931   179975,(,0,0,1
8:20.075   180027,N,0,0,0
8:20.131   180047,),0,0,1
8:20.164   180059,(,0,0,2
8:20.322   180116,t,0,0,0
8:20.472   180170,),0,0,2
8:21.714   180617,(,0,0,1
8:21.858   180669,N,0,0,0
8:21.864   180671,),0,0,1
8:21.908   180687,(,0,0,2
8:22.089   180752,t,0,0,0
8:22.269   180817,),0,0,2
8:22.536   180913,(,0,0,1
8:22.706   180974,N,0,0,0
8:22.753   180991,),0,0,1
8:22.783   181002,(,0,0,2
8:22.911   181048,t,0,0,0
8:23.056   181100,),0,0,2
8:25.036   181813,(,0,0,1
8:25.192   181869,N,0,0,0
8:25.244   181888,),0,0,1
8:25.469   181969,(,0,0,2
8:25.647   182033,t,0,0,1
8:25.811   182092,),0,0,2
8:26.703   182413,(,0,0,1
8:26.739   182426,N,0,0,0
8:26.894   182482,),0,0,1
8:26.900   182484,(,0,0,2
8:27.081   182549,t,0,0,0
8:27.242   182607,),0,0,2
8:27.581   182729,(,0,0,1
8:27.722   182780,N,0,0,0
8:27.769   182797,),0,0,1
8:27.800   182808,(,0,0,2
8:27.953   182863,t,0,0,0
8:28.094   182914,),0,0,2
8:30.097   183635,(,0,0,1
8:30.231   183683,N,0,0,0
8:30.233   183684,),0,0,1
8:30.278   183700,(,0,0,2
8:30.456   183764,t,0,0,0
8:30.594   183814,),0,0,2
8:31.733   184224,(,0,0,1
8:31.906   184286,N,0,0,0
8:31.956   184304,),0,0,1
8:31.989   184316,(,0,0,2
8:32.158   184377,t,0,0,0
8:32.294   184426,),0,0,2
8:32.653   184555,(,0,0,1
8:32.800   184608,N,0,0,0
8:32.850   184626,),0,0,1
8:32.869   184633,(,0,0,2
8:33.039   184694,t,0,0,0
8:33.197   184751,),0,0,2
8:33.533   184872,(,0,0,1
8:33.686   184927,N,0,0,0
8:33.689   184928,),0,0,1
8:33.736   184945,(,0,0,2
8:33.925   185013,t,0,0,0
8:34.067   185064,),0,0,2
8:35.203   185473,(,0,0,1
8:35.364   185531,N,0,0,0
8:35.411   185548,),0,0,1
8:35.439   185558,(,0,0,2
8:35.578   185608,t,0,0,0
8:35.731   185663,),0,0,2
8:39.486   187015,(,0,0,1
8:39.622   187064,N,0,0,0
8:39.669   187081,),0,0,1
8:39.703   187093,(,0,0,2
8:39.856   187148,t,0,0,0
8:40.000   187200,),0,0,2
8:41.183   187626,(,0,0,1
8:41.333   187680,N,0,0,0
8:41.378   187696,),0,0,1
8:41.406   187706,(,0,0,2
8:41.556   187760,t,0,0,0
8:41.681   187805,),0,0,2
8:44.581   188849,(,0,0,1
8:44.728   188902,N,0,0,0
8:44.781   188921,),0,0,1
8:44.811   188932,(,0,0,2
8:44.953   188983,t,0,0,0
8:45.114   189041,),0,0,2
8:47.961   190066,(,0,0,1
8:48.114   190121,N,0,0,0
8:48.161   190138,),0,0,1
8:48.194   190150,(,0,0,2
8:48.328   190198,t,0,0,0
8:48.472   190250,),0,0,2
8:48.817   190374,(,0,0,1
8:48.956   190424,N,0,0,0
8:49.003   190441,),0,0,1
8:49.031   190451,(,0,0,2
8:49.172   190502,t,0,0,0
8:49.306   190550,),0,0,2
8:49.650   190674,(,0,0,1
8:49.800   190728,N,0,0,0
8:49.850   190746,),0,0,1
8:49.881   190757,(,0,0,2
8:50.028   190810,t,0,0,0
8:50.156   190856,),0,0,2
8:52.283   191622,(,0,0,1
8:52.419   191671,N,0,0,0
8:52.425   191673,),0,0,1
8:52.467   191688,(,0,0,2
8:52.653   191755,t,0,0,0
8:52.794   191806,),0,0,2
8:53.908   192207,(,0,0,1
8:54.064   192263,N,0,0,0
8:54.114   192281,),0,0,1
8:54.142   192291,(,0,0,2
8:54.272   192338,t,0,0,0
8:54.422   192392,),0,0,2
9:00.731   194663,(,0,0,1
9:00.872   194714,N,0,0,0
9:00.914   194729,),0,0,1
9:00.931   194735,(,0,0,2
9:01.083   194790,t,0,0,0
9:01.222   194840,),0,0,2
9:03.281   195581,(,0,0,1
9:03.461   195646,N,0,0,0
9:03.514   195665,),0,0,1
9:03.597   195695,(,0,0,2
9:03.686   195727,t,0,0,0
9:03.828   195778,),0,0,2
9:11.817   198654,(,0,0,1
9:11.956   198704,N,0,0,0
9:11.989   198716,),0,0,1
9:12.006   198722,(,0,0,2
9:12.183   198786,t,0,0,0
9:12.311   198832,),0,0,2
9:12.397   198863,(,0,0,0
9:12.464   198887,p,0,0,0
9:12.536   198913,),0,0,0
9:12.642   198951,(,0,0,1
9:12.775   198999,N,0,0,0
9:12.828   199018,),0,0,1
9:12.858   199029,(,0,0,2
9:13.000   199080,t,0,0,0
9:13.206   199154,),0,0,2
9:13.239   199166,(,0,0,0
9:13.344   199204,p,0,0,0
9:13.392   199221,),0,0,0
9:13.475   199251,(,0,0,1
9:13.606   199298,N,0,0,0
9:13.658   199317,),0,0,1
9:13.719   199339,(,0,0,2
9:13.814   199373,t,0,0,0
9:13.975   199431,),0,0,2
9:14.339   199562,(,0,0,1
9:14.483   199614,N,0,0,0
9:14.539   199634,),0,0,1
9:14.575   199647,(,0,0,2
9:14.722   199700,t,0,0,0
9:14.869   199753,),0,0,2
9:15.081   199829,(,0,0,0
9:15.119   199843,p,0,0,0
9:15.222   199880,),0,0,0
9:15.247   199889,(,0,0,1
9:15.386   199939,N,0,0,0
9:15.436   199957,),0,0,1
9:15.469   199969,(,0,0,2
9:15.619   200023,t,0,0,0
9:15.756   200072,),0,0,2
9:15.872   200114,(,0,0,0
9:15.931   200135,p,0,0,0
9:16.008   200163,),0,0,0
9:16.117   200202,(,0,0,1
9:16.147   200213,N,0,0,0
9:16.233   200244,),0,0,1
9:16.261   200254,(,0,0,2
9:16.478   200332,t,0,0,0
9:16.575   200367,),0,0,2
9:16.872   200474,(,0,0,0
9:16.883   200478,p,0,0,0
9:16.922   200492,),0,0,0
9:16.956   200504,(,0,0,1
9:17.086   200551,N,0,0,0
9:17.136   200569,),0,0,1
9:17.203   200593,(,0,0,2
9:17.289   200624,t,0,0,0
9:17.425   200673,),0,0,2
9:17.581   200729,(,0,0,0
9:17.636   200749,p,0,0,0
9:17.744   200788,),0,0,0
9:17.778   200800,(,0,0,1
9:17.908   200847,N,0,0,0
9:17.928   200854,),0,0,1
9:17.961   200866,(,0,0,2
9:18.122   200924,t,0,0,0
9:18.256   200972,),0,0,2
9:19.242   201327,(,0,0,0
9:19.281   201341,p,0,0,0
9:19.347   201365,),0,0,0
9:19.444   201400,(,0,0,1
9:19.589   201452,N,0,0,0
9:19.644   201472,),0,0,1
9:19.669   201481,(,0,0,2
9:19.819   201535,t,0,0,0
9:19.933   201576,),0,0,2
9:20.014   201605,(,0,0,0
9:20.081   201629,p,0,0,0
9:20.186   201667,),0,0,0
9:20.314   201713,(,0,0,1
9:20.456   201764,N,0,0,0
9:20.506   201782,),0,0,1
9:20.539   201794,(,0,0,2
9:20.683   201846,t,0,0,0
9:20.825   201897,),0,0,2
9:20.922   201932,(,0,0,0
9:20.961   201946,p,0,0,0
9:20.992   201957,),0,0,0
9:21.186   202027,(,0,0,1
9:21.325   202077,N,0,0,0
9:21.372   202094,),0,0,1
9:21.464   202127,(,0,0,2
9:21.556   202160,t,0,0,0
9:21.694   202210,),0,0,2
9:21.850   202266,(,0,0,0
9:21.969   202309,p,0,0,0
9:22.019   202327,),0,0,0
9:22.053   202339,(,0,0,1
9:22.197   202391,N,0,0,0
9:22.244   202408,),0,0,1
9:22.275   202419,(,0,0,2
9:22.431   202475,t,0,0,0
9:22.572   202526,),0,0,2
9:22.742   202587,(,0,0,0
9:22.789   202604,p,0,0,0
9:22.867   202632,),0,0,0
9:22.919   202651,(,0,0,1
9:23.056   202700,N,0,0,0
9:23.056   202700,),0,0,1
9:23.061   202702,(,0,0,2
9:23.269   202777,t,0,0,0
9:23.386   202819,),0,0,2
9:23.478   202852,(,0,0,0
9:23.536   202873,p,0,0,0
9:23.619   202903,),0,0,0
9:23.744   202948,(,0,0,1
9:23.872   202994,N,0,0,0
9:23.922   203012,),0,0,1
9:23.947   203021,(,0,0,2
9:24.097   203075,t,0,0,0
9:24.217   203118,),0,0,2
9:24.550   203238,(,0,0,0
9:24.583   203250,p,0,0,0
9:24.667   203280,),0,0,0
9:24.686   203287,N,0,0,0
9:24.686   203287,(,0,0,1
9:24.822   203336,),0,0,1
9:24.903   203365,t,0,0,3
9:25.039   203414,),0,0,2
9:25.117   203442,(,0,0,0
9:25.200   203472,p,0,0,0
9:25.228   203482,),0,0,0
9:25.381   203537,(,0,0,1
9:25.525   203589,N,0,0,0
9:25.572   203606,),0,0,1
9:25.603   203617,(,0,0,2
9:25.753   203671,t,0,0,0
9:25.892   203721,),0,0,2
9:26.089   203792,(,0,0,0
9:26.139   203810,p,0,0,0
9:26.214   203837,),0,0,0
9:26.247   203849,(,0,0,1
9:26.400   203904,N,0,0,0
9:26.447   203921,),0,0,1
9:26.481   203933,(,0,0,2
9:26.636   203989,t,0,0,0
9:26.775   204039,),0,0,2
9:26.889   204080,(,0,0,0
9:27.011   204124,p,0,0,0
9:27.064   204143,),0,0,0
9:27.142   204171,(,0,0,1
9:27.289   204224,N,0,0,0
9:27.339   204242,),0,0,1
9:27.372   204254,(,0,0,2
9:27.550   204318,t,0,0,0
9:27.678   204364,),0,0,2
9:27.903   204445,(,0,0,0
9:27.925   204453,p,0,0,0
9:27.983   204474,),0,0,0
9:28.017   204486,(,0,0,1
9:28.158   204537,N,0,0,0
9:28.244   204568,),0,0,1
9:28.319   204595,(,0,0,2
9:28.389   204620,t,0,0,0
9:28.522   204668,),0,0,2
9:28.661   204718,(,0,0,0
9:28.672   204722,p,0,0,0
9:28.831   204779,),0,0,0
9:28.864   204791,(,0,0,1
9:28.994   204838,N,0,0,0
9:29.000   204840,),0,0,1
9:29.039   204854,(,0,0,2
9:29.214   204917,t,0,0,0
9:29.344   204964,),0,0,2
9:29.517   205026,(,0,0,0
9:29.542   205035,p,0,0,0
9:29.608   205059,),0,0,0
9:29.644   205072,(,0,0,1
9:29.822   205136,N,0,0,0
9:29.869   205153,),0,0,1
9:29.903   205165,(,0,0,2
9:30.056   205220,t,0,0,0
9:30.183   205266,),0,0,2
9:30.242   205287,(,0,0,0
9:30.297   205307,p,0,0,0
9:30.375   205335,),0,0,0
9:30.528   205390,(,0,0,1
9:30.658   205437,N,0,0,0
9:30.708   205455,),0,0,1
9:30.736   205465,(,0,0,2
9:30.875   205515,t,0,0,0
9:31.056   205580,),0,0,2
9:31.067   205584,(,0,0,0
9:31.081   205589,p,0,0,0
9:31.153   205615,),0,0,0
9:31.361   205690,(,0,0,1
9:31.497   205739,N,0,0,0
9:31.547   205757,),0,0,1
9:31.578   205768,(,0,0,2
9:31.697   205811,t,0,0,0
9:31.861   205870,),0,0,2
9:31.928   205894,(,0,0,0
9:32.078   205948,p,0,0,0
9:32.100   205956,),0,0,0
9:32.211   205996,(,0,0,1
9:32.353   206047,N,0,0,0
9:32.400   206064,),0,0,1
9:32.433   206076,(,0,0,2
9:32.581   206129,t,0,0,0
9:32.725   206181,),0,0,2
9:32.944   206260,(,0,0,0
9:32.978   206272,p,0,0,0
9:33.053   206299,),0,0,0
9:33.067   206304,(,0,0,1
9:33.233   206364,N,0,0,0
9:33.236   206365,),0,0,1
9:33.281   206381,(,0,0,2
9:33.464   206447,t,0,0,0
9:33.603   206497,),0,0,2
9:33.700   206532,(,0,0,0
9:33.764   206555,p,0,0,0
9:33.847   206585,),0,0,0
9:33.953   206623,(,0,0,1
9:34.097   206675,N,0,0,0
9:34.144   206692,),0,0,1
9:34.172   206702,(,0,0,2
9:34.333   206760,t,0,0,0
9:34.439   206798,),0,0,2
9:34.614   206861,(,0,0,0
9:34.639   206870,p,0,0,0
9:34.672   206882,),0,0,0
9:34.811   206932,(,0,0,1
9:34.944   206980,N,0,0,0
9:34.997   206999,),0,0,1
9:35.075   207027,(,0,0,2
9:35.167   207060,t,0,0,0
9:35.308   207111,),0,0,2
9:35.353   207127,(,0,0,0
9:35.511   207184,p,0,0,0
9:35.525   207189,),0,0,0
9:35.639   207230,(,0,0,1
9:35.769   207277,N,0,0,0
9:35.817   207294,),0,0,1
9:35.900   207324,(,0,0,2
9:35.989   207356,t,0,0,0
9:36.122   207404,),0,0,2
9:36.311   207472,(,0,0,0
9:36.372   207494,p,0,0,0
9:36.422   207512,),0,0,0
9:36.456   207524,(,0,0,1
9:36.592   207573,N,0,0,0
9:36.636   207589,),0,0,1
9:36.664   207599,(,0,0,2
9:36.808   207651,t,0,0,5
9:36.953   207703,t,0,0,5
9:37.142   207771,),0,0,2
9:37.286   207823,(,0,0,1
9:37.431   207875,N,0,0,0
9:37.475   207891,),0,0,1
9:37.508   207903,(,0,0,2
9:37.667   207960,t,0,0,0
9:37.792   208005,),0,0,2
9:38.178   208144,(,0,0,1
9:38.322   208196,N,0,0,0
9:38.369   208213,),0,0,1
9:38.403   208225,(,0,0,2
9:38.569   208285,t,0,0,0
9:38.692   208329,),0,0,2
9:38.858   208389,(,0,0,0
9:38.919   208411,p,0,0,0
9:39.031   208451,),0,0,0
9:39.064   208463,(,0,0,1
9:39.206   208514,N,0,0,0
9:39.253   208531,),0,0,1
9:39.281   208541,(,0,0,2
9:39.433   208596,t,0,0,0
9:39.575   208647,),0,0,2
9:39.922   208772,(,0,0,1
9:40.069   208825,N,0,0,0
9:40.072   208826,),0,0,1
9:40.111   208840,(,0,0,2
9:40.308   208911,t,0,0,0
9:40.436   208957,),0,0,2
9:40.653   209035,(,0,0,0
9:40.700   209052,p,0,0,0
9:40.756   209072,),0,0,0
9:40.775   209079,(,0,0,1
9:40.917   209130,N,0,0,0
9:40.964   209147,),0,0,1
9:40.992   209157,(,0,0,2
9:41.136   209209,t,0,0,0
9:41.267   209256,),0,0,2
9:41.317   209274,(,0,0,0
9:41.364   209291,p,0,0,0
9:41.444   209320,),0,0,0
9:41.592   209373,(,0,0,1
9:41.728   209422,N,0,0,0
9:41.778   209440,),0,0,1
9:41.803   209449,(,0,0,2
9:41.953   209503,t,0,0,0
9:42.131   209567,),0,0,2
9:42.425   209673,(,0,0,1
9:42.561   209722,N,0,0,0
9:42.606   209738,),0,0,1
9:42.636   209749,(,0,0,2
9:42.764   209795,t,0,0,0
9:42.936   209857,),0,0,2
9:43.139   209930,(,0,0,0
9:43.194   209950,p,0,0,0
9:43.217   209958,),0,0,0
9:43.267   209976,(,0,0,1
9:43.400   210024,N,0,0,0
9:43.447   210041,),0,0,1
9:43.478   210052,(,0,0,2
9:43.633   210108,t,0,0,0
9:43.772   210158,),0,0,2
9:43.911   210208,(,0,0,0
9:43.986   210235,p,0,0,0
9:44.089   210272,),0,0,0
9:44.103   210277,(,0,0,1
9:44.261   210334,N,0,0,0
9:44.308   210351,),0,0,1
9:44.339   210362,(,0,0,2
9:44.489   210416,t,0,0,0
9:44.631   210467,),0,0,2
9:44.736   210505,(,0,0,0
9:44.792   210525,p,0,0,0
9:44.878   210556,),0,0,0
9:44.989   210596,(,0,0,1
9:45.131   210647,N,0,0,0
9:45.181   210665,),0,0,1
9:45.219   210679,(,0,0,2
9:45.372   210734,t,0,0,0
9:45.603   210817,),0,0,2
9:45.678   210844,(,0,0,0
9:45.736   210865,p,0,0,0
9:45.850   210906,),0,0,0
9:45.886   210919,(,0,0,1
9:46.028   210970,N,0,0,0
9:46.078   210988,),0,0,1
9:46.147   211013,(,0,0,2
9:46.247   211049,t,0,0,0
9:46.394   211102,),0,0,2
9:46.564   211163,(,0,0,0
9:46.583   211170,p,0,0,0
9:46.706   211214,),0,0,0
9:46.739   211226,(,0,0,1
9:46.875   211275,N,0,0,0
9:46.931   211295,),0,0,1
9:46.994   211318,(,0,0,2
9:47.094   211354,t,0,0,0
9:47.228   211402,),0,0,2
9:47.383   211458,(,0,0,0
9:47.469   211489,p,0,0,0
9:47.522   211508,),0,0,0
9:47.556   211520,(,0,0,1
9:47.686   211567,),0,0,1
9:47.689   211568,N,0,0,0
9:47.692   211569,(,0,0,2
9:47.908   211647,t,0,0,5
9:48.075   211707,t,0,0,5
9:48.197   211751,),0,0,2
9:48.375   211815,(,0,0,1
9:48.508   211863,N,0,0,0
9:48.564   211883,),0,0,1
9:48.586   211891,(,0,0,2
9:48.736   211945,t,0,0,0
9:48.839   211982,),0,0,2
9:48.997   212039,(,0,0,0
9:49.083   212070,p,0,0,0
9:49.169   212101,),0,0,0
9:49.203   212113,(,0,0,1
9:49.342   212163,N,0,0,0
9:49.342   212163,),0,0,1
9:49.347   212165,(,0,0,2
9:49.575   212247,t,0,0,0
9:49.733   212304,),0,0,2
9:49.914   212369,(,0,0,0
9:49.936   212377,p,0,0,0
9:50.044   212416,),0,0,0
9:50.078   212428,(,0,0,1
9:50.111   212440,N,0,0,0
9:50.197   212471,),0,0,1
9:50.225   212481,(,0,0,2
9:50.467   212568,t,0,0,0
9:50.625   212625,),0,0,2
9:50.806   212690,(,0,0,0
9:50.833   212700,p,0,0,0
9:50.936   212737,),0,0,0
9:50.969   212749,(,0,0,1
9:51.111   212800,N,0,0,0
9:51.111   212800,),0,0,1
9:51.117   212802,(,0,0,2
9:51.342   212883,t,0,0,0
9:51.483   212934,),0,0,2
9:51.622   212984,(,0,0,0
9:51.669   213001,p,0,0,0
9:51.753   213031,),0,0,0
9:51.839   213062,(,0,0,1
9:51.872   213074,N,0,0,0
9:51.950   213102,),0,0,1
9:51.981   213113,t,0,0,2
9:52.192   213189,),0,0,2
9:52.428   213274,(,0,0,1
9:52.492   213297,N,0,0,0
9:52.669   213361,),0,0,1
9:52.717   213378,(,0,0,2
9:52.956   213464,t,0,0,0
9:53.114   213521,),0,0,2
9:53.119   213523,(,0,0,0
9:53.172   213542,p,0,0,0
9:53.286   213583,),0,0,0
9:53.369   213613,(,0,0,1
9:53.403   213625,N,0,0,0
9:53.486   213655,),0,0,1
9:53.514   213665,(,0,0,2
9:53.725   213741,t,0,0,0
9:53.875   213795,),0,0,2
9:54.019   213847,(,0,0,0
9:54.056   213860,p,0,0,0
9:54.164   213899,),0,0,0
9:54.197   213911,(,0,0,1
9:54.331   213959,N,0,0,0
9:54.336   213961,),0,0,1
9:54.386   213979,(,0,0,2
9:54.556   214040,t,0,0,0
9:54.697   214091,),0,0,2
9:54.869   214153,(,0,0,0
9:54.917   214170,p,0,0,0
9:54.994   214198,),0,0,0
9:55.022   214208,(,0,0,1
9:55.053   214219,N,0,0,0
9:55.128   214246,),0,0,1
9:55.158   214257,(,0,0,2
9:55.386   214339,t,0,0,0
9:55.522   214388,),0,0,2
9:55.619   214423,(,0,0,0
9:55.678   214444,p,0,0,0
9:55.756   214472,),0,0,0
9:55.864   214511,(,0,0,1
9:55.894   214522,N,0,0,0
9:55.972   214550,),0,0,1
9:56.044   214576,(,0,0,2
9:56.247   214649,t,0,0,0
9:56.469   214729,),0,0,2
9:56.550   214758,(,0,0,0
9:56.569   214765,p,0,0,0
9:56.708   214815,),0,0,0
9:56.742   214827,(,0,0,1
9:56.878   214876,N,0,0,0
9:56.925   214893,),0,0,1
9:56.956   214904,(,0,0,2
9:57.097   214955,t,0,0,0
9:57.258   215013,),0,0,2
9:57.408   215067,(,0,0,0
9:57.436   215077,p,0,0,0
9:57.586   215131,),0,0,0
9:57.625   215145,(,0,0,1
9:57.656   215156,N,0,0,0
9:57.736   215185,),0,0,1
9:57.764   215195,(,0,0,2
9:57.997   215279,t,0,0,0
9:58.142   215331,),0,0,2
9:58.294   215386,(,0,0,0
9:58.325   215397,p,0,0,0
9:58.469   215449,),0,0,0
9:58.494   215458,(,0,0,1
9:58.628   215506,N,0,0,0
9:58.678   215524,),0,0,1
9:58.706   215534,(,0,0,2
9:58.844   215584,t,0,0,0
9:58.975   215631,),0,0,2
9:59.097   215675,(,0,0,0
9:59.139   215690,p,0,0,0
9:59.214   215717,),0,0,0
9:59.317   215754,(,0,0,1
9:59.350   215766,N,0,0,0
9:59.431   215795,),0,0,1
9:59.458   215805,(,0,0,2
9:59.672   215882,t,0,0,0
9:59.883   215958,),0,0,2
9:59.928   215974,(,0,0,0
9:59.975   215991,p,0,0,0
   10:00.097   216035,),0,0,0
   10:00.131   216047,(,0,0,1
   10:00.264   216095,N,0,0,0
   10:00.311   216112,),0,0,1
   10:00.342   216123,(,0,0,2
   10:00.475   216171,t,0,0,0
   10:00.622   216224,),0,0,2
   10:00.786   216283,(,0,0,0
   10:00.811   216292,p,0,0,0
   10:00.942   216339,),0,0,0
   10:00.975   216351,(,0,0,1
   10:01.006   216362,N,0,0,0
   10:01.106   216398,),0,0,1
   10:01.108   216399,(,0,0,2
   10:01.350   216486,t,0,0,0
   10:01.486   216535,),0,0,2
   10:01.656   216596,(,0,0,0
   10:01.711   216616,p,0,0,0
   10:01.806   216650,),0,0,0
   10:01.839   216662,(,0,0,1
   10:01.872   216674,N,0,0,0
   10:01.947   216701,),0,0,1
   10:01.981   216713,(,0,0,2
   10:02.217   216798,t,0,0,0
   10:02.361   216850,),0,0,2
   10:02.475   216891,(,0,0,0
   10:02.533   216912,p,0,0,0
   10:02.611   216940,),0,0,0
   10:02.714   216977,(,0,0,1
   10:02.853   217027,N,0,0,0
   10:02.900   217044,),0,0,1
   10:02.931   217055,(,0,0,2
   10:03.081   217109,t,0,0,0
   10:03.178   217144,),0,0,2
   10:03.419   217231,(,0,0,0
   10:03.444   217240,p,0,0,0
   10:03.547   217277,),0,0,0
   10:03.581   217289,(,0,0,1
   10:03.719   217339,N,0,0,0
   10:03.767   217356,),0,0,1
   10:03.794   217366,(,0,0,2
   10:03.936   217417,t,0,0,0
   10:04.086   217471,),0,0,2
   10:04.297   217547,(,0,0,0
   10:04.314   217553,p,0,0,0
   10:04.411   217588,),0,0,0
   10:04.444   217600,(,0,0,1
   10:04.478   217612,N,0,0,0
   10:04.553   217639,),0,0,1
   10:04.575   217647,(,0,0,2
   10:04.797   217727,t,0,0,0
   10:04.953   217783,),0,0,2
   10:05.139   217850,(,0,0,0
   10:05.164   217859,p,0,0,0
   10:05.242   217887,),0,0,0
   10:05.275   217899,(,0,0,1
   10:05.406   217946,N,0,0,0
   10:05.433   217956,),0,0,1
   10:05.478   217972,(,0,0,2
   10:05.628   218026,t,0,0,5
   10:05.822   218096,t,0,0,5
   10:05.922   218132,),0,0,2
   10:06.103   218197,(,0,0,1
   10:06.239   218246,N,0,0,0
   10:06.286   218263,),0,0,1
   10:06.314   218273,(,0,0,2
   10:06.461   218326,t,0,0,0
   10:06.556   218360,),0,0,2
   10:06.783   218442,(,0,0,0
   10:06.803   218449,p,0,0,0
   10:06.892   218481,),0,0,0
   10:06.925   218493,(,0,0,1
   10:07.064   218543,N,0,0,0
   10:07.103   218557,),0,0,1
   10:07.142   218571,(,0,0,2
   10:07.283   218622,t,0,0,0
   10:07.433   218676,),0,0,2
   10:07.603   218737,(,0,0,0
   10:07.633   218748,p,0,0,0
   10:07.719   218779,),0,0,0
   10:07.767   218796,(,0,0,1
   10:07.903   218845,N,0,0,0
   10:07.956   218864,),0,0,1
   10:08.025   218889,(,0,0,2
   10:08.139   218930,t,0,0,0
   10:08.289   218984,),0,0,2
   10:08.436   219037,(,0,0,0
   10:08.497   219059,p,0,0,0
   10:08.614   219101,),0,0,0
   10:08.647   219113,(,0,0,1
   10:08.792   219165,N,0,0,0
   10:08.792   219165,),0,0,1
   10:08.797   219167,(,0,0,2
   10:09.036   219253,t,0,0,0
   10:09.181   219305,),0,0,2
   10:09.311   219352,(,0,0,0
   10:09.369   219373,p,0,0,0
   10:09.447   219401,),0,0,0
   10:09.544   219436,(,0,0,1
   10:09.689   219488,N,0,0,0
   10:09.731   219503,),0,0,1
   10:09.764   219515,(,0,0,2
   10:09.917   219570,t,0,0,0
   10:10.017   219606,),0,0,2
   10:10.408   219747,(,0,0,1
   10:10.544   219796,N,0,0,0
   10:10.592   219813,),0,0,1
   10:10.658   219837,(,0,0,2
   10:10.753   219871,t,0,0,0
   10:10.889   219920,),0,0,2
   10:11.031   219971,(,0,0,0
   10:11.097   219995,p,0,0,0
   10:11.203   220033,),0,0,0
   10:11.236   220045,(,0,0,1
   10:11.364   220091,N,0,0,0
   10:11.411   220108,),0,0,1
   10:11.478   220132,(,0,0,2
   10:11.586   220171,t,0,0,0
   10:11.719   220219,),0,0,2
   10:11.758   220233,(,0,0,0
   10:11.772   220238,p,0,0,0
   10:11.833   220260,),0,0,0
   10:12.058   220341,(,0,0,1
   10:12.089   220352,N,0,0,0
   10:12.172   220382,),0,0,1
   10:12.197   220391,(,0,0,2
   10:12.411   220468,t,0,0,0
   10:12.533   220512,),0,0,2
   10:12.647   220553,(,0,0,0
   10:12.703   220573,p,0,0,0
   10:12.783   220602,),0,0,0
   10:12.881   220637,(,0,0,1
   10:12.911   220648,N,0,0,0
   10:12.967   220668,),0,0,1
   10:12.972   220670,(,0,0,2
   10:13.022   220688,t,0,0,4
   10:13.247   220769,t,0,0,4
   10:13.342   220803,),0,0,2
   10:13.542   220875,(,0,0,0
   10:13.583   220890,p,0,0,0
   10:13.711   220936,),0,0,0
   10:13.744   220948,(,0,0,1
   10:13.886   220999,N,0,0,0
   10:13.936   221017,),0,0,1
   10:13.972   221030,(,0,0,2
   10:14.111   221080,t,0,0,0
   10:14.272   221138,),0,0,2
   10:14.431   221195,(,0,0,0
   10:14.467   221208,p,0,0,0
   10:14.586   221251,),0,0,0
   10:14.619   221263,(,0,0,1
   10:14.761   221314,N,0,0,0
   10:14.814   221333,),0,0,1
   10:14.817   221334,t,0,0,2
   10:14.992   221397,),0,0,2
   10:15.039   221414,(,0,0,0
   10:15.103   221437,p,0,0,0
   10:15.197   221471,),0,0,0
   10:15.228   221482,(,0,0,1
   10:15.306   221510,N,0,0,0
   10:15.378   221536,),0,0,1
   10:15.469   221569,(,0,0,2
   10:15.536   221593,t,0,0,1
   10:15.675   221643,),0,0,2
   10:16.192   221829,(,0,0,1
   10:16.331   221879,N,0,0,0
   10:16.333   221880,),0,0,1
   10:16.378   221896,(,0,0,2
   10:16.558   221961,t,0,0,0
   10:16.714   222017,),0,0,2
   10:16.878   222076,(,0,0,0
   10:16.972   222110,p,0,0,0
   10:17.017   222126,),0,0,0
   10:17.050   222138,(,0,0,1
   10:17.186   222187,N,0,0,0
   10:17.231   222203,),0,0,1
   10:17.258   222213,(,0,0,2
   10:17.400   222264,t,0,0,0
   10:17.592   222333,),0,0,2
   10:17.608   222339,(,0,0,0
   10:17.717   222378,p,0,0,0
   10:17.769   222397,),0,0,0
   10:17.867   222432,(,0,0,1
   10:18.000   222480,N,0,0,0
   10:18.050   222498,),0,0,1
   10:18.081   222509,(,0,0,2
   10:18.200   222552,t,0,0,0
   10:18.350   222606,),0,0,2
   10:18.503   222661,(,0,0,0
   10:18.539   222674,p,0,0,0
   10:18.647   222713,),0,0,0
   10:18.681   222725,(,0,0,1
   10:18.811   222772,N,0,0,0
   10:18.856   222788,),0,0,1
   10:18.892   222801,(,0,0,2
   10:19.036   222853,t,0,0,0
   10:19.169   222901,),0,0,2
   10:19.336   222961,(,0,0,0
   10:19.361   222970,p,0,0,0
   10:19.453   223003,),0,0,0
   10:19.497   223019,(,0,0,1
   10:19.653   223075,N,0,0,0
   10:19.706   223094,),0,0,1
   10:19.739   223106,(,0,0,2
   10:19.886   223159,t,0,0,0
   10:20.031   223211,),0,0,2
   10:20.183   223266,(,0,0,0
   10:20.303   223309,p,0,0,0
   10:20.347   223325,),0,0,0
   10:20.381   223337,(,0,0,1
   10:20.525   223389,N,0,0,0
   10:20.575   223407,),0,0,1
   10:20.606   223418,(,0,0,2
   10:20.767   223476,t,0,0,0
   10:20.953   223543,),0,0,2
   10:20.975   223551,(,0,0,0
   10:20.983   223554,p,0,0,0
   10:21.022   223568,),0,0,0
   10:21.272   223658,(,0,0,1
   10:21.414   223709,N,0,0,0
   10:21.467   223728,),0,0,1
   10:21.500   223740,(,0,0,2
   10:21.625   223785,t,0,0,0
   10:21.792   223845,),0,0,2
   10:21.953   223903,(,0,0,0
   10:22.069   223945,p,0,0,0
   10:22.122   223964,),0,0,0
   10:22.156   223976,(,0,0,1
   10:22.292   224025,N,0,0,0
   10:22.336   224041,),0,0,1
   10:22.369   224053,(,0,0,2
   10:22.519   224107,t,0,0,0
   10:22.653   224155,),0,0,2
   10:22.803   224209,(,0,0,0
   10:22.833   224220,p,0,0,0
   10:22.917   224250,),0,0,0
   10:22.961   224266,(,0,0,1
   10:23.133   224328,N,0,0,0
   10:23.136   224329,),0,0,1
   10:23.181   224345,(,0,0,2
   10:23.342   224403,t,0,0,0
   10:23.472   224450,),0,0,2
   10:23.508   224463,(,0,0,0
   10:23.569   224485,p,0,0,0
   10:23.650   224514,),0,0,0
   10:23.811   224572,(,0,0,1
   10:23.942   224619,N,0,0,0
   10:23.992   224637,),0,0,1
   10:24.017   224646,(,0,0,2
   10:24.192   224709,t,0,0,0
   10:24.317   224754,),0,0,2
   10:24.386   224779,(,0,0,0
   10:24.431   224795,p,0,0,0
   10:24.447   224801,),0,0,0
   10:24.650   224874,(,0,0,1
   10:24.789   224924,N,0,0,0
   10:24.836   224941,),0,0,1
   10:24.869   224953,(,0,0,2
   10:25.011   225004,t,0,0,0
   10:25.144   225052,),0,0,2
   10:25.319   225115,(,0,0,0
   10:25.336   225121,p,0,0,0
   10:25.458   225165,),0,0,0
   10:25.492   225177,(,0,0,1
   10:25.633   225228,N,0,0,0
   10:25.683   225246,),0,0,1
   10:25.714   225257,(,0,0,2
   10:25.867   225312,t,0,0,0
   10:26.006   225362,),0,0,2
   10:26.211   225436,(,0,0,0
   10:26.256   225452,p,0,0,0
   10:26.328   225478,),0,0,0
   10:26.356   225488,(,0,0,1
   10:26.494   225538,N,0,0,0
   10:26.542   225555,),0,0,1
   10:26.572   225566,(,0,0,2
   10:26.725   225621,t,0,0,0
   10:26.864   225671,),0,0,2
   10:26.883   225678,(,0,0,0
   10:26.936   225697,p,0,0,0
   10:27.019   225727,),0,0,0
   10:27.228   225802,(,0,0,1
   10:27.367   225852,N,0,0,0
   10:27.417   225870,),0,0,1
   10:27.447   225881,(,0,0,2
   10:27.614   225941,t,0,0,0
   10:27.747   225989,),0,0,2
   10:27.883   226038,(,0,0,0
   10:27.914   226049,p,0,0,0
   10:28.003   226081,),0,0,0
   10:28.097   226115,(,0,0,1
   10:28.231   226163,N,0,0,0
   10:28.278   226180,),0,0,1
   10:28.294   226186,(,0,0,2
   10:28.456   226244,t,0,0,0
   10:28.594   226294,),0,0,2
   10:28.644   226312,(,0,0,0
   10:28.658   226317,p,0,0,0
   10:28.739   226346,),0,0,0
   10:28.947   226421,(,0,0,1
   10:29.078   226468,N,0,0,0
   10:29.122   226484,),0,0,1
   10:29.153   226495,(,0,0,2
   10:29.303   226549,t,0,0,0
   10:29.436   226597,),0,0,2
   10:29.606   226658,(,0,0,0
   10:29.653   226675,p,0,0,0
   10:29.731   226703,),0,0,0
   10:29.781   226721,(,0,0,1
   10:29.919   226771,N,0,0,0
   10:29.919   226771,),0,0,1
   10:29.964   226787,(,0,0,2
   10:30.139   226850,t,0,0,0
   10:30.239   226886,),0,0,2
   10:30.325   226917,(,0,0,0
   10:30.428   226954,p,0,0,0
   10:30.472   226970,),0,0,0
   10:30.594   227014,(,0,0,1
   10:30.733   227064,N,0,0,0
   10:30.775   227079,),0,0,1
   10:30.806   227090,(,0,0,2
   10:30.953   227143,t,0,0,0
   10:31.081   227189,),0,0,2
   10:31.422   227312,(,0,0,0
   10:31.456   227324,p,0,0,0
   10:31.536   227353,),0,0,0
   10:31.561   227362,N,0,0,0
   10:31.561   227362,(,0,0,1
   10:31.683   227406,),0,0,1
   10:31.697   227411,(,0,0,2
   10:31.794   227446,t,0,0,0
   10:31.939   227498,),0,0,2
   10:32.303   227629,(,0,0,1
   10:32.453   227683,N,0,0,0
   10:32.500   227700,),0,0,1
   10:32.539   227714,(,0,0,2
   10:32.700   227772,t,0,0,0
   10:32.850   227826,),0,0,2
   10:37.325   229437,(,0,0,0
   10:37.344   229444,p,0,0,0
   10:37.383   229458,),0,0,0
   10:37.414   229469,(,0,0,1
   10:37.444   229480,N,0,0,0
   10:37.489   229496,),0,0,1
   10:37.494   229498,(,0,0,2
   10:37.553   229519,t,0,0,4
   10:37.775   229599,t,0,0,4
   10:37.922   229652,),0,0,2
   10:38.128   229726,(,0,0,0
   10:38.153   229735,p,0,0,0
   10:38.175   229743,),0,0,0
   10:38.275   229779,(,0,0,1
   10:38.417   229830,N,0,0,0
   10:38.417   229830,),0,0,1
   10:38.422   229832,(,0,0,2
   10:38.656   229916,t,0,0,0
   10:38.786   229963,),0,0,2
   10:38.953   230023,(,0,0,0
   10:39.003   230041,p,0,0,0
   10:39.117   230082,),0,0,0
   10:39.139   230090,(,0,0,1
   10:39.278   230140,N,0,0,0
   10:39.283   230142,),0,0,1
   10:39.325   230157,(,0,0,2
   10:39.517   230226,t,0,0,0
   10:39.650   230274,),0,0,2
   10:39.861   230350,(,0,0,0
   10:39.936   230377,p,0,0,0
   10:39.961   230386,),0,0,0
   10:40.017   230406,(,0,0,1
   10:40.161   230458,N,0,0,0
   10:40.164   230459,),0,0,1
   10:40.169   230461,(,0,0,2
   10:40.406   230546,t,0,0,0
   10:40.608   230619,),0,0,2
   10:40.783   230682,(,0,0,0
   10:40.800   230688,p,0,0,0
   10:40.844   230704,),0,0,0
   10:40.878   230716,(,0,0,1
   10:41.014   230765,N,0,0,0
   10:41.017   230766,),0,0,1
   10:41.022   230768,(,0,0,2
   10:41.219   230839,t,0,0,0
   10:41.381   230897,),0,0,2
   10:41.539   230954,(,0,0,0
   10:41.589   230972,p,0,0,0
   10:41.656   230996,),0,0,0
   10:41.706   231014,(,0,0,1
   10:41.836   231061,N,0,0,0
   10:41.881   231077,),0,0,1
   10:41.908   231087,(,0,0,2
   10:42.050   231138,t,0,0,0
   10:42.186   231187,),0,0,2
   10:42.314   231233,(,0,0,0
   10:42.378   231256,p,0,0,0
   10:42.481   231293,),0,0,0
   10:42.489   231296,(,0,0,1
   10:42.650   231354,N,0,0,0
   10:42.653   231355,),0,0,1
   10:42.692   231369,(,0,0,2
   10:42.875   231435,t,0,0,0
   10:43.003   231481,),0,0,2
   10:43.178   231544,(,0,0,0
   10:43.286   231583,p,0,0,0
   10:43.322   231596,),0,0,0
   10:43.356   231608,(,0,0,1
   10:43.494   231658,N,0,0,0
   10:43.533   231672,),0,0,1
   10:43.564   231683,(,0,0,2
   10:43.722   231740,t,0,0,0
   10:43.922   231812,),0,0,2
   10:44.047   231857,(,0,0,0
   10:44.067   231864,p,0,0,0
   10:44.089   231872,),0,0,0
   10:44.225   231921,(,0,0,1
   10:44.369   231973,N,0,0,0
   10:44.417   231990,),0,0,1
   10:44.447   232001,(,0,0,2
   10:44.583   232050,t,0,0,0
   10:44.761   232114,),0,0,2
   10:44.975   232191,(,0,0,0
   10:45.003   232201,p,0,0,0
   10:45.025   232209,),0,0,0
   10:45.094   232234,(,0,0,1
   10:45.269   232297,N,0,0,0
   10:45.272   232298,),0,0,1
   10:45.314   232313,(,0,0,2
   10:45.506   232382,t,0,0,0
   10:45.672   232442,),0,0,2
   10:45.767   232476,(,0,0,0
   10:45.831   232499,p,0,0,0
   10:45.942   232539,),0,0,0
   10:45.958   232545,(,0,0,1
   10:46.133   232608,N,0,0,0
   10:46.178   232624,),0,0,1
   10:46.208   232635,(,0,0,2
   10:46.361   232690,t,0,0,0
   10:46.519   232747,),0,0,2
   10:46.664   232799,(,0,0,0
   10:46.758   232833,p,0,0,0
   10:46.797   232847,),0,0,0
   10:46.831   232859,(,0,0,1
   10:46.967   232908,N,0,0,0
   10:46.967   232908,),0,0,1
   10:46.972   232910,(,0,0,2
   10:47.181   232985,t,0,0,0
   10:47.386   233059,),0,0,2
   10:47.478   233092,(,0,0,0
   10:47.528   233110,p,0,0,0
   10:47.628   233146,),0,0,0
   10:47.661   233158,(,0,0,1
   10:47.794   233206,N,0,0,0
   10:47.800   233208,),0,0,1
   10:47.842   233223,(,0,0,2
   10:48.000   233280,t,0,0,0
   10:48.164   233339,),0,0,2
   10:48.286   233383,(,0,0,0
   10:48.319   233395,p,0,0,0
   10:48.344   233404,),0,0,0
   10:48.500   233460,(,0,0,1
   10:48.631   233507,N,0,0,0
   10:48.633   233508,),0,0,1
   10:48.675   233523,(,0,0,2
   10:48.856   233588,t,0,0,0
   10:49.006   233642,),0,0,2
   10:49.147   233693,(,0,0,0
   10:49.194   233710,p,0,0,0
   10:49.294   233746,),0,0,0
   10:49.308   233751,(,0,0,1
   10:49.472   233810,N,0,0,0
   10:49.472   233810,),0,0,1
   10:49.478   233812,(,0,0,2
   10:49.692   233889,t,0,0,0
   10:49.822   233936,),0,0,2
   10:50.008   234003,(,0,0,0
   10:50.097   234035,p,0,0,0
   10:50.153   234055,),0,0,0
   10:50.186   234067,(,0,0,1
   10:50.325   234117,N,0,0,0
   10:50.375   234135,),0,0,1
   10:50.400   234144,(,0,0,2
   10:50.561   234202,t,0,0,0
   10:50.758   234273,),0,0,2
   10:50.886   234319,(,0,0,0
   10:50.917   234330,p,0,0,0
   10:50.972   234350,),0,0,0
   10:51.064   234383,(,0,0,1
   10:51.206   234434,N,0,0,0
   10:51.211   234436,),0,0,1
   10:51.253   234451,(,0,0,2
   10:51.417   234510,t,0,0,0
   10:51.581   234569,),0,0,2
   10:51.853   234667,(,0,0,0
   10:51.883   234678,p,0,0,0
   10:51.900   234684,),0,0,0
   10:51.931   234695,(,0,0,1
   10:52.078   234748,N,0,0,0
   10:52.081   234749,),0,0,1
   10:52.128   234766,(,0,0,2
   10:52.306   234830,t,0,0,0
   10:52.444   234880,),0,0,2
   10:52.611   234940,(,0,0,0
   10:52.656   234956,p,0,0,0
   10:52.747   234989,),0,0,0
   10:52.792   235005,(,0,0,1
   10:52.933   235056,N,0,0,0
   10:52.936   235057,),0,0,1
   10:52.975   235071,(,0,0,2
   10:53.156   235136,t,0,0,0
   10:53.286   235183,),0,0,2
   10:53.431   235235,(,0,0,0
   10:53.528   235270,p,0,0,0
   10:53.550   235278,),0,0,0
   10:53.614   235301,(,0,0,1
   10:53.753   235351,N,0,0,0
   10:53.792   235365,),0,0,1
   10:53.819   235375,(,0,0,2
   10:53.964   235427,t,0,0,0
   10:54.158   235497,),0,0,2
   10:54.269   235537,(,0,0,0
   10:54.289   235544,p,0,0,0
   10:54.378   235576,),0,0,0
   10:54.428   235594,(,0,0,1
   10:54.558   235641,N,0,0,0
   10:54.558   235641,),0,0,1
   10:54.564   235643,(,0,0,2
   10:54.758   235713,t,0,0,0
   10:54.911   235768,),0,0,2
   10:55.061   235822,(,0,0,0
   10:55.128   235846,p,0,0,0
   10:55.233   235884,),0,0,0
