Elapsedtime,sample,Type,Sub,Chan,Num
0:00.958,345,(,0,0,0
0:01.008,363,p,0,0,0
0:01.050,378,),0,0,0
0:01.103,397,(,0,0,1
0:01.225,441,N,0,0,0
0:01.278,460,),0,0,1
0:01.356,488,(,0,0,2
0:01.475,531,t,0,0,5
0:01.750,630,t,0,0,5
0:01.789,644,),0,0,2
0:01.931,695,(,0,0,0
0:01.978,712,p,0,0,0
0:02.017,726,),0,0,0
0:02.119,763,(,0,0,1
0:02.192,789,N,0,0,0
0:02.244,808,),0,0,1
0:02.931,1055,(,0,0,0
0:02.981,1073,p,0,0,0
0:03.019,1087,),0,0,0
0:03.125,1125,(,0,0,1
0:03.206,1154,N,0,0,0
0:03.256,1172,),0,0,1
0:03.328,1198,(,0,0,2
0:03.436,1237,t,0,0,5
0:03.711,1336,t,0,0,5
0:03.750,1350,),0,0,2
0:03.886,1399,(,0,0,0
0:03.933,1416,p,0,0,0
0:03.972,1430,),0,0,0
0:04.042,1455,(,0,0,1
0:04.144,1492,N,0,0,0
0:04.194,1510,),0,0,1
0:04.547,1637,(,0,0,2
0:04.600,1656,t,0,0,4
0:04.706,1694,t,0,0,4
0:04.756,1712,),0,0,2
0:04.778,1720,(,0,0,0
0:04.847,1745,p,0,0,0
0:04.889,1760,),0,0,0
0:04.911,1768,(,0,0,1
0:05.053,1819,N,0,0,0
0:05.100,1836,),0,0,1
0:05.133,1848,(,0,0,2
0:05.278,1900,t,0,0,0
0:05.417,1950,),0,0,2
0:05.747,2069,(,0,0,0
0:05.786,2083,p,0,0,0
0:05.828,2098,),0,0,0
0:05.928,2134,(,0,0,1
0:05.986,2155,N,0,0,0
0:06.036,2173,),0,0,1
0:06.708,2415,(,0,0,0
0:06.764,2435,p,0,0,0
0:06.806,2450,),0,0,0
0:06.842,2463,(,0,0,1
0:06.989,2516,N,0,0,0
0:07.050,2538,),0,0,1
0:07.136,2569,(,0,0,2
0:07.228,2602,t,0,0,5
0:07.536,2713,t,0,0,5
0:07.644,2752,),0,0,2
0:07.750,2790,(,0,0,0
0:07.806,2810,p,0,0,0
0:07.844,2824,),0,0,0
0:07.961,2866,(,0,0,1
0:08.022,2888,N,0,0,0
0:08.072,2906,),0,0,1
0:08.142,2931,(,0,0,2
0:08.272,2978,t,0,0,5
0:08.539,3074,t,0,0,5
0:08.647,3113,),0,0,2
0:08.736,3145,(,0,0,0
0:08.775,3159,p,0,0,0
0:08.817,3174,),0,0,0
0:08.878,3196,(,0,0,1
0:08.992,3237,N,0,0,0
0:09.050,3258,),0,0,1
0:09.097,3275,(,0,0,2
0:09.225,3321,t,0,0,5
0:09.533,3432,t,0,0,5
0:09.575,3447,),0,0,2
0:09.706,3494,(,0,0,0
0:09.758,3513,p,0,0,0
0:09.797,3527,),0,0,0
0:09.900,3564,(,0,0,1
0:09.978,3592,N,0,0,0
0:10.031,3611,),0,0,1
0:10.103,3637,(,0,0,2
0:10.203,3673,t,0,0,5
0:10.467,3768,t,0,0,5
0:10.494,3778,),0,0,2
0:10.647,3833,(,0,0,0
0:10.689,3848,p,0,0,0
0:10.728,3862,),0,0,0
0:10.831,3899,(,0,0,1
0:10.897,3923,N,0,0,0
0:10.944,3940,),0,0,1
0:11.014,3965,(,0,0,2
0:11.111,4000,t,0,0,0
0:11.211,4036,),0,0,2
0:11.325,4077,(,0,0,1
0:11.400,4104,N,0,0,0
0:11.453,4123,),0,0,1
0:11.556,4160,(,0,0,2
0:11.614,4181,t,0,0,5
0:11.667,4200,t,0,0,5
0:11.744,4228,),0,0,2
0:12.528,4510,(,0,0,0
0:12.578,4528,p,0,0,0
0:12.617,4542,),0,0,0
0:12.703,4573,(,0,0,1
0:12.781,4601,N,0,0,0
0:12.836,4621,),0,0,1
0:12.922,4652,(,0,0,2
0:13.017,4686,t,0,0,5
0:13.322,4796,t,0,0,5
0:13.375,4815,),0,0,2
0:13.536,4873,(,0,0,0
0:13.578,4888,p,0,0,0
0:13.619,4903,),0,0,0
0:13.692,4929,(,0,0,1
0:13.806,4970,N,0,0,0
0:13.861,4990,),0,0,1
0:13.944,5020,(,0,0,2
0:14.056,5060,t,0,0,5
0:14.336,5161,t,0,0,5
0:14.375,5175,),0,0,2
0:14.586,5251,(,0,0,0
0:14.636,5269,p,0,0,0
0:14.675,5283,),0,0,0
0:14.794,5326,(,0,0,1
0:14.856,5348,N,0,0,0
0:14.906,5366,),0,0,1
0:14.967,5388,(,0,0,2
0:15.083,5430,t,0,0,0
0:15.328,5518,),0,0,2
0:15.625,5625,(,0,0,0
0:15.667,5640,p,0,0,0
0:15.706,5654,),0,0,0
0:15.814,5693,(,0,0,1
0:15.872,5714,N,0,0,0
0:15.922,5732,),0,0,1
0:16.131,5807,(,0,0,2
0:16.369,5893,t,0,0,1
0:16.453,5923,),0,0,2
0:16.711,6016,(,0,0,0
0:16.772,6038,p,0,0,0
0:16.814,6053,),0,0,0
0:16.914,6089,(,0,0,1
0:16.983,6114,N,0,0,0
0:17.028,6130,),0,0,1
0:17.133,6168,(,0,0,2
0:17.203,6193,t,0,0,0
0:17.303,6229,),0,0,2
0:17.750,6390,(,0,0,0
0:17.789,6404,p,0,0,0
0:17.831,6419,),0,0,0
0:17.942,6459,(,0,0,1
0:17.994,6478,N,0,0,0
0:18.039,6494,),0,0,1
0:18.117,6522,(,0,0,2
0:18.228,6562,t,0,0,0
0:18.342,6603,),0,0,2
0:18.856,6788,(,0,0,0
0:18.889,6800,p,0,0,0
0:18.931,6815,),0,0,0
0:18.953,6823,(,0,0,1
0:19.125,6885,N,0,0,0
0:19.186,6907,),0,0,1
0:19.272,6938,(,0,0,2
0:19.358,6969,t,0,0,0
0:19.511,7024,),0,0,2
0:19.981,7193,(,0,0,0
0:20.022,7208,p,0,0,0
0:20.061,7222,),0,0,0
0:20.119,7243,(,0,0,1
0:20.239,7286,N,0,0,0
0:20.300,7308,),0,0,1
0:20.394,7342,(,0,0,2
0:20.472,7370,t,0,0,5
0:20.794,7486,t,0,0,5
0:20.833,7500,),0,0,2
0:21.100,7596,(,0,0,0
0:21.139,7610,p,0,0,0
0:21.175,7623,),0,0,0
0:21.264,7655,(,0,0,1
0:21.350,7686,N,0,0,0
0:21.403,7705,),0,0,1
0:21.472,7730,(,0,0,2
0:21.581,7769,t,0,0,5
0:21.844,7864,t,0,0,5
0:21.961,7906,),0,0,2
0:22.131,7967,(,0,0,0
0:22.169,7981,p,0,0,0
0:22.208,7995,),0,0,0
0:22.325,8037,(,0,0,1
0:22.375,8055,N,0,0,0
0:22.422,8072,),0,0,1
0:23.142,8331,(,0,0,0
0:23.200,8352,p,0,0,0
0:23.239,8366,),0,0,0
0:23.361,8410,(,0,0,1
0:23.419,8431,N,0,0,0
0:23.467,8448,),0,0,1
0:23.578,8488,(,0,0,2
0:23.653,8515,t,0,0,5
0:23.917,8610,t,0,0,5
0:24.011,8644,),0,0,2
0:24.197,8711,(,0,0,0
0:24.242,8727,p,0,0,0
0:24.281,8741,),0,0,0
0:24.369,8773,(,0,0,1
0:24.453,8803,N,0,0,0
0:24.497,8819,),0,0,1
0:24.567,8844,(,0,0,2
0:24.672,8882,t,0,0,0
0:24.806,8930,),0,0,2
0:25.269,9097,(,0,0,0
0:25.314,9113,p,0,0,0
0:25.353,9127,),0,0,0
0:25.464,9167,(,0,0,1
0:25.542,9195,N,0,0,0
0:25.597,9215,),0,0,1
0:25.700,9252,(,0,0,2
0:25.792,9285,t,0,0,5
0:26.061,9382,t,0,0,5
0:26.186,9427,),0,0,2
0:26.347,9485,(,0,0,0
0:26.389,9500,p,0,0,0
0:26.431,9515,),0,0,0
0:26.494,9538,(,0,0,1
0:26.622,9584,N,0,0,0
0:26.681,9605,),0,0,1
0:27.414,9869,(,0,0,0
0:27.461,9886,p,0,0,0
0:27.503,9901,),0,0,0
0:27.564,9923,(,0,0,1
0:27.672,9962,N,0,0,0
0:27.736,9985,),0,0,1
0:28.036,10093,(,0,0,2
0:28.058,10101,t,0,0,0
0:28.081,10109,),0,0,2
0:28.164,10139,(,0,0,0
0:28.192,10149,p,0,0,0
0:28.217,10158,),0,0,0
0:28.367,10212,(,0,0,1
0:28.458,10245,N,0,0,0
0:28.561,10282,),0,0,1
0:28.628,10306,(,0,0,2
0:28.675,10323,t,0,0,1
0:28.722,10340,),0,0,2
0:29.456,10604,(,0,0,0
0:29.492,10617,p,0,0,0
0:29.531,10631,),0,0,0
0:29.572,10646,(,0,0,1
0:29.708,10695,N,0,0,0
0:29.764,10715,),0,0,1
0:29.767,10716,t,0,0,2
0:29.928,10774,),0,0,2
0:29.986,10795,(,0,0,0
0:30.075,10827,p,0,0,0
0:30.100,10836,),0,0,0
0:30.142,10851,(,0,0,1
0:30.208,10875,N,0,0,0
0:30.294,10906,),0,0,1
0:30.303,10909,(,0,0,2
0:30.419,10951,t,0,0,4
0:30.556,11000,t,0,0,4
0:30.597,11015,),0,0,2
0:31.547,11357,(,0,0,0
0:31.592,11373,p,0,0,0
0:31.633,11388,),0,0,0
0:31.722,11420,(,0,0,1
0:31.811,11452,N,0,0,0
0:31.864,11471,),0,0,1
0:32.275,11619,(,0,0,2
0:32.364,11651,t,0,0,1
0:32.428,11674,),0,0,2
0:32.572,11726,(,0,0,0
0:32.619,11743,p,0,0,0
0:32.658,11757,),0,0,0
0:32.769,11797,(,0,0,1
0:32.828,11818,N,0,0,0
0:32.878,11836,),0,0,1
0:32.964,11867,(,0,0,2
0:33.069,11905,t,0,0,5
0:33.431,12035,t,0,0,5
0:33.456,12044,),0,0,2
0:33.556,12080,(,0,0,0
0:33.597,12095,p,0,0,0
0:33.636,12109,),0,0,0
0:33.736,12145,(,0,0,1
0:33.814,12173,N,0,0,0
0:33.881,12197,),0,0,1
0:33.961,12226,(,0,0,2
0:34.042,12255,t,0,0,5
0:34.403,12385,t,0,0,5
0:34.447,12401,),0,0,2
0:34.494,12418,(,0,0,0
0:34.539,12434,p,0,0,0
0:34.575,12447,),0,0,0
0:34.661,12478,(,0,0,1
0:34.744,12508,N,0,0,0
0:34.797,12527,),0,0,1
0:34.881,12557,(,0,0,2
0:34.972,12590,t,0,0,5
0:35.372,12734,t,0,0,5
0:35.406,12746,),0,0,2
0:35.447,12761,(,0,0,0
0:35.494,12778,p,0,0,0
0:35.533,12792,),0,0,0
0:35.633,12828,(,0,0,1
0:35.708,12855,N,0,0,0
0:35.756,12872,),0,0,1
0:36.469,13129,(,0,0,0
0:36.531,13151,p,0,0,0
0:36.569,13165,),0,0,0
0:36.672,13202,(,0,0,1
0:36.764,13235,N,0,0,0
0:36.817,13254,),0,0,1
0:36.894,13282,(,0,0,2
0:37.000,13320,t,0,0,5
0:37.431,13475,t,0,0,5
0:37.464,13487,),0,0,2
0:37.642,13551,(,0,0,0
0:37.686,13567,p,0,0,0
0:37.728,13582,),0,0,0
0:37.828,13618,(,0,0,1
0:37.897,13643,N,0,0,0
0:37.950,13662,),0,0,1
0:38.000,13680,(,0,0,2
0:38.106,13718,t,0,0,5
0:38.447,13841,t,0,0,5
0:38.514,13865,),0,0,2
0:38.831,13979,(,0,0,0
0:38.875,13995,p,0,0,0
0:38.914,14009,),0,0,0
0:38.978,14032,(,0,0,1
0:39.089,14072,N,0,0,0
0:39.144,14092,),0,0,1
0:39.217,14118,(,0,0,2
0:39.319,14155,t,0,0,5
0:39.658,14277,t,0,0,5
0:39.692,14289,),0,0,2
0:39.936,14377,(,0,0,0
0:39.978,14392,p,0,0,0
0:40.017,14406,),0,0,0
0:40.114,14441,(,0,0,1
0:40.186,14467,N,0,0,0
0:40.239,14486,),0,0,1
0:40.317,14514,(,0,0,2
0:40.422,14552,t,0,0,0
0:40.522,14588,),0,0,2
0:40.994,14758,(,0,0,0
0:41.033,14772,p,0,0,0
0:41.072,14786,),0,0,0
0:41.111,14800,(,0,0,1
0:41.239,14846,N,0,0,0
0:41.292,14865,),0,0,1
0:42.022,15128,(,0,0,0
0:42.064,15143,p,0,0,0
0:42.103,15157,),0,0,0
0:42.206,15194,(,0,0,1
0:42.281,15221,N,0,0,0
0:42.336,15241,),0,0,1
0:42.447,15281,(,0,0,2
0:42.514,15305,t,0,0,5
0:42.831,15419,t,0,0,5
0:42.869,15433,),0,0,2
0:43.100,15516,(,0,0,0
0:43.153,15535,p,0,0,0
0:43.194,15550,),0,0,0
0:43.322,15596,(,0,0,1
0:43.386,15619,N,0,0,0
0:43.436,15637,),0,0,1
0:43.550,15678,(,0,0,2
0:43.617,15702,t,0,0,5
0:44.017,15846,t,0,0,5
0:44.061,15862,),0,0,2
0:44.225,15921,(,0,0,0
0:44.275,15939,p,0,0,0
0:44.314,15953,),0,0,0
0:44.350,15966,(,0,0,1
0:44.492,16017,N,0,0,0
0:44.542,16035,),0,0,1
0:44.614,16061,(,0,0,2
0:44.714,16097,t,0,0,5
0:45.019,16207,t,0,0,5
0:45.050,16218,),0,0,2
0:45.306,16310,(,0,0,0
0:45.350,16326,p,0,0,0
0:45.389,16340,),0,0,0
0:45.481,16373,(,0,0,1
0:45.558,16401,N,0,0,0
0:45.608,16419,),0,0,1
0:45.706,16454,(,0,0,2
0:45.786,16483,t,0,0,5
0:46.069,16585,t,0,0,5
0:46.103,16597,),0,0,2
0:46.375,16695,(,0,0,0
0:46.417,16710,p,0,0,0
0:46.456,16724,),0,0,0
0:46.558,16761,(,0,0,1
0:46.631,16787,N,0,0,0
0:46.697,16811,),0,0,1
0:46.756,16832,(,0,0,2
0:46.864,16871,t,0,0,5
0:47.133,16968,t,0,0,5
0:47.208,16995,),0,0,2
0:47.411,17068,(,0,0,0
0:47.456,17084,p,0,0,0
0:47.494,17098,),0,0,0
0:47.539,17114,(,0,0,1
0:47.667,17160,N,0,0,0
0:47.719,17179,),0,0,1
0:47.806,17210,(,0,0,2
0:47.889,17240,t,0,0,5
0:48.378,17416,t,0,0,5
0:48.411,17428,),0,0,2
0:48.447,17441,(,0,0,0
0:48.494,17458,p,0,0,0
0:48.533,17472,),0,0,0
0:48.628,17506,(,0,0,1
0:48.703,17533,N,0,0,0
0:48.753,17551,),0,0,1
0:48.792,17565,(,0,0,2
0:48.806,17570,t,0,0,4
0:48.944,17620,t,0,0,4
0:49.058,17661,),0,0,2
0:49.675,17883,(,0,0,0
0:49.681,17885,p,0,0,0
0:49.797,17927,),0,0,0
0:49.808,17931,N,0,0,0
0:49.808,17931,(,0,0,1
0:49.925,17973,),0,0,1
0:50.058,18021,(,0,0,2
0:50.089,18032,t,0,0,5
0:50.481,18173,t,0,0,5
0:50.503,18181,),0,0,2
0:50.633,18228,(,0,0,0
0:50.683,18246,p,0,0,0
0:50.725,18261,),0,0,0
0:50.828,18298,(,0,0,1
0:50.906,18326,N,0,0,0
0:50.953,18343,),0,0,1
0:51.067,18384,(,0,0,2
0:51.078,18388,t,0,0,4
0:51.167,18420,t,0,0,4
0:51.217,18438,),0,0,2
0:51.639,18590,(,0,0,0
0:51.681,18605,p,0,0,0
0:51.725,18621,),0,0,0
0:51.811,18652,(,0,0,1
0:51.900,18684,N,0,0,0
0:51.956,18704,),0,0,1
0:52.000,18720,(,0,0,2
0:52.017,18726,t,0,0,4
0:52.167,18780,t,0,0,4
0:52.208,18795,),0,0,2
0:52.653,18955,(,0,0,0
0:52.692,18969,p,0,0,0
0:52.731,18983,),0,0,0
0:52.814,19013,(,0,0,1
0:52.900,19044,N,0,0,0
0:52.942,19059,),0,0,1
0:53.039,19094,(,0,0,2
0:53.056,19100,t,0,0,4
0:53.267,19176,t,0,0,4
0:53.336,19201,),0,0,2
0:53.642,19311,(,0,0,0
0:53.703,19333,p,0,0,0
0:53.742,19347,),0,0,0
0:53.856,19388,(,0,0,1
0:53.933,19416,N,0,0,0
0:54.144,19492,),0,0,1
0:54.719,19699,(,0,0,0
0:54.775,19719,p,0,0,0
0:54.819,19735,),0,0,0
0:54.853,19747,(,0,0,1
0:55.000,19800,N,0,0,0
0:55.069,19825,),0,0,1
0:55.253,19891,(,0,0,2
0:55.436,19957,t,0,0,1
0:55.539,19994,),0,0,2
0:55.817,20094,(,0,0,0
0:55.861,20110,p,0,0,0
0:55.900,20124,),0,0,0
0:55.903,20125,(,0,0,1
0:56.086,20191,N,0,0,0
0:56.144,20212,),0,0,1
0:56.208,20235,(,0,0,2
0:56.347,20285,t,0,0,5
0:56.656,20396,t,0,0,5
0:56.733,20424,),0,0,2
0:56.922,20492,(,0,0,0
0:56.969,20509,p,0,0,0
0:57.006,20522,),0,0,0
0:57.014,20525,(,0,0,1
0:57.181,20585,N,0,0,0
0:57.231,20603,),0,0,1
0:57.322,20636,(,0,0,2
0:57.383,20658,t,0,0,0
0:57.489,20696,),0,0,2
0:57.928,20854,(,0,0,0
0:57.969,20869,p,0,0,0
0:58.006,20882,),0,0,0
0:58.022,20888,(,0,0,1
0:58.169,20941,N,0,0,0
0:58.214,20957,),0,0,1
0:58.344,21004,),0,0,2
0:58.381,21017,t,0,0,1
0:58.417,21030,(,0,0,2
0:58.919,21211,(,0,0,0
0:58.964,21227,p,0,0,0
0:59.006,21242,),0,0,0
0:59.050,21258,(,0,0,1
0:59.186,21307,N,0,0,0
0:59.222,21320,),0,0,1
0:59.372,21374,(,0,0,2
0:59.442,21399,t,0,0,0
0:59.644,21472,),0,0,2
0:59.953,21583,(,0,0,0
0:59.989,21596,p,0,0,0
1:00.033,21612,),0,0,0
1:00.114,21641,(,0,0,1
1:00.211,21676,N,0,0,0
1:00.267,21696,),0,0,1
1:00.342,21723,(,0,0,2
1:00.456,21764,t,0,0,5
1:00.736,21865,t,0,0,5
1:00.775,21879,),0,0,2
1:01.006,21962,(,0,0,0
1:01.044,21976,p,0,0,0
1:01.083,21990,),0,0,0
1:01.114,22001,(,0,0,1
1:01.258,22053,N,0,0,0
1:01.311,22072,),0,0,1
1:02.036,22333,(,0,0,0
1:02.081,22349,p,0,0,0
1:02.122,22364,),0,0,0
1:02.239,22406,(,0,0,1
1:02.294,22426,N,0,0,0
1:02.347,22445,),0,0,1
1:03.050,22698,(,0,0,0
1:03.097,22715,p,0,0,0
1:03.136,22729,),0,0,0
1:03.206,22754,(,0,0,1
1:03.317,22794,N,0,0,0
1:03.381,22817,),0,0,1
1:03.500,22860,(,0,0,2
1:03.567,22884,t,0,0,5
1:03.828,22978,t,0,0,5
1:03.933,23016,),0,0,2
1:04.156,23096,(,0,0,0
1:04.197,23111,p,0,0,0
1:04.236,23125,),0,0,0
1:04.339,23162,(,0,0,1
1:04.411,23188,N,0,0,0
1:04.467,23208,),0,0,1
1:04.533,23232,(,0,0,2
1:04.636,23269,t,0,0,5
1:04.903,23365,t,0,0,5
1:04.967,23388,),0,0,2
1:05.333,23520,(,0,0,0
1:05.375,23535,p,0,0,0
1:05.411,23548,),0,0,0
1:05.511,23584,(,0,0,1
1:05.581,23609,N,0,0,0
1:05.636,23629,),0,0,1
1:05.742,23667,(,0,0,2
1:05.822,23696,t,0,0,5
1:06.119,23803,t,0,0,5
1:06.167,23820,),0,0,2
1:06.500,23940,(,0,0,0
1:06.542,23955,p,0,0,0
1:06.583,23970,),0,0,0
1:06.689,24008,(,0,0,1
1:06.767,24036,N,0,0,0
1:06.822,24056,),0,0,1
1:06.889,24080,(,0,0,2
1:07.022,24128,t,0,0,5
1:07.406,24266,t,0,0,5
1:07.447,24281,),0,0,2
1:07.653,24355,(,0,0,0
1:07.700,24372,p,0,0,0
1:07.739,24386,),0,0,0
1:07.842,24423,(,0,0,1
1:07.925,24453,N,0,0,0
1:07.975,24471,),0,0,1
1:08.097,24515,(,0,0,2
1:08.158,24537,t,0,0,5
1:08.450,24642,t,0,0,5
1:08.539,24674,),0,0,2
1:08.769,24757,(,0,0,0
1:08.814,24773,p,0,0,0
1:08.850,24786,),0,0,0
1:08.928,24814,(,0,0,1
1:09.025,24849,N,0,0,0
1:09.078,24868,),0,0,1
1:09.831,25139,(,0,0,0
1:09.875,25155,p,0,0,0
1:09.914,25169,),0,0,0
1:09.964,25187,(,0,0,1
1:10.086,25231,N,0,0,0
1:10.147,25253,),0,0,1
1:10.250,25290,(,0,0,2
1:10.319,25315,t,0,0,5
1:10.614,25421,t,0,0,5
1:10.675,25443,),0,0,2
1:10.886,25519,(,0,0,0
1:10.939,25538,p,0,0,0
1:10.978,25552,),0,0,0
1:11.072,25586,(,0,0,1
1:11.156,25616,N,0,0,0
1:11.206,25634,),0,0,1
1:11.269,25657,(,0,0,2
1:11.386,25699,t,0,0,5
1:11.667,25800,t,0,0,5
1:11.717,25818,),0,0,2
1:11.933,25896,(,0,0,0
1:11.978,25912,p,0,0,0
1:12.017,25926,),0,0,0
1:12.122,25964,(,0,0,1
1:12.194,25990,N,0,0,0
1:12.250,26010,),0,0,1
1:12.322,26036,(,0,0,2
1:12.417,26070,t,0,0,5
1:12.775,26199,t,0,0,5
1:12.850,26226,),0,0,2
1:13.033,26292,(,0,0,0
1:13.072,26306,p,0,0,0
1:13.111,26320,),0,0,0
1:13.156,26336,(,0,0,1
1:13.292,26385,N,0,0,0
1:13.344,26404,),0,0,1
1:13.453,26443,(,0,0,2
1:13.542,26475,t,0,0,5
1:13.847,26585,t,0,0,5
1:13.933,26616,),0,0,2
1:14.133,26688,(,0,0,0
1:14.178,26704,p,0,0,0
1:14.219,26719,),0,0,0
1:14.325,26757,(,0,0,1
1:14.406,26786,N,0,0,0
1:14.461,26806,),0,0,1
1:14.533,26832,(,0,0,2
1:14.661,26878,t,0,0,5
1:14.936,26977,t,0,0,5
1:15.003,27001,),0,0,2
1:15.233,27084,(,0,0,0
1:15.278,27100,p,0,0,0
1:15.322,27116,),0,0,0
1:15.422,27152,(,0,0,1
1:15.500,27180,N,0,0,0
1:15.550,27198,),0,0,1
1:15.639,27230,(,0,0,2
1:15.722,27260,t,0,0,5
1:15.983,27354,t,0,0,5
1:16.028,27370,),0,0,2
1:16.256,27452,(,0,0,0
1:16.300,27468,p,0,0,0
1:16.336,27481,),0,0,0
1:16.439,27518,(,0,0,1
1:16.511,27544,N,0,0,0
1:16.564,27563,),0,0,1
1:16.650,27594,(,0,0,2
1:16.756,27632,t,0,0,5
1:17.067,27744,t,0,0,5
1:17.108,27759,),0,0,2
1:17.319,27835,(,0,0,0
1:17.361,27850,p,0,0,0
1:17.400,27864,),0,0,0
1:17.450,27882,(,0,0,1
1:17.569,27925,N,0,0,0
1:17.622,27944,),0,0,1
1:18.386,28219,(,0,0,0
1:18.433,28236,p,0,0,0
1:18.472,28250,),0,0,0
1:18.569,28285,(,0,0,1
1:18.644,28312,N,0,0,0
1:18.700,28332,),0,0,1
1:18.819,28375,(,0,0,2
1:18.881,28397,t,0,0,5
1:19.156,28496,t,0,0,5
1:19.269,28537,),0,0,2
1:19.483,28614,(,0,0,0
1:19.533,28632,p,0,0,0
1:19.578,28648,),0,0,0
1:19.686,28687,(,0,0,1
1:19.767,28716,N,0,0,0
1:19.817,28734,),0,0,1
1:19.892,28761,(,0,0,2
1:20.008,28803,t,0,0,5
1:20.428,28954,t,0,0,5
1:20.461,28966,),0,0,2
1:20.561,29002,(,0,0,0
1:20.608,29019,p,0,0,0
1:20.650,29034,),0,0,0
1:20.708,29055,(,0,0,1
1:20.831,29099,N,0,0,0
1:20.881,29117,),0,0,1
1:20.944,29140,(,0,0,2
1:21.061,29182,t,0,0,5
1:21.361,29290,t,0,0,5
1:21.444,29320,),0,0,2
1:21.575,29367,(,0,0,0
1:21.619,29383,p,0,0,0
1:21.658,29397,),0,0,0
1:21.750,29430,(,0,0,1
1:21.817,29454,N,0,0,0
1:21.869,29473,),0,0,1
1:21.950,29502,(,0,0,2
1:22.042,29535,t,0,0,0
1:22.181,29585,),0,0,2
1:22.517,29706,(,0,0,0
1:22.556,29720,p,0,0,0
1:22.594,29734,),0,0,0
1:22.692,29769,(,0,0,1
1:22.764,29795,N,0,0,0
1:22.814,29813,),0,0,1
1:22.869,29833,(,0,0,2
1:22.992,29877,t,0,0,5
1:23.264,29975,t,0,0,5
1:23.297,29987,),0,0,2
1:23.483,30054,(,0,0,0
1:23.528,30070,p,0,0,0
1:23.567,30084,),0,0,0
1:23.625,30105,(,0,0,1
1:23.747,30149,N,0,0,0
1:23.803,30169,),0,0,1
1:23.903,30205,(,0,0,2
1:23.992,30237,t,0,0,5
1:24.467,30408,t,0,0,5
1:24.494,30418,),0,0,2
1:24.564,30443,(,0,0,0
1:24.611,30460,p,0,0,0
1:24.650,30474,),0,0,0
1:24.739,30506,(,0,0,1
1:24.847,30545,N,0,0,0
1:24.897,30563,),0,0,1
1:24.958,30585,(,0,0,2
1:25.089,30632,t,0,0,5
1:25.361,30730,t,0,0,5
1:25.458,30765,),0,0,2
1:25.783,30882,(,0,0,0
1:25.825,30897,p,0,0,0
1:25.864,30911,),0,0,0
1:25.969,30949,(,0,0,1
1:26.042,30975,N,0,0,0
1:26.097,30995,),0,0,1
1:26.192,31029,(,0,0,2
1:26.289,31064,t,0,0,5
1:26.597,31175,t,0,0,5
1:26.639,31190,),0,0,2
1:27.008,31323,(,0,0,0
1:27.053,31339,p,0,0,0
1:27.092,31353,),0,0,0
1:27.167,31380,(,0,0,1
1:27.275,31419,N,0,0,0
1:27.333,31440,),0,0,1
1:27.414,31469,(,0,0,2
1:27.519,31507,t,0,0,5
1:27.989,31676,t,0,0,5
1:28.022,31688,),0,0,2
1:28.250,31770,(,0,0,0
1:28.289,31784,p,0,0,0
1:28.328,31798,),0,0,0
1:28.417,31830,(,0,0,1
1:28.486,31855,N,0,0,0
1:28.536,31873,),0,0,1
1:28.628,31906,(,0,0,2
1:28.714,31937,t,0,0,0
1:28.806,31970,),0,0,2
1:29.367,32172,(,0,0,0
1:29.408,32187,p,0,0,0
1:29.447,32201,),0,0,0
1:29.497,32219,(,0,0,1
1:29.617,32262,N,0,0,0
1:29.667,32280,),0,0,1
1:29.744,32308,(,0,0,2
1:29.867,32352,t,0,0,5
1:30.153,32455,t,0,0,5
1:30.211,32476,),0,0,2
1:30.544,32596,(,0,0,0
1:30.592,32613,p,0,0,0
1:30.633,32628,),0,0,0
1:30.733,32664,(,0,0,1
1:30.825,32697,N,0,0,0
1:30.878,32716,),0,0,1
1:30.961,32746,(,0,0,2
1:31.075,32787,t,0,0,5
1:31.353,32887,t,0,0,5
1:31.481,32933,),0,0,2
1:31.742,33027,(,0,0,0
1:31.786,33043,p,0,0,0
1:31.828,33058,),0,0,0
1:31.931,33095,(,0,0,1
1:32.000,33120,N,0,0,0
1:32.053,33139,),0,0,1
1:32.125,33165,(,0,0,2
1:32.250,33210,t,0,0,5
1:32.506,33302,t,0,0,5
1:32.550,33318,),0,0,2
1:32.833,33420,(,0,0,0
1:32.872,33434,p,0,0,0
1:32.908,33447,),0,0,0
1:32.981,33473,(,0,0,1
1:33.089,33512,N,0,0,0
1:33.142,33531,),0,0,1
1:33.242,33567,(,0,0,2
1:33.333,33600,t,0,0,5
1:33.600,33696,t,0,0,5
1:33.639,33710,),0,0,2
1:33.878,33796,(,0,0,0
1:33.914,33809,p,0,0,0
1:33.956,33824,),0,0,0
1:34.033,33852,(,0,0,1
1:34.133,33888,N,0,0,0
1:34.206,33914,),0,0,1
1:34.292,33945,(,0,0,2
1:34.369,33973,t,0,0,5
1:34.794,34126,t,0,0,5
1:34.817,34134,),0,0,2
1:34.917,34170,(,0,0,0
1:34.958,34185,p,0,0,0
1:34.997,34199,),0,0,0
1:35.086,34231,(,0,0,1
1:35.164,34259,N,0,0,0
1:35.206,34274,),0,0,1
1:35.297,34307,(,0,0,2
1:35.392,34341,t,0,0,0
1:35.508,34383,),0,0,2
1:35.931,34535,(,0,0,0
1:35.969,34549,p,0,0,0
1:36.006,34562,),0,0,0
1:36.056,34580,(,0,0,1
1:36.178,34624,N,0,0,0
1:36.233,34644,),0,0,1
1:36.353,34687,(,0,0,2
1:36.419,34711,t,0,0,5
1:36.742,34827,t,0,0,5
1:36.825,34857,),0,0,2
1:36.997,34919,(,0,0,0
1:37.039,34934,p,0,0,0
1:37.081,34949,),0,0,0
1:37.164,34979,(,0,0,1
1:37.272,35018,N,0,0,0
1:37.328,35038,),0,0,1
1:37.411,35068,(,0,0,2
1:37.536,35113,t,0,0,5
1:37.883,35238,t,0,0,5
1:37.914,35249,),0,0,2
1:38.106,35318,(,0,0,0
1:38.144,35332,p,0,0,0
1:38.183,35346,),0,0,0
1:38.286,35383,(,0,0,1
1:38.369,35413,N,0,0,0
1:38.422,35432,),0,0,1
1:38.514,35465,(,0,0,2
1:38.614,35501,t,0,0,5
1:38.897,35603,t,0,0,5
1:38.967,35628,),0,0,2
1:39.081,35669,(,0,0,0
1:39.128,35686,p,0,0,0
1:39.167,35700,),0,0,0
1:39.269,35737,(,0,0,1
1:39.344,35764,N,0,0,0
1:39.400,35784,),0,0,1
1:39.472,35810,(,0,0,2
1:39.575,35847,t,0,0,0
1:39.675,35883,),0,0,2
1:40.075,36027,(,0,0,0
1:40.117,36042,p,0,0,0
1:40.156,36056,),0,0,0
1:40.200,36072,(,0,0,1
1:40.317,36114,N,0,0,0
1:40.367,36132,),0,0,1
1:40.431,36155,(,0,0,2
1:40.536,36193,t,0,0,5
1:40.822,36296,t,0,0,5
1:40.889,36320,),0,0,2
1:41.047,36377,(,0,0,0
1:41.092,36393,p,0,0,0
1:41.131,36407,),0,0,0
1:41.222,36440,(,0,0,1
1:41.311,36472,N,0,0,0
1:41.364,36491,),0,0,1
1:41.444,36520,(,0,0,2
1:41.547,36557,t,0,0,5
1:41.831,36659,t,0,0,5
1:41.922,36692,),0,0,2
1:42.083,36750,(,0,0,0
1:42.131,36767,p,0,0,0
1:42.172,36782,),0,0,0
1:42.264,36815,(,0,0,1
1:42.356,36848,N,0,0,0
1:42.408,36867,),0,0,1
1:42.497,36899,(,0,0,2
1:42.603,36937,t,0,0,5
1:42.911,37048,t,0,0,5
1:42.944,37060,),0,0,2
1:43.319,37195,(,0,0,0
1:43.372,37214,p,0,0,0
1:43.411,37228,),0,0,0
1:43.519,37267,(,0,0,1
1:43.600,37296,N,0,0,0
1:43.661,37318,),0,0,1
1:44.683,37686,(,0,0,0
1:44.728,37702,p,0,0,0
1:44.767,37716,),0,0,0
1:44.872,37754,(,0,0,1
1:44.947,37781,N,0,0,0
1:45.000,37800,),0,0,1
1:45.131,37847,(,0,0,2
1:45.186,37867,t,0,0,0
1:45.311,37912,),0,0,2
1:45.856,38108,(,0,0,0
1:45.894,38122,p,0,0,0
1:45.933,38136,),0,0,0
1:46.033,38172,(,0,0,1
1:46.103,38197,N,0,0,0
1:46.156,38216,),0,0,1
1:46.197,38231,(,0,0,2
1:46.322,38276,t,0,0,5
1:46.622,38384,t,0,0,5
1:46.686,38407,),0,0,2
1:46.944,38500,(,0,0,0
1:46.989,38516,p,0,0,0
1:47.025,38529,),0,0,0
1:47.119,38563,(,0,0,1
1:47.192,38589,N,0,0,0
1:47.244,38608,),0,0,1
1:47.361,38650,(,0,0,2
1:47.431,38675,t,0,0,0
1:47.542,38715,),0,0,2
1:48.025,38889,(,0,0,0
1:48.075,38907,p,0,0,0
1:48.117,38922,),0,0,0
1:48.219,38959,(,0,0,1
1:48.306,38990,N,0,0,0
1:48.361,39010,),0,0,1
1:48.464,39047,(,0,0,2
1:48.544,39076,t,0,0,0
1:48.661,39118,),0,0,2
1:49.147,39293,(,0,0,0
1:49.194,39310,p,0,0,0
1:49.236,39325,),0,0,0
1:49.336,39361,(,0,0,1
1:49.408,39387,N,0,0,0
1:49.469,39409,),0,0,1
1:49.528,39430,(,0,0,2
1:49.653,39475,t,0,0,5
1:49.925,39573,t,0,0,5
1:50.031,39611,),0,0,2
1:50.219,39679,(,0,0,0
1:50.267,39696,p,0,0,0
1:50.308,39711,),0,0,0
1:50.394,39742,(,0,0,1
1:50.497,39779,N,0,0,0
1:50.553,39799,),0,0,1
1:50.647,39833,(,0,0,2
1:50.744,39868,t,0,0,5
1:51.078,39988,t,0,0,5
1:51.119,40003,),0,0,2
1:51.325,40077,(,0,0,0
1:51.369,40093,p,0,0,0
1:51.408,40107,),0,0,0
1:51.500,40140,(,0,0,1
1:51.583,40170,N,0,0,0
1:51.633,40188,),0,0,1
1:51.686,40207,(,0,0,2
1:51.811,40252,t,0,0,5
1:52.094,40354,t,0,0,5
1:52.147,40373,),0,0,2
1:52.342,40443,(,0,0,0
1:52.386,40459,p,0,0,0
1:52.425,40473,),0,0,0
1:52.517,40506,(,0,0,1
1:52.603,40537,N,0,0,0
1:52.658,40557,),0,0,1
1:52.736,40585,(,0,0,2
1:52.828,40618,t,0,0,0
1:52.922,40652,),0,0,2
1:53.400,40824,(,0,0,0
1:53.447,40841,p,0,0,0
1:53.486,40855,),0,0,0
1:53.581,40889,(,0,0,1
1:53.650,40914,N,0,0,0
1:53.700,40932,),0,0,1
1:53.775,40959,(,0,0,2
1:53.878,40996,t,0,0,5
1:54.161,41098,t,0,0,5
1:54.186,41107,),0,0,2
1:54.467,41208,(,0,0,0
1:54.511,41224,p,0,0,0
1:54.550,41238,),0,0,0
1:54.661,41278,(,0,0,1
1:54.742,41307,N,0,0,0
1:54.794,41326,),0,0,1
1:55.556,41600,(,0,0,0
1:55.603,41617,p,0,0,0
1:55.647,41633,),0,0,0
1:55.753,41671,(,0,0,1
1:55.833,41700,N,0,0,0
1:55.889,41720,),0,0,1
1:56.647,41993,(,0,0,0
1:56.697,42011,p,0,0,0
1:56.736,42025,),0,0,0
1:56.842,42063,(,0,0,1
1:56.919,42091,N,0,0,0
1:57.061,42142,),0,0,1
1:57.133,42168,(,0,0,2
1:57.164,42179,t,0,0,5
1:57.478,42292,t,0,0,5
1:57.511,42304,),0,0,2
1:57.711,42376,(,0,0,0
1:57.753,42391,p,0,0,0
1:57.792,42405,),0,0,0
1:57.861,42430,(,0,0,1
1:57.964,42467,N,0,0,0
1:58.017,42486,),0,0,1
1:58.067,42504,(,0,0,2
1:58.200,42552,t,0,0,5
1:58.453,42643,t,0,0,5
1:58.522,42668,),0,0,2
1:58.747,42749,(,0,0,0
1:58.786,42763,p,0,0,0
1:58.825,42777,),0,0,0
1:58.914,42809,(,0,0,1
1:58.994,42838,N,0,0,0
1:59.042,42855,),0,0,1
1:59.092,42873,(,0,0,2
1:59.119,42883,t,0,0,4
1:59.222,42920,t,0,0,4
1:59.306,42950,),0,0,2
1:59.786,43123,(,0,0,0
1:59.825,43137,p,0,0,0
1:59.864,43151,),0,0,0
1:59.928,43174,(,0,0,1
2:00.058,43221,N,0,0,0
2:00.103,43237,),0,0,1
2:00.528,43390,(,0,0,2
2:00.556,43400,t,0,0,1
2:00.586,43411,),0,0,2
2:00.864,43511,(,0,0,0
2:00.928,43534,p,0,0,0
2:00.969,43549,),0,0,0
2:01.064,43583,(,0,0,1
2:01.158,43617,N,0,0,0
2:01.197,43631,),0,0,1
2:01.333,43680,(,0,0,2
2:01.444,43720,t,0,0,0
2:01.536,43753,),0,0,2
2:01.969,43909,(,0,0,0
2:02.019,43927,p,0,0,0
2:02.058,43941,),0,0,0
2:02.106,43958,(,0,0,1
2:02.242,44007,N,0,0,0
2:02.286,44023,),0,0,1
2:02.472,44090,),0,0,2
2:02.578,44128,t,0,0,1
2:02.683,44166,(,0,0,2
2:03.047,44297,(,0,0,0
2:03.094,44314,p,0,0,0
2:03.131,44327,),0,0,0
2:03.186,44347,(,0,0,1
2:03.306,44390,N,0,0,0
2:03.447,44441,),0,0,1
2:03.511,44464,),0,0,2
2:03.558,44481,t,0,0,1
2:03.606,44498,(,0,0,2
2:04.103,44677,(,0,0,0
2:04.158,44697,p,0,0,0
2:04.197,44711,),0,0,0
2:04.256,44732,(,0,0,1
2:04.378,44776,N,0,0,0
2:04.425,44793,),0,0,1
2:05.144,45052,(,0,0,0
2:05.197,45071,p,0,0,0
2:05.233,45084,),0,0,0
2:05.314,45113,(,0,0,1
2:05.406,45146,N,0,0,0
2:05.450,45162,),0,0,1
2:05.644,45232,(,0,0,2
2:05.822,45296,t,0,0,1
2:05.944,45340,),0,0,2
2:06.178,45424,(,0,0,0
2:06.214,45437,p,0,0,0
2:06.253,45451,),0,0,0
2:06.381,45497,(,0,0,1
2:06.436,45517,N,0,0,0
2:06.539,45554,),0,0,1
2:06.853,45667,),0,0,2
2:07.036,45733,t,0,0,0
2:07.217,45798,(,0,0,2
2:07.222,45800,(,0,0,0
2:07.267,45816,p,0,0,0
2:07.311,45832,),0,0,0
2:07.425,45873,(,0,0,1
2:07.514,45905,N,0,0,0
2:07.558,45921,),0,0,1
2:07.933,46056,(,0,0,2
2:08.106,46118,t,0,0,1
2:08.258,46173,),0,0,2
2:08.353,46207,(,0,0,0
2:08.400,46224,p,0,0,0
2:08.439,46238,),0,0,0
2:08.533,46272,(,0,0,1
2:08.564,46283,N,0,0,0
2:08.664,46319,),0,0,1
2:08.792,46365,(,0,0,2
2:08.861,46390,t,0,0,0
2:09.108,46479,),0,0,2
2:09.353,46567,(,0,0,0
2:09.394,46582,p,0,0,0
2:09.433,46596,),0,0,0
2:09.506,46622,(,0,0,1
2:09.611,46660,N,0,0,0
2:09.653,46675,),0,0,1
2:09.867,46752,(,0,0,2
2:10.028,46810,t,0,0,1
2:10.167,46860,),0,0,2
2:10.322,46916,(,0,0,0
2:10.350,46926,p,0,0,0
2:10.383,46938,),0,0,0
2:10.428,46954,(,0,0,1
2:10.531,46991,N,0,0,0
2:10.614,47021,),0,0,1
2:10.933,47136,(,0,0,2
2:11.064,47183,t,0,0,1
2:11.181,47225,),0,0,2
2:11.250,47250,(,0,0,0
2:11.303,47269,p,0,0,0
2:11.342,47283,),0,0,0
2:11.389,47300,(,0,0,1
2:11.494,47338,N,0,0,0
2:11.567,47364,),0,0,1
2:11.744,47428,(,0,0,2
2:11.808,47451,t,0,0,0
2:11.961,47506,),0,0,2
2:12.294,47626,(,0,0,0
2:12.342,47643,p,0,0,0
2:12.381,47657,),0,0,0
2:12.450,47682,(,0,0,1
2:12.536,47713,N,0,0,0
2:12.617,47742,),0,0,1
2:13.175,47943,(,0,0,2
2:13.219,47959,t,0,0,4
2:13.331,47999,t,0,0,4
2:13.367,48012,),0,0,2
2:13.611,48100,(,0,0,0
2:13.644,48112,p,0,0,0
2:13.686,48127,),0,0,0
2:13.761,48154,(,0,0,1
2:13.822,48176,N,0,0,0
2:13.906,48206,),0,0,1
2:14.111,48280,(,0,0,2
2:14.186,48307,t,0,0,0
2:14.258,48333,),0,0,2
2:14.833,48540,(,0,0,0
2:14.875,48555,p,0,0,0
2:14.914,48569,),0,0,0
2:14.975,48591,(,0,0,1
2:15.067,48624,N,0,0,0
2:15.153,48655,),0,0,1
2:15.681,48845,(,0,0,2
2:15.706,48854,t,0,0,0
2:15.736,48865,),0,0,2
2:15.869,48913,(,0,0,0
2:15.928,48934,p,0,0,0
2:15.958,48945,),0,0,0
2:16.017,48966,(,0,0,1
2:16.097,48995,N,0,0,0
2:16.169,49021,),0,0,1
2:16.686,49207,(,0,0,2
2:16.711,49216,t,0,0,1
2:16.739,49226,),0,0,2
2:16.942,49299,(,0,0,0
2:16.975,49311,p,0,0,0
2:17.011,49324,),0,0,0
2:17.139,49370,(,0,0,1
2:17.200,49392,N,0,0,0
2:17.244,49408,),0,0,1
2:17.639,49550,(,0,0,2
2:17.703,49573,t,0,0,1
2:17.767,49596,),0,0,2
2:18.014,49685,(,0,0,0
2:18.050,49698,p,0,0,0
2:18.094,49714,),0,0,0
2:18.181,49745,(,0,0,1
2:18.281,49781,N,0,0,0
2:18.331,49799,),0,0,1
2:18.403,49825,(,0,0,2
2:18.631,49907,t,0,0,0
2:18.733,49944,),0,0,2
2:19.094,50074,(,0,0,0
2:19.142,50091,p,0,0,0
2:19.183,50106,),0,0,0
2:19.281,50141,(,0,0,1
2:19.378,50176,N,0,0,0
2:19.419,50191,),0,0,1
2:19.497,50219,(,0,0,2
2:19.508,50223,t,0,0,4
2:19.644,50272,t,0,0,4
2:19.678,50284,),0,0,2
2:20.144,50452,(,0,0,0
2:20.186,50467,p,0,0,0
2:20.222,50480,),0,0,0
2:20.281,50501,(,0,0,1
2:20.397,50543,N,0,0,0
2:20.442,50559,),0,0,1
2:20.533,50592,(,0,0,2
2:20.689,50648,t,0,0,0
2:20.767,50676,),0,0,2
2:21.150,50814,(,0,0,0
2:21.206,50834,p,0,0,0
2:21.242,50847,),0,0,0
2:21.344,50884,(,0,0,1
2:21.422,50912,N,0,0,0
2:21.472,50930,),0,0,1
2:21.642,50991,(,0,0,2
2:21.714,51017,t,0,0,0
2:21.875,51075,),0,0,2
2:22.153,51175,(,0,0,0
2:22.200,51192,p,0,0,0
2:22.233,51204,),0,0,0
2:22.328,51238,(,0,0,1
2:22.406,51266,N,0,0,0
2:22.447,51281,),0,0,1
2:22.536,51313,(,0,0,2
2:22.628,51346,t,0,0,0
2:22.717,51378,),0,0,2
2:23.144,51532,(,0,0,0
2:23.178,51544,p,0,0,0
2:23.217,51558,),0,0,0
2:23.267,51576,(,0,0,1
2:23.394,51622,N,0,0,0
2:23.428,51634,),0,0,1
2:23.597,51695,(,0,0,2
2:23.642,51711,t,0,0,0
2:23.692,51729,),0,0,2
2:24.181,51905,(,0,0,0
2:24.233,51924,p,0,0,0
2:24.281,51941,),0,0,0
2:24.403,51985,(,0,0,1
2:24.467,52008,N,0,0,0
2:24.503,52021,),0,0,1
2:25.278,52300,(,0,0,0
2:25.331,52319,p,0,0,0
2:25.367,52332,),0,0,0
2:25.383,52338,(,0,0,1
2:25.544,52396,N,0,0,0
2:25.600,52416,),0,0,1
2:25.697,52451,(,0,0,2
2:25.781,52481,t,0,0,0
2:25.844,52504,),0,0,2
2:26.331,52679,(,0,0,0
2:26.369,52693,p,0,0,0
2:26.406,52706,),0,0,0
2:26.511,52744,(,0,0,1
2:26.594,52774,N,0,0,0
2:26.650,52794,),0,0,1
2:26.878,52876,(,0,0,2
2:27.011,52924,t,0,0,1
2:27.172,52982,),0,0,2
2:27.369,53053,(,0,0,0
2:27.408,53067,p,0,0,0
2:27.456,53084,),0,0,0
2:27.514,53105,(,0,0,1
2:27.631,53147,N,0,0,0
2:27.683,53166,),0,0,1
2:27.836,53221,(,0,0,2
2:27.936,53257,t,0,0,0
2:28.042,53295,),0,0,2
2:28.381,53417,(,0,0,0
2:28.433,53436,p,0,0,0
2:28.475,53451,),0,0,0
2:28.528,53470,(,0,0,1
2:28.611,53500,N,0,0,0
2:28.683,53526,),0,0,1
2:28.744,53548,(,0,0,2
2:28.761,53554,t,0,0,4
2:29.311,53752,t,0,0,4
2:29.336,53761,),0,0,2
2:29.461,53806,(,0,0,0
2:29.517,53826,p,0,0,0
2:29.572,53846,),0,0,0
2:29.606,53858,(,0,0,1
2:29.628,53866,N,0,0,0
2:29.694,53890,),0,0,1
2:30.097,54035,(,0,0,2
2:30.153,54055,t,0,0,1
2:30.211,54076,),0,0,2
2:30.439,54158,(,0,0,0
2:30.481,54173,p,0,0,0
2:30.519,54187,),0,0,0
2:30.581,54209,(,0,0,1
2:30.675,54243,N,0,0,0
2:30.764,54275,),0,0,1
2:31.006,54362,(,0,0,2
2:31.181,54425,t,0,0,1
2:31.336,54481,),0,0,2
2:31.564,54563,(,0,0,0
2:31.606,54578,p,0,0,0
2:31.647,54593,),0,0,0
2:31.661,54598,(,0,0,1
2:31.778,54640,N,0,0,0
2:31.900,54684,),0,0,1
2:32.603,54937,(,0,0,0
2:32.656,54956,p,0,0,0
2:32.694,54970,),0,0,0
2:32.797,55007,(,0,0,1
2:32.828,55018,N,0,0,0
2:32.925,55053,),0,0,1
2:33.064,55103,(,0,0,2
2:33.147,55133,t,0,0,0
2:33.314,55193,),0,0,2
2:33.664,55319,(,0,0,0
2:33.711,55336,p,0,0,0
2:33.750,55350,),0,0,0
2:33.842,55383,(,0,0,1
2:33.919,55411,N,0,0,0
2:33.958,55425,),0,0,1
2:33.992,55437,(,0,0,2
2:34.028,55450,t,0,0,4
2:34.336,55561,t,0,0,4
2:34.389,55580,),0,0,2
2:34.667,55680,(,0,0,0
2:34.728,55702,p,0,0,0
2:34.764,55715,),0,0,0
2:34.858,55749,(,0,0,1
2:34.892,55761,N,0,0,0
2:34.992,55797,),0,0,1
2:35.767,56076,(,0,0,0
2:35.808,56091,p,0,0,0
2:35.844,56104,),0,0,0
2:35.933,56136,(,0,0,1
2:35.981,56153,N,0,0,0
2:36.072,56186,),0,0,1
2:36.122,56204,(,0,0,2
2:36.144,56212,t,0,0,4
2:36.356,56288,t,0,0,4
2:36.403,56305,),0,0,2
2:36.864,56471,(,0,0,0
2:36.889,56480,p,0,0,0
2:36.925,56493,),0,0,0
2:37.011,56524,(,0,0,1
2:37.072,56546,N,0,0,0
2:37.158,56577,),0,0,1
2:37.328,56638,(,0,0,2
2:37.444,56680,t,0,0,0
2:37.628,56746,),0,0,2
2:37.969,56869,(,0,0,0
2:38.014,56885,p,0,0,0
2:38.053,56899,),0,0,0
2:38.136,56929,(,0,0,1
2:38.186,56947,N,0,0,0
2:38.281,56981,),0,0,1
2:38.342,57003,(,0,0,2
2:38.361,57010,t,0,0,4
2:38.633,57108,t,0,0,4
2:38.719,57139,),0,0,2
2:39.025,57249,(,0,0,0
2:39.078,57268,p,0,0,0
2:39.117,57282,),0,0,0
2:39.194,57310,(,0,0,1
2:39.239,57326,N,0,0,0
2:39.331,57359,),0,0,1
2:39.433,57396,(,0,0,2
2:39.592,57453,t,0,0,0
2:39.722,57500,),0,0,2
2:40.094,57634,(,0,0,0
2:40.128,57646,p,0,0,0
2:40.169,57661,),0,0,0
2:40.211,57676,(,0,0,1
2:40.303,57709,N,0,0,0
2:40.389,57740,),0,0,1
2:40.744,57868,(,0,0,2
2:40.831,57899,t,0,0,1
2:40.858,57909,),0,0,2
2:41.117,58002,(,0,0,0
2:41.153,58015,p,0,0,0
2:41.192,58029,),0,0,0
2:41.292,58065,(,0,0,1
2:41.319,58075,N,0,0,0
2:41.411,58108,),0,0,1
2:42.169,58381,(,0,0,0
2:42.225,58401,p,0,0,0
2:42.261,58414,),0,0,0
2:42.361,58450,(,0,0,1
2:42.394,58462,N,0,0,0
2:42.497,58499,),0,0,1
2:42.542,58515,(,0,0,2
2:42.564,58523,t,0,0,4
2:42.717,58578,t,0,0,4
2:42.944,58660,),0,0,2
2:43.281,58781,(,0,0,0
2:43.336,58801,p,0,0,0
2:43.372,58814,),0,0,0
2:43.444,58840,(,0,0,1
2:43.508,58863,N,0,0,0
2:43.603,58897,),0,0,1
2:43.636,58909,(,0,0,2
2:43.656,58916,t,0,0,4
2:43.836,58981,t,0,0,4
2:43.875,58995,),0,0,2
2:44.400,59184,(,0,0,0
2:44.450,59202,p,0,0,0
2:44.489,59216,),0,0,0
2:44.603,59257,(,0,0,1
2:44.692,59289,N,0,0,0
2:44.728,59302,),0,0,1
2:44.853,59347,),0,0,2
2:44.994,59398,t,0,0,1
2:45.136,59449,(,0,0,2
2:45.458,59565,(,0,0,0
2:45.508,59583,p,0,0,0
2:45.547,59597,),0,0,0
2:45.597,59615,(,0,0,1
2:45.692,59649,N,0,0,0
2:45.772,59678,),0,0,1
2:45.911,59728,(,0,0,2
2:46.022,59768,t,0,0,0
2:46.186,59827,),0,0,2
2:46.453,59923,(,0,0,0
2:46.494,59938,p,0,0,0
2:46.531,59951,),0,0,0
2:46.564,59963,(,0,0,1
2:46.672,60002,N,0,0,0
2:46.742,60027,),0,0,1
2:46.919,60091,(,0,0,2
2:47.053,60139,t,0,0,0
2:47.158,60177,),0,0,2
2:47.461,60286,(,0,0,0
2:47.506,60302,p,0,0,0
2:47.544,60316,),0,0,0
2:47.639,60350,(,0,0,1
2:47.694,60370,N,0,0,0
2:47.772,60398,),0,0,1
2:47.925,60453,(,0,0,2
2:48.056,60500,t,0,0,0
2:48.189,60548,),0,0,2
2:48.608,60699,(,0,0,0
2:48.647,60713,p,0,0,0
2:48.692,60729,),0,0,0
2:48.778,60760,(,0,0,1
2:48.853,60787,N,0,0,0
2:48.942,60819,),0,0,1
2:49.100,60876,(,0,0,2
2:49.208,60915,t,0,0,0
2:49.356,60968,),0,0,2
2:49.700,61092,(,0,0,0
2:49.753,61111,p,0,0,0
2:49.792,61125,),0,0,0
2:49.875,61155,(,0,0,1
2:49.944,61180,N,0,0,0
2:50.022,61208,),0,0,1
2:50.161,61258,(,0,0,2
2:50.306,61310,t,0,0,0
2:50.394,61342,),0,0,2
2:50.811,61492,(,0,0,0
2:50.861,61510,p,0,0,0
2:50.903,61525,),0,0,0
2:50.978,61552,(,0,0,1
2:51.058,61581,N,0,0,0
2:51.136,61609,),0,0,1
2:51.297,61667,(,0,0,2
2:51.439,61718,t,0,0,0
2:51.569,61765,),0,0,2
2:51.850,61866,(,0,0,0
2:51.903,61885,p,0,0,0
2:51.939,61898,),0,0,0
2:52.006,61922,(,0,0,1
2:52.089,61952,N,0,0,0
2:52.167,61980,),0,0,1
2:52.303,62029,(,0,0,2
2:52.444,62080,t,0,0,0
2:52.575,62127,),0,0,2
2:52.872,62234,(,0,0,0
2:52.928,62254,p,0,0,0
2:52.964,62267,),0,0,0
2:53.061,62302,(,0,0,1
2:53.114,62321,N,0,0,0
2:53.189,62348,),0,0,1
2:53.200,62352,(,0,0,2
2:53.267,62376,t,0,0,4
2:53.447,62441,t,0,0,4
2:53.594,62494,),0,0,2
2:53.925,62613,(,0,0,0
2:53.972,62630,p,0,0,0
2:54.011,62644,),0,0,0
2:54.103,62677,(,0,0,1
2:54.161,62698,N,0,0,0
2:54.233,62724,),0,0,1
2:55.011,63004,(,0,0,0
2:55.056,63020,p,0,0,0
2:55.097,63035,),0,0,0
2:55.172,63062,(,0,0,1
2:55.256,63092,N,0,0,0
2:55.339,63122,),0,0,1
2:55.492,63177,(,0,0,2
2:55.636,63229,t,0,0,0
2:55.806,63290,),0,0,2
2:56.114,63401,(,0,0,0
2:56.161,63418,p,0,0,0
2:56.200,63432,),0,0,0
2:56.303,63469,(,0,0,1
2:56.361,63490,N,0,0,0
2:56.442,63519,),0,0,1
2:56.453,63523,(,0,0,2
2:56.508,63543,t,0,0,4
2:56.756,63632,t,0,0,4
2:56.875,63675,),0,0,2
2:57.186,63787,(,0,0,0
2:57.231,63803,p,0,0,0
2:57.267,63816,),0,0,0
2:57.356,63848,(,0,0,1
2:57.419,63871,N,0,0,0
2:57.492,63897,),0,0,1
2:57.644,63952,(,0,0,2
2:57.767,63996,t,0,0,0
2:57.917,64050,),0,0,2
2:58.236,64165,(,0,0,0
2:58.283,64182,p,0,0,0
2:58.322,64196,),0,0,0
2:58.408,64227,(,0,0,1
2:58.464,64247,N,0,0,0
2:58.536,64273,),0,0,1
2:58.553,64279,(,0,0,2
2:58.592,64293,t,0,0,4
2:58.811,64372,t,0,0,4
2:58.947,64421,),0,0,2
2:59.264,64535,(,0,0,0
2:59.303,64549,p,0,0,0
2:59.342,64563,),0,0,0
2:59.425,64593,(,0,0,1
2:59.483,64614,N,0,0,0
2:59.561,64642,),0,0,1
2:59.692,64689,(,0,0,2
2:59.836,64741,t,0,0,0
2:59.981,64793,),0,0,2
3:00.294,64906,(,0,0,0
3:00.336,64921,p,0,0,0
3:00.375,64935,),0,0,0
3:00.475,64971,(,0,0,1
3:00.539,64994,N,0,0,0
3:00.619,65023,),0,0,1
3:00.758,65073,(,0,0,2
3:00.894,65122,t,0,0,0
3:01.056,65180,),0,0,2
3:01.389,65300,(,0,0,0
3:01.436,65317,p,0,0,0
3:01.475,65331,),0,0,0
3:01.578,65368,(,0,0,1
3:01.644,65392,N,0,0,0
3:01.719,65419,),0,0,1
3:01.844,65464,(,0,0,2
3:02.000,65520,t,0,0,0
3:02.172,65582,),0,0,2
3:02.519,65707,(,0,0,0
3:02.564,65723,p,0,0,0
3:02.603,65737,),0,0,0
3:02.697,65771,(,0,0,1
3:02.756,65792,N,0,0,0
3:02.828,65818,),0,0,1
3:02.847,65825,(,0,0,2
3:02.883,65838,t,0,0,4
3:03.150,65934,t,0,0,4
3:03.261,65974,),0,0,2
3:03.544,66076,(,0,0,0
3:03.592,66093,p,0,0,0
3:03.628,66106,),0,0,0
3:03.719,66139,(,0,0,1
3:03.775,66159,N,0,0,0
3:03.847,66185,),0,0,1
3:03.969,66229,(,0,0,2
3:04.133,66288,t,0,0,0
3:04.278,66340,),0,0,2
3:04.594,66454,(,0,0,0
3:04.639,66470,p,0,0,0
3:04.678,66484,),0,0,0
3:04.772,66518,(,0,0,1
3:04.833,66540,N,0,0,0
3:04.914,66569,),0,0,1
3:05.061,66622,(,0,0,2
3:05.203,66673,t,0,0,0
3:05.342,66723,),0,0,2
3:05.617,66822,(,0,0,0
3:05.672,66842,p,0,0,0
3:05.708,66855,),0,0,0
3:05.803,66889,(,0,0,1
3:05.864,66911,N,0,0,0
3:05.942,66939,),0,0,1
3:06.075,66987,(,0,0,2
3:06.206,67034,t,0,0,0
3:06.361,67090,),0,0,2
3:06.694,67210,(,0,0,0
3:06.739,67226,p,0,0,0
3:06.778,67240,),0,0,0
3:06.869,67273,(,0,0,1
3:06.931,67295,N,0,0,0
3:07.006,67322,),0,0,1
3:07.156,67376,(,0,0,2
3:07.306,67430,t,0,0,0
3:07.456,67484,),0,0,2
3:07.767,67596,(,0,0,0
3:07.814,67613,p,0,0,0
3:07.850,67626,),0,0,0
3:07.942,67659,(,0,0,1
3:08.008,67683,N,0,0,0
3:08.086,67711,),0,0,1
3:08.250,67770,(,0,0,2
3:08.372,67814,t,0,0,0
3:08.544,67876,),0,0,2
3:08.850,67986,(,0,0,0
3:08.897,68003,p,0,0,0
3:08.936,68017,),0,0,0
3:09.033,68052,(,0,0,1
3:09.094,68074,N,0,0,0
3:09.175,68103,),0,0,1
3:09.328,68158,(,0,0,2
3:09.444,68200,t,0,0,0
3:09.589,68252,),0,0,2
3:09.906,68366,(,0,0,0
3:09.950,68382,p,0,0,0
3:09.989,68396,),0,0,0
3:10.067,68424,(,0,0,1
3:10.139,68450,N,0,0,0
3:10.211,68476,),0,0,1
3:10.339,68522,(,0,0,2
3:10.478,68572,t,0,0,0
3:10.600,68616,),0,0,2
3:10.869,68713,(,0,0,0
3:10.917,68730,p,0,0,0
3:10.953,68743,),0,0,0
3:11.044,68776,(,0,0,1
3:11.106,68798,N,0,0,0
3:11.181,68825,),0,0,1
3:11.325,68877,(,0,0,2
3:11.458,68925,t,0,0,0
3:11.622,68984,),0,0,2
3:11.911,69088,(,0,0,0
3:11.956,69104,p,0,0,0
3:11.992,69117,),0,0,0
3:12.075,69147,(,0,0,1
3:12.144,69172,N,0,0,0
3:12.222,69200,),0,0,1
3:12.372,69254,(,0,0,2
3:12.519,69307,t,0,0,0
3:12.675,69363,),0,0,2
3:12.894,69442,(,0,0,0
3:12.942,69459,p,0,0,0
3:12.981,69473,),0,0,0
3:13.072,69506,(,0,0,1
3:13.131,69527,N,0,0,0
3:13.208,69555,),0,0,1
3:13.222,69560,(,0,0,2
3:13.303,69589,t,0,0,4
3:13.494,69658,t,0,0,4
3:13.656,69716,),0,0,2
3:13.922,69812,(,0,0,0
3:13.978,69832,p,0,0,0
3:14.017,69846,),0,0,0
3:14.103,69877,(,0,0,1
3:14.183,69906,N,0,0,0
3:14.261,69934,),0,0,1
3:14.411,69988,(,0,0,2
3:14.550,70038,t,0,0,0
3:14.678,70084,),0,0,2
3:14.964,70187,(,0,0,0
3:15.017,70206,p,0,0,0
3:15.053,70219,),0,0,0
3:15.156,70256,(,0,0,1
3:15.211,70276,N,0,0,0
3:15.286,70303,),0,0,1
3:15.306,70310,(,0,0,2
3:15.356,70328,t,0,0,4
3:15.550,70398,t,0,0,4
3:15.717,70458,),0,0,2
3:16.239,70646,(,0,0,0
3:16.283,70662,p,0,0,0
3:16.322,70676,),0,0,0
3:16.406,70706,(,0,0,1
3:16.464,70727,N,0,0,0
3:16.536,70753,),0,0,1
3:16.556,70760,(,0,0,2
3:16.603,70777,t,0,0,4
3:16.833,70860,t,0,0,4
3:16.956,70904,),0,0,2
3:17.428,71074,(,0,0,0
3:17.472,71090,p,0,0,0
3:17.511,71104,),0,0,0
3:17.600,71136,(,0,0,1
3:17.661,71158,N,0,0,0
3:17.739,71186,),0,0,1
3:17.758,71193,(,0,0,2
3:17.803,71209,t,0,0,4
3:18.033,71292,t,0,0,4
3:18.206,71354,),0,0,2
3:18.725,71541,(,0,0,0
3:18.769,71557,p,0,0,0
3:18.808,71571,),0,0,0
3:18.858,71589,(,0,0,1
3:18.964,71627,N,0,0,0
3:19.042,71655,),0,0,1
3:19.053,71659,(,0,0,2
3:19.119,71683,t,0,0,4
3:19.342,71763,t,0,0,4
3:19.500,71820,),0,0,2
3:19.917,71970,(,0,0,0
3:19.961,71986,p,0,0,0
3:20.000,72000,),0,0,0
3:20.097,72035,(,0,0,1
3:20.156,72056,N,0,0,0
3:20.239,72086,),0,0,1
3:20.253,72091,(,0,0,2
3:20.314,72113,t,0,0,4
3:20.508,72183,t,0,0,4
3:20.672,72242,),0,0,2
3:21.053,72379,(,0,0,0
3:21.097,72395,p,0,0,0
3:21.133,72408,),0,0,0
3:21.214,72437,(,0,0,1
3:21.272,72458,N,0,0,0
3:21.347,72485,),0,0,1
3:21.361,72490,(,0,0,2
3:21.419,72511,t,0,0,4
3:21.639,72590,t,0,0,4
3:21.789,72644,),0,0,2
3:22.097,72755,(,0,0,0
3:22.142,72771,p,0,0,0
3:22.181,72785,),0,0,0
3:22.272,72818,(,0,0,1
3:22.328,72838,N,0,0,0
3:22.408,72867,),0,0,1
3:22.419,72871,(,0,0,2
3:22.481,72893,t,0,0,4
3:22.683,72966,t,0,0,4
3:22.842,73023,),0,0,2
3:23.150,73134,(,0,0,0
3:23.197,73151,p,0,0,0
3:23.233,73164,),0,0,0
3:23.322,73196,(,0,0,1
3:23.386,73219,N,0,0,0
3:23.461,73246,),0,0,1
3:23.606,73298,(,0,0,2
3:23.731,73343,t,0,0,0
3:23.875,73395,),0,0,2
3:24.167,73500,(,0,0,0
3:24.217,73518,p,0,0,0
3:24.256,73532,),0,0,0
3:24.353,73567,(,0,0,1
3:24.414,73589,N,0,0,0
3:24.494,73618,),0,0,1
3:24.650,73674,(,0,0,2
3:24.794,73726,t,0,0,0
3:24.964,73787,),0,0,2
3:25.322,73916,(,0,0,0
3:25.375,73935,p,0,0,0
3:25.414,73949,),0,0,0
3:25.508,73983,(,0,0,1
3:25.564,74003,N,0,0,0
3:25.644,74032,),0,0,1
3:25.656,74036,(,0,0,2
3:25.706,74054,t,0,0,4
3:25.950,74142,t,0,0,4
3:26.103,74197,),0,0,2
3:26.414,74309,(,0,0,0
3:26.456,74324,p,0,0,0
3:26.492,74337,),0,0,0
3:26.581,74369,(,0,0,1
3:26.644,74392,N,0,0,0
3:26.719,74419,),0,0,1
3:26.906,74486,(,0,0,2
3:27.019,74527,t,0,0,0
3:27.078,74548,),0,0,2
3:27.439,74678,(,0,0,0
3:27.489,74696,p,0,0,0
3:27.528,74710,),0,0,0
3:27.597,74735,(,0,0,1
3:27.678,74764,N,0,0,0
3:27.756,74792,),0,0,1
3:27.867,74832,(,0,0,2
3:28.050,74898,t,0,0,5
3:28.181,74945,t,0,0,5
3:28.292,74985,),0,0,2
3:28.483,75054,(,0,0,0
3:28.522,75068,p,0,0,0
3:28.561,75082,),0,0,0
3:28.614,75101,(,0,0,1
3:28.694,75130,N,0,0,0
3:28.775,75159,),0,0,1
3:28.889,75200,(,0,0,2
3:29.058,75261,t,0,0,0
3:29.200,75312,),0,0,2
3:29.536,75433,(,0,0,0
3:29.567,75444,p,0,0,0
3:29.606,75458,),0,0,0
3:29.689,75488,(,0,0,1
3:29.753,75511,N,0,0,0
3:29.831,75539,),0,0,1
3:29.900,75564,(,0,0,2
3:29.925,75573,t,0,0,4
3:30.139,75650,t,0,0,4
3:30.281,75701,),0,0,2
3:30.564,75803,(,0,0,0
3:30.611,75820,p,0,0,0
3:30.650,75834,),0,0,0
3:30.725,75861,(,0,0,1
3:30.811,75892,N,0,0,0
3:30.883,75918,),0,0,1
3:31.047,75977,(,0,0,2
3:31.175,76023,t,0,0,0
3:31.322,76076,),0,0,2
3:31.703,76213,(,0,0,0
3:31.756,76232,p,0,0,0
3:31.797,76247,),0,0,0
3:31.903,76285,(,0,0,1
3:31.964,76307,N,0,0,0
3:32.042,76335,),0,0,1
3:32.056,76340,(,0,0,2
3:32.131,76367,t,0,0,4
3:32.317,76434,t,0,0,4
3:32.461,76486,),0,0,2
3:32.836,76621,(,0,0,0
3:32.878,76636,p,0,0,0
3:32.917,76650,),0,0,0
3:33.000,76680,(,0,0,1
3:33.064,76703,N,0,0,0
3:33.133,76728,),0,0,1
3:33.297,76787,(,0,0,2
3:33.431,76835,t,0,0,0
3:33.556,76880,),0,0,2
3:33.822,76976,(,0,0,0
3:33.864,76991,p,0,0,0
3:33.903,77005,),0,0,0
3:34.003,77041,(,0,0,1
3:34.058,77061,N,0,0,0
3:34.131,77087,),0,0,1
3:34.303,77149,(,0,0,2
3:34.403,77185,t,0,0,0
3:34.547,77237,),0,0,2
3:34.853,77347,(,0,0,0
3:34.900,77364,p,0,0,0
3:34.939,77378,),0,0,0
3:35.011,77404,(,0,0,1
3:35.094,77434,N,0,0,0
3:35.164,77459,),0,0,1
3:35.358,77529,(,0,0,2
3:35.447,77561,t,0,0,0
3:35.594,77614,),0,0,2
3:35.931,77735,(,0,0,0
3:35.964,77747,p,0,0,0
3:36.006,77762,),0,0,0
3:36.100,77796,(,0,0,1
3:36.147,77813,N,0,0,0
3:36.225,77841,),0,0,1
3:36.597,77975,(,0,0,2
3:36.639,77990,t,0,0,4
3:36.861,78070,t,0,0,4
3:36.881,78077,),0,0,2
3:36.978,78112,(,0,0,0
3:37.022,78128,p,0,0,0
3:37.061,78142,),0,0,0
3:37.139,78170,(,0,0,1
3:37.214,78197,N,0,0,0
3:37.292,78225,),0,0,1
3:37.464,78287,(,0,0,2
3:37.578,78328,t,0,0,0
3:37.669,78361,),0,0,2
3:38.047,78497,(,0,0,0
3:38.106,78518,p,0,0,0
3:38.144,78532,),0,0,0
3:38.244,78568,(,0,0,1
3:38.308,78591,N,0,0,0
3:38.383,78618,),0,0,1
3:38.419,78631,(,0,0,2
3:38.450,78642,t,0,0,4
3:38.706,78734,t,0,0,4
3:38.817,78774,),0,0,2
3:39.139,78890,(,0,0,0
3:39.189,78908,p,0,0,0
3:39.228,78922,),0,0,0
3:39.317,78954,(,0,0,1
3:39.381,78977,N,0,0,0
3:39.450,79002,),0,0,1
3:39.644,79072,(,0,0,2
3:39.703,79093,t,0,0,0
3:39.864,79151,),0,0,2
3:40.164,79259,(,0,0,0
3:40.208,79275,p,0,0,0
3:40.247,79289,),0,0,0
3:40.308,79311,(,0,0,1
3:40.383,79338,N,0,0,0
3:40.456,79364,),0,0,1
3:40.642,79431,(,0,0,2
3:40.692,79449,t,0,0,0
3:40.872,79514,),0,0,2
3:41.186,79627,(,0,0,0
3:41.225,79641,p,0,0,0
3:41.264,79655,),0,0,0
3:41.358,79689,(,0,0,1
3:41.411,79708,N,0,0,0
3:41.494,79738,),0,0,1
3:42.239,80006,(,0,0,0
3:42.294,80026,p,0,0,0
3:42.331,80039,),0,0,0
3:42.392,80061,(,0,0,1
3:42.489,80096,N,0,0,0
3:42.569,80125,),0,0,1
3:42.731,80183,(,0,0,2
3:42.878,80236,t,0,0,0
3:42.997,80279,),0,0,2
3:43.306,80390,(,0,0,0
3:43.353,80407,p,0,0,0
3:43.389,80420,),0,0,0
3:43.467,80448,(,0,0,1
3:43.544,80476,N,0,0,0
3:43.625,80505,),0,0,1
3:43.733,80544,(,0,0,2
3:43.917,80610,t,0,0,0
3:44.031,80651,),0,0,2
3:44.386,80779,(,0,0,0
3:44.411,80788,p,0,0,0
3:44.450,80802,),0,0,0
3:44.514,80825,(,0,0,1
3:44.611,80860,N,0,0,0
3:44.694,80890,),0,0,1
3:44.919,80971,(,0,0,2
3:45.003,81001,t,0,0,0
3:45.103,81037,),0,0,2
3:45.372,81134,(,0,0,0
3:45.422,81152,p,0,0,0
3:45.456,81164,),0,0,0
3:45.550,81198,(,0,0,1
3:45.600,81216,N,0,0,0
3:45.672,81242,),0,0,1
3:45.794,81286,(,0,0,2
3:45.925,81333,t,0,0,0
3:46.089,81392,),0,0,2
3:46.328,81478,(,0,0,0
3:46.364,81491,p,0,0,0
3:46.400,81504,),0,0,0
3:46.483,81534,(,0,0,1
3:46.547,81557,N,0,0,0
3:46.622,81584,),0,0,1
3:46.769,81637,(,0,0,2
3:46.897,81683,t,0,0,0
3:47.042,81735,),0,0,2
3:47.253,81811,(,0,0,0
3:47.306,81830,p,0,0,0
3:47.344,81844,),0,0,0
3:47.419,81871,(,0,0,1
3:47.500,81900,N,0,0,0
3:47.575,81927,),0,0,1
3:47.703,81973,(,0,0,2
3:47.836,82021,t,0,0,0
3:47.969,82069,),0,0,2
3:48.297,82187,(,0,0,0
3:48.353,82207,p,0,0,0
3:48.397,82223,),0,0,0
3:48.453,82243,(,0,0,1
3:48.553,82279,N,0,0,0
3:48.633,82308,),0,0,1
3:48.825,82377,(,0,0,2
3:48.950,82422,t,0,0,0
3:49.078,82468,),0,0,2
3:49.406,82586,(,0,0,0
3:49.458,82605,p,0,0,0
3:49.497,82619,),0,0,0
3:49.575,82647,(,0,0,1
3:49.653,82675,N,0,0,0
3:49.728,82702,),0,0,1
3:49.792,82725,(,0,0,2
3:49.819,82735,t,0,0,4
3:50.011,82804,t,0,0,4
3:50.181,82865,),0,0,2
3:50.694,83050,(,0,0,0
3:50.733,83064,p,0,0,0
3:50.772,83078,),0,0,0
3:50.828,83098,(,0,0,1
3:50.925,83133,N,0,0,0
3:50.997,83159,),0,0,1
3:51.008,83163,(,0,0,2
3:51.144,83212,t,0,0,4
3:51.286,83263,t,0,0,4
3:51.447,83321,),0,0,2
3:51.842,83463,(,0,0,0
3:51.883,83478,p,0,0,0
3:51.919,83491,),0,0,0
3:51.986,83515,(,0,0,1
3:52.069,83545,N,0,0,0
3:52.139,83570,),0,0,1
3:52.156,83576,(,0,0,2
3:52.219,83599,t,0,0,4
3:52.411,83668,t,0,0,4
3:52.539,83714,),0,0,2
3:52.606,83738,(,0,0,0
3:52.697,83771,p,0,0,0
3:52.725,83781,),0,0,0
3:52.783,83802,(,0,0,1
3:52.836,83821,N,0,0,0
3:52.953,83863,),0,0,1
3:53.039,83894,(,0,0,2
3:53.394,84022,t,0,0,0
3:53.703,84133,),0,0,2
3:54.064,84263,(,0,0,0
3:54.103,84277,p,0,0,0
3:54.142,84291,),0,0,0
3:54.208,84315,(,0,0,1
3:54.289,84344,N,0,0,0
3:54.372,84374,),0,0,1
3:54.553,84439,(,0,0,2
3:54.633,84468,t,0,0,0
3:54.794,84526,),0,0,2
3:55.297,84707,(,0,0,0
3:55.339,84722,p,0,0,0
3:55.378,84736,),0,0,0
3:55.453,84763,(,0,0,1
3:55.533,84792,N,0,0,0
3:55.619,84823,),0,0,1
3:55.789,84884,(,0,0,2
3:55.914,84929,t,0,0,0
3:56.067,84984,),0,0,2
3:56.456,85124,(,0,0,0
3:56.503,85141,p,0,0,0
3:56.542,85155,),0,0,0
3:56.639,85190,(,0,0,1
3:56.681,85205,N,0,0,0
3:56.775,85239,),0,0,1
3:56.939,85298,(,0,0,2
3:57.078,85348,t,0,0,0
3:57.194,85390,),0,0,2
3:57.489,85496,(,0,0,0
3:57.544,85516,p,0,0,0
3:57.586,85531,),0,0,0
3:57.606,85538,(,0,0,1
3:57.719,85579,N,0,0,0
3:57.814,85613,),0,0,1
3:58.558,85881,(,0,0,0
3:58.614,85901,p,0,0,0
3:58.650,85914,),0,0,0
3:58.722,85940,(,0,0,1
3:58.794,85966,N,0,0,0
3:58.875,85995,),0,0,1
3:58.972,86030,(,0,0,2
3:58.989,86036,t,0,0,4
3:59.183,86106,t,0,0,4
3:59.267,86136,),0,0,2
3:59.561,86242,(,0,0,0
3:59.611,86260,p,0,0,0
3:59.650,86274,),0,0,0
3:59.672,86282,(,0,0,1
3:59.764,86315,N,0,0,0
3:59.856,86348,),0,0,1
3:59.958,86385,(,0,0,2
4:00.044,86416,t,0,0,5
4:00.325,86517,t,0,0,5
4:00.367,86532,),0,0,2
4:00.586,86611,(,0,0,0
4:00.631,86627,p,0,0,0
4:00.672,86642,),0,0,0
4:00.733,86664,(,0,0,1
4:00.803,86689,N,0,0,0
4:00.931,86735,),0,0,1
4:01.256,86852,(,0,0,2
4:01.372,86894,t,0,0,1
4:01.403,86905,),0,0,2
4:01.656,86996,(,0,0,0
4:01.703,87013,p,0,0,0
4:01.744,87028,),0,0,0
4:01.783,87042,(,0,0,1
4:01.875,87075,N,0,0,0
4:01.972,87110,),0,0,1
4:02.097,87155,(,0,0,2
4:02.247,87209,t,0,0,0
4:02.383,87258,),0,0,2
4:02.761,87394,(,0,0,0
4:02.794,87406,p,0,0,0
4:02.831,87419,),0,0,0
4:02.894,87442,(,0,0,1
4:02.953,87463,N,0,0,0
4:03.050,87498,),0,0,1
4:03.144,87532,(,0,0,2
4:03.300,87588,t,0,0,0
4:03.469,87649,),0,0,2
4:03.781,87761,(,0,0,0
4:03.828,87778,p,0,0,0
4:03.867,87792,),0,0,0
4:03.928,87814,(,0,0,1
4:03.983,87834,N,0,0,0
4:04.072,87866,),0,0,1
4:04.814,88133,(,0,0,0
4:04.861,88150,p,0,0,0
4:04.900,88164,),0,0,0
4:04.964,88187,(,0,0,1
4:05.036,88213,N,0,0,0
4:05.094,88234,),0,0,1
4:05.269,88297,(,0,0,2
4:05.375,88335,t,0,0,0
4:05.556,88400,),0,0,2
4:05.875,88515,(,0,0,0
4:05.925,88533,p,0,0,0
4:05.967,88548,),0,0,0
4:06.036,88573,(,0,0,1
4:06.097,88595,N,0,0,0
4:06.194,88630,),0,0,1
4:06.278,88660,(,0,0,2
4:06.386,88699,t,0,0,0
4:06.486,88735,),0,0,2
4:06.958,88905,(,0,0,0
4:07.011,88924,p,0,0,0
4:07.050,88938,),0,0,0
4:07.089,88952,(,0,0,1
4:07.178,88984,N,0,0,0
4:07.283,89022,),0,0,1
4:07.375,89055,(,0,0,2
4:07.511,89104,t,0,0,0
4:07.583,89130,),0,0,2
4:08.097,89315,(,0,0,0
4:08.133,89328,p,0,0,0
4:08.167,89340,),0,0,0
4:08.264,89375,(,0,0,1
4:08.306,89390,N,0,0,0
4:08.414,89429,),0,0,1
4:08.575,89487,(,0,0,2
4:08.619,89503,t,0,0,0
4:08.714,89537,),0,0,2
4:09.208,89715,(,0,0,0
4:09.253,89731,p,0,0,0
4:09.292,89745,),0,0,0
4:09.394,89782,(,0,0,1
4:09.422,89792,N,0,0,0
4:09.522,89828,),0,0,1
4:09.639,89870,(,0,0,2
4:09.700,89892,t,0,0,0
4:09.794,89926,),0,0,2
4:10.294,90106,(,0,0,0
4:10.342,90123,p,0,0,0
4:10.381,90137,),0,0,0
4:10.472,90170,(,0,0,1
4:10.494,90178,N,0,0,0
4:10.594,90214,),0,0,1
4:11.306,90470,(,0,0,0
4:11.347,90485,p,0,0,0
4:11.389,90500,),0,0,0
4:11.483,90534,(,0,0,1
4:11.508,90543,N,0,0,0
4:11.619,90583,),0,0,1
4:11.694,90610,(,0,0,2
4:11.817,90654,t,0,0,5
4:12.175,90783,t,0,0,5
4:12.206,90794,),0,0,2
4:12.400,90864,(,0,0,0
4:12.442,90879,p,0,0,0
4:12.483,90894,),0,0,0
4:12.575,90927,(,0,0,1
4:12.608,90939,N,0,0,0
4:12.731,90983,),0,0,1
4:12.864,91031,(,0,0,2
4:12.894,91042,t,0,0,5
4:13.397,91223,t,0,0,5
4:13.428,91234,),0,0,2
4:13.497,91259,(,0,0,0
4:13.544,91276,p,0,0,0
4:13.589,91292,),0,0,0
4:13.681,91325,(,0,0,1
4:13.714,91337,N,0,0,0
4:13.814,91373,),0,0,1
4:13.922,91412,(,0,0,2
4:14.011,91444,t,0,0,0
4:14.269,91537,),0,0,2
4:14.600,91656,(,0,0,0
4:14.642,91671,p,0,0,0
4:14.678,91684,),0,0,0
4:14.769,91717,(,0,0,1
4:14.806,91730,N,0,0,0
4:14.906,91766,),0,0,1
4:14.956,91784,(,0,0,2
4:14.972,91790,t,0,0,4
4:15.133,91848,t,0,0,4
4:15.200,91872,),0,0,2
4:15.633,92028,(,0,0,0
4:15.672,92042,p,0,0,0
4:15.711,92056,),0,0,0
4:15.811,92092,(,0,0,1
4:15.836,92101,N,0,0,0
4:15.944,92140,),0,0,1
4:16.664,92399,(,0,0,0
4:16.700,92412,p,0,0,0
4:16.742,92427,),0,0,0
4:16.844,92464,(,0,0,1
4:16.869,92473,N,0,0,0
4:16.981,92513,),0,0,1
4:17.139,92570,),0,0,2
4:17.214,92597,t,0,0,1
4:17.289,92624,(,0,0,2
4:17.675,92763,(,0,0,0
4:17.733,92784,p,0,0,0
4:17.772,92798,),0,0,0
4:17.833,92820,(,0,0,1
4:17.906,92846,N,0,0,0
4:18.003,92881,),0,0,1
4:18.661,93118,(,0,0,2
4:18.686,93127,t,0,0,1
4:18.708,93135,),0,0,2
4:18.794,93166,(,0,0,0
4:18.836,93181,p,0,0,0
4:18.875,93195,),0,0,0
4:18.936,93217,(,0,0,1
4:19.014,93245,N,0,0,0
4:19.114,93281,),0,0,1
4:19.264,93335,(,0,0,2
4:19.333,93360,t,0,0,0
4:19.492,93417,),0,0,2
4:19.853,93547,(,0,0,0
4:19.889,93560,p,0,0,0
4:19.931,93575,),0,0,0
4:20.014,93605,(,0,0,1
4:20.064,93623,N,0,0,0
4:20.153,93655,),0,0,1
4:20.186,93667,(,0,0,2
4:20.217,93678,t,0,0,4
4:20.444,93760,t,0,0,4
4:20.567,93804,),0,0,2
4:20.892,93921,(,0,0,0
4:20.936,93937,p,0,0,0
4:20.978,93952,),0,0,0
4:21.069,93985,(,0,0,1
4:21.128,94006,N,0,0,0
4:21.206,94034,),0,0,1
4:21.325,94077,(,0,0,2
4:21.483,94134,t,0,0,0
4:21.631,94187,),0,0,2
4:21.908,94287,(,0,0,0
4:21.944,94300,p,0,0,0
4:21.983,94314,),0,0,0
4:22.017,94326,(,0,0,1
4:22.122,94364,N,0,0,0
4:22.200,94392,),0,0,1
4:22.433,94476,(,0,0,2
4:22.467,94488,t,0,0,0
4:22.494,94498,),0,0,2
4:22.886,94639,(,0,0,0
4:22.922,94652,p,0,0,0
4:22.961,94666,),0,0,0
4:23.006,94682,(,0,0,1
4:23.086,94711,N,0,0,0
4:23.183,94746,),0,0,1
4:23.822,94976,(,0,0,0
4:23.872,94994,p,0,0,0
4:23.911,95008,),0,0,0
4:23.994,95038,(,0,0,1
4:24.033,95052,N,0,0,0
4:24.125,95085,),0,0,1
4:24.186,95107,(,0,0,2
4:24.203,95113,t,0,0,4
4:24.364,95171,t,0,0,4
4:24.561,95242,),0,0,2
4:24.839,95342,(,0,0,0
4:24.897,95363,p,0,0,0
4:24.939,95378,),0,0,0
4:25.042,95415,(,0,0,1
4:25.072,95426,N,0,0,0
4:25.178,95464,),0,0,1
4:25.622,95624,(,0,0,2
4:25.653,95635,t,0,0,1
4:25.681,95645,),0,0,2
4:26.028,95770,(,0,0,0
4:26.081,95789,p,0,0,0
4:26.122,95804,),0,0,0
4:26.211,95836,(,0,0,1
4:26.250,95850,N,0,0,0
4:26.358,95889,),0,0,1
4:26.403,95905,(,0,0,2
4:26.431,95915,t,0,0,4
4:26.636,95989,t,0,0,4
4:26.778,96040,),0,0,2
4:27.369,96253,(,0,0,0
4:27.408,96267,p,0,0,0
4:27.444,96280,),0,0,0
4:27.503,96301,(,0,0,1
4:27.578,96328,N,0,0,0
4:27.656,96356,),0,0,1
4:27.792,96405,(,0,0,2
4:27.911,96448,t,0,0,0
4:28.078,96508,),0,0,2
4:28.528,96670,(,0,0,0
4:28.564,96683,p,0,0,0
4:28.603,96697,),0,0,0
4:28.672,96722,(,0,0,1
4:28.750,96750,N,0,0,0
4:28.828,96778,),0,0,1
4:29.022,96848,(,0,0,2
4:29.100,96876,t,0,0,0
4:29.242,96927,),0,0,2
4:29.619,97063,(,0,0,0
4:29.661,97078,p,0,0,0
4:29.703,97093,),0,0,0
4:29.739,97106,(,0,0,1
4:29.844,97144,N,0,0,0
4:29.917,97170,),0,0,1
4:30.094,97234,(,0,0,2
4:30.214,97277,t,0,0,0
4:30.314,97313,),0,0,2
4:30.722,97460,(,0,0,0
4:30.775,97479,p,0,0,0
4:30.817,97494,),0,0,0
4:30.908,97527,(,0,0,1
4:30.964,97547,N,0,0,0
4:31.042,97575,),0,0,1
4:31.719,97819,(,0,0,2
4:31.747,97829,t,0,0,0
4:31.769,97837,),0,0,2
4:31.875,97875,(,0,0,0
4:31.928,97894,p,0,0,0
4:31.964,97907,),0,0,0
4:32.069,97945,(,0,0,1
4:32.125,97965,N,0,0,0
4:32.208,97995,),0,0,1
4:32.381,98057,(,0,0,2
4:32.481,98093,t,0,0,0
4:32.622,98144,),0,0,2
4:32.975,98271,(,0,0,0
4:33.011,98284,p,0,0,0
4:33.050,98298,),0,0,0
4:33.178,98344,(,0,0,1
4:33.200,98352,N,0,0,0
4:33.278,98380,),0,0,1
4:33.292,98385,(,0,0,2
4:33.333,98400,t,0,0,4
4:33.583,98490,t,0,0,4
4:33.667,98520,),0,0,2
4:33.961,98626,(,0,0,0
4:34.003,98641,p,0,0,0
4:34.042,98655,),0,0,0
4:34.119,98683,(,0,0,1
4:34.181,98705,N,0,0,0
4:34.250,98730,),0,0,1
4:34.400,98784,(,0,0,2
4:34.547,98837,t,0,0,0
4:34.672,98882,),0,0,2
4:34.967,98988,(,0,0,0
4:35.008,99003,p,0,0,0
4:35.044,99016,),0,0,0
4:35.128,99046,(,0,0,1
4:35.183,99066,N,0,0,0
4:35.258,99093,),0,0,1
4:35.267,99096,(,0,0,2
4:35.333,99120,t,0,0,4
4:35.536,99193,t,0,0,4
4:35.703,99253,),0,0,2
4:36.575,99567,(,0,0,1
4:36.764,99635,N,0,0,0
4:36.911,99688,),0,0,1
4:37.225,99801,(,0,0,2
4:37.275,99819,t,0,0,5
4:37.325,99837,t,0,0,5
4:37.361,99850,),0,0,2
4:38.278   100180,(,0,0,1
4:38.367   100212,N,0,0,0
4:38.408   100227,),0,0,1
4:38.661   100318,(,0,0,2
4:38.764   100355,t,0,0,0
4:38.883   100398,),0,0,2
4:39.342   100563,(,0,0,1
4:39.394   100582,N,0,0,0
4:39.431   100595,),0,0,1
4:40.353   100927,(,0,0,1
4:40.400   100944,N,0,0,0
4:40.436   100957,),0,0,1
4:41.353   101287,(,0,0,1
4:41.406   101306,N,0,0,0
4:41.444   101320,),0,0,1
4:41.797   101447,(,0,0,2
4:41.900   101484,t,0,0,1
4:42.206   101594,),0,0,2
4:44.397   102383,(,0,0,1
4:44.450   102402,N,0,0,0
4:44.486   102415,),0,0,1
4:44.864   102551,(,0,0,2
4:44.967   102588,t,0,0,1
4:45.283   102702,),0,0,2
4:46.658   103197,(,0,0,1
4:46.719   103219,N,0,0,0
4:46.753   103231,),0,0,1
4:46.939   103298,(,0,0,2
4:47.053   103339,t,0,0,0
4:47.194   103390,),0,0,2
4:47.783   103602,(,0,0,1
4:47.836   103621,N,0,0,0
4:47.875   103635,),0,0,1
4:48.050   103698,(,0,0,2
4:48.197   103751,t,0,0,0
4:48.361   103810,),0,0,2
4:51.183   104826,(,0,0,1
4:51.228   104842,N,0,0,0
4:51.264   104855,),0,0,1
4:51.311   104872,(,0,0,2
4:51.408   104907,t,0,0,4
4:51.589   104972,t,0,0,4
4:51.725   105021,),0,0,2
4:57.667   107160,(,0,0,1
4:57.711   107176,N,0,0,0
4:57.747   107189,),0,0,1
4:58.100   107316,(,0,0,2
4:58.133   107328,t,0,0,5
4:58.178   107344,t,0,0,5
4:58.214   107357,),0,0,2
5:57.906   128846,(,0,0,1
5:57.936   128857,N,0,0,0
5:57.981   128873,),0,0,1
5:58.053   128899,(,0,0,2
5:58.081   128909,t,0,0,4
5:58.267   128976,t,0,0,4
5:58.425   129033,),0,0,2
5:58.947   129221,(,0,0,1
5:58.989   129236,N,0,0,0
5:59.036   129253,),0,0,1
5:59.139   129290,(,0,0,2
5:59.333   129360,t,0,0,0
5:59.386   129379,),0,0,2
6:27.161   139378,(,0,0,1
6:27.217   139398,N,0,0,0
6:27.294   139426,),0,0,1
6:27.419   139471,(,0,0,2
6:27.550   139518,t,0,0,0
6:27.697   139571,),0,0,2
6:28.206   139754,(,0,0,1
6:28.256   139772,N,0,0,0
6:28.292   139785,),0,0,1
6:28.447   139841,(,0,0,2
6:28.592   139893,t,0,0,0
6:28.750   139950,),0,0,2
6:29.242   140127,(,0,0,1
6:29.300   140148,N,0,0,0
6:29.336   140161,),0,0,1
6:29.528   140230,(,0,0,2
6:29.669   140281,t,0,0,0
6:29.811   140332,),0,0,2
6:30.322   140516,(,0,0,1
6:30.381   140537,N,0,0,0
6:30.419   140551,),0,0,1
6:30.597   140615,(,0,0,2
6:30.747   140669,t,0,0,0
6:30.886   140719,),0,0,2
6:31.439   140918,(,0,0,1
6:31.497   140939,N,0,0,0
6:31.533   140952,),0,0,1
6:31.728   141022,(,0,0,2
6:31.889   141080,t,0,0,0
6:32.003   141121,),0,0,2
6:32.517   141306,(,0,0,1
6:32.578   141328,N,0,0,0
6:32.617   141342,),0,0,1
6:32.728   141382,(,0,0,2
6:32.756   141392,t,0,0,4
6:32.983   141474,t,0,0,4
6:33.114   141521,),0,0,2
6:33.583   141690,(,0,0,1
6:33.658   141717,N,0,0,0
6:33.697   141731,),0,0,1
6:33.864   141791,(,0,0,2
6:34.019   141847,t,0,0,0
6:34.153   141895,),0,0,2
6:34.644   142072,(,0,0,1
6:34.703   142093,N,0,0,0
6:34.739   142106,),0,0,1
6:34.900   142164,(,0,0,2
6:35.039   142214,t,0,0,0
6:35.178   142264,),0,0,2
6:35.694   142450,(,0,0,1
6:35.747   142469,N,0,0,0
6:35.783   142482,),0,0,1
6:35.925   142533,(,0,0,2
6:36.125   142605,t,0,0,0
6:36.267   142656,),0,0,2
6:36.833   142860,(,0,0,1
6:36.897   142883,N,0,0,0
6:36.939   142898,),0,0,1
6:37.136   142969,(,0,0,2
6:37.278   143020,t,0,0,0
6:37.422   143072,),0,0,2
6:37.958   143265,(,0,0,1
6:38.019   143287,N,0,0,0
6:38.056   143300,),0,0,1
6:38.236   143365,(,0,0,2
6:38.383   143418,t,0,0,0
6:38.522   143468,),0,0,2
6:39.086   143671,(,0,0,1
6:39.142   143691,N,0,0,0
6:39.178   143704,),0,0,1
6:39.358   143769,(,0,0,2
6:39.525   143829,t,0,0,0
6:39.656   143876,),0,0,2
6:40.150   144054,(,0,0,1
6:40.222   144080,N,0,0,0
6:40.258   144093,),0,0,1
6:40.411   144148,(,0,0,2
6:40.589   144212,t,0,0,0
6:40.717   144258,),0,0,2
6:41.228   144442,(,0,0,1
6:41.289   144464,N,0,0,0
6:41.325   144477,),0,0,1
6:41.497   144539,(,0,0,2
6:41.650   144594,t,0,0,0
6:41.783   144642,),0,0,2
6:42.297   144827,(,0,0,1
6:42.350   144846,N,0,0,0
6:42.386   144859,),0,0,1
6:42.556   144920,(,0,0,2
6:42.697   144971,t,0,0,0
6:42.850   145026,),0,0,2
6:43.456   145244,(,0,0,1
6:43.519   145267,N,0,0,0
6:43.558   145281,),0,0,1
6:43.775   145359,(,0,0,2
6:43.919   145411,t,0,0,0
6:44.056   145460,),0,0,2
6:44.581   145649,(,0,0,1
6:44.636   145669,N,0,0,0
6:44.675   145683,),0,0,1
6:44.833   145740,(,0,0,2
6:44.978   145792,t,0,0,0
6:45.131   145847,),0,0,2
6:45.650   146034,(,0,0,1
6:45.719   146059,N,0,0,0
6:45.758   146073,),0,0,1
6:45.914   146129,(,0,0,2
6:46.069   146185,t,0,0,0
6:46.225   146241,),0,0,2
6:46.781   146441,(,0,0,1
6:46.828   146458,N,0,0,0
6:46.864   146471,),0,0,1
6:47.028   146530,(,0,0,2
6:47.181   146585,t,0,0,0
6:47.331   146639,),0,0,2
6:47.828   146818,(,0,0,1
6:47.889   146840,N,0,0,0
6:47.928   146854,),0,0,1
6:48.086   146911,(,0,0,2
6:48.244   146968,t,0,0,0
6:48.383   147018,),0,0,2
6:48.978   147232,(,0,0,1
6:49.031   147251,N,0,0,0
6:49.067   147264,),0,0,1
6:49.261   147334,(,0,0,2
6:49.403   147385,t,0,0,0
6:49.567   147444,),0,0,2
6:50.114   147641,(,0,0,1
6:50.172   147662,N,0,0,0
6:50.211   147676,),0,0,1
6:50.275   147699,(,0,0,2
6:50.322   147716,t,0,0,4
6:50.533   147792,t,0,0,4
6:50.697   147851,),0,0,2
6:51.261   148054,(,0,0,1
6:51.303   148069,N,0,0,0
6:51.342   148083,),0,0,1
6:51.500   148140,(,0,0,2
6:51.639   148190,t,0,0,0
6:51.783   148242,),0,0,2
6:52.300   148428,(,0,0,1
6:52.361   148450,N,0,0,0
6:52.397   148463,),0,0,1
6:52.553   148519,(,0,0,2
6:52.742   148587,t,0,0,0
6:52.875   148635,),0,0,2
6:53.381   148817,(,0,0,1
6:53.447   148841,N,0,0,0
6:53.486   148855,),0,0,1
6:53.644   148912,(,0,0,2
6:53.792   148965,t,0,0,5
6:53.969   149029,t,0,0,5
6:54.072   149066,),0,0,2
6:54.483   149214,(,0,0,1
6:54.544   149236,N,0,0,0
6:54.583   149250,),0,0,1
6:54.761   149314,(,0,0,2
6:54.906   149366,t,0,0,0
6:55.072   149426,),0,0,2
6:55.617   149622,(,0,0,1
6:55.667   149640,N,0,0,0
6:55.703   149653,),0,0,1
6:55.869   149713,(,0,0,2
6:56.058   149781,t,0,0,0
6:56.200   149832,),0,0,2
6:56.761   150034,(,0,0,1
6:56.822   150056,N,0,0,0
6:56.861   150070,),0,0,1
6:57.025   150129,(,0,0,2
6:57.192   150189,t,0,0,0
6:57.333   150240,),0,0,2
6:57.844   150424,(,0,0,1
6:57.900   150444,N,0,0,0
6:57.939   150458,),0,0,1
6:58.081   150509,(,0,0,2
6:58.253   150571,t,0,0,0
6:58.375   150615,),0,0,2
6:58.911   150808,(,0,0,1
6:58.956   150824,N,0,0,0
6:58.994   150838,),0,0,1
6:59.142   150891,(,0,0,2
6:59.303   150949,t,0,0,0
6:59.469   151009,),0,0,2
6:59.997   151199,(,0,0,1
7:00.053   151219,N,0,0,0
7:00.092   151233,),0,0,1
7:00.275   151299,(,0,0,2
7:00.428   151354,t,0,0,0
7:00.578   151408,),0,0,2
7:02.219   151999,(,0,0,1
7:02.272   152018,N,0,0,0
7:02.308   152031,),0,0,1
7:02.483   152094,(,0,0,2
7:02.614   152141,t,0,0,0
7:02.792   152205,),0,0,2
7:04.347   152765,(,0,0,1
7:04.408   152787,N,0,0,0
7:04.444   152800,),0,0,1
7:04.625   152865,(,0,0,2
7:04.767   152916,t,0,0,0
7:04.903   152965,),0,0,2
7:05.342   153123,(,0,0,1
7:05.394   153142,N,0,0,0
7:05.433   153156,),0,0,1
7:05.600   153216,(,0,0,2
7:05.761   153274,t,0,0,0
7:05.911   153328,),0,0,2
7:06.431   153515,(,0,0,1
7:06.489   153536,N,0,0,0
7:06.528   153550,),0,0,1
7:06.589   153572,(,0,0,2
7:06.625   153585,t,0,0,4
7:06.906   153686,t,0,0,4
7:07.028   153730,),0,0,2
7:08.561   154282,(,0,0,1
7:08.622   154304,N,0,0,0
7:08.661   154318,),0,0,1
7:08.842   154383,(,0,0,2
7:08.975   154431,t,0,0,0
7:09.125   154485,),0,0,2
7:09.586   154651,(,0,0,1
7:09.644   154672,N,0,0,0
7:09.681   154685,),0,0,1
7:10.008   154803,(,0,0,2
7:10.272   154898,t,0,0,1
7:10.489   154976,),0,0,2
7:11.656   155396,(,0,0,1
7:11.708   155415,N,0,0,0
7:11.744   155428,),0,0,1
7:12.119   155563,(,0,0,2
7:12.331   155639,t,0,0,1
7:12.553   155719,),0,0,2
7:15.864   156911,(,0,0,1
7:15.956   156944,N,0,0,0
7:15.992   156957,),0,0,1
7:16.181   157025,(,0,0,2
7:16.317   157074,t,0,0,0
7:16.469   157129,),0,0,2
7:16.922   157292,(,0,0,1
7:16.994   157318,N,0,0,0
7:17.033   157332,),0,0,1
7:17.083   157350,(,0,0,2
7:17.386   157459,t,0,0,1
7:17.853   157627,),0,0,2
7:26.864   160871,(,0,0,1
7:26.922   160892,N,0,0,0
7:26.956   160904,),0,0,1
7:27.119   160963,(,0,0,2
7:27.264   161015,t,0,0,0
7:27.425   161073,),0,0,2
7:29.067   161664,(,0,0,1
7:29.122   161684,N,0,0,0
7:29.156   161696,),0,0,1
7:47.003   168121,(,0,0,1
7:47.069   168145,N,0,0,0
7:47.106   168158,),0,0,1
7:47.258   168213,(,0,0,2
7:47.386   168259,t,0,0,0
7:47.542   168315,),0,0,2
7:48.061   168502,(,0,0,1
7:48.117   168522,N,0,0,0
7:48.156   168536,),0,0,1
7:48.339   168602,(,0,0,2
7:48.469   168649,t,0,0,0
7:48.617   168702,),0,0,2
7:49.111   168880,(,0,0,1
7:49.175   168903,N,0,0,0
7:49.217   168918,),0,0,1
7:49.394   168982,(,0,0,2
7:49.528   169030,t,0,0,0
7:49.689   169088,),0,0,2
7:50.231   169283,(,0,0,1
7:50.286   169303,N,0,0,0
7:50.325   169317,),0,0,1
7:50.489   169376,(,0,0,2
7:50.650   169434,t,0,0,0
7:50.806   169490,),0,0,2
7:51.297   169667,(,0,0,1
7:51.350   169686,N,0,0,0
7:51.386   169699,),0,0,1
7:51.561   169762,(,0,0,2
7:51.683   169806,t,0,0,0
7:51.828   169858,),0,0,2
7:52.106   169958,(,0,0,0
7:52.128   169966,p,0,0,0
7:52.167   169980,),0,0,0
7:52.300   170028,(,0,0,1
7:52.350   170046,N,0,0,0
7:52.389   170060,),0,0,1
7:52.542   170115,(,0,0,2
7:52.692   170169,t,0,0,0
7:52.831   170219,),0,0,2
7:53.342   170403,(,0,0,1
7:53.400   170424,N,0,0,0
7:53.439   170438,),0,0,1
7:53.508   170463,(,0,0,2
7:53.547   170477,t,0,0,4
7:53.750   170550,t,0,0,4
7:53.867   170592,),0,0,2
7:54.389   170780,(,0,0,1
7:54.444   170800,N,0,0,0
7:54.483   170814,),0,0,1
7:54.661   170878,(,0,0,2
7:54.783   170922,t,0,0,0
7:54.919   170971,),0,0,2
7:55.464   171167,(,0,0,1
7:55.517   171186,N,0,0,0
7:55.558   171201,),0,0,1
7:55.606   171218,(,0,0,2
7:55.661   171238,t,0,0,4
7:55.853   171307,t,0,0,4
7:56.033   171372,),0,0,2
7:56.550   171558,(,0,0,1
7:56.611   171580,N,0,0,0
7:56.653   171595,),0,0,1
7:56.856   171668,(,0,0,2
7:56.983   171714,t,0,0,0
7:57.122   171764,),0,0,2
7:57.572   171926,(,0,0,1
7:57.653   171955,N,0,0,0
7:57.689   171968,),0,0,1
7:57.733   171984,(,0,0,2
7:57.808   172011,t,0,0,4
7:58.006   172082,t,0,0,4
7:58.117   172122,),0,0,2
7:58.631   172307,(,0,0,1
7:58.681   172325,N,0,0,0
7:58.717   172338,),0,0,1
7:58.903   172405,(,0,0,2
7:59.011   172444,t,0,0,0
7:59.150   172494,),0,0,2
7:59.611   172660,(,0,0,1
7:59.672   172682,N,0,0,0
7:59.711   172696,),0,0,1
7:59.761   172714,(,0,0,2
7:59.828   172738,t,0,0,4
8:00.431   172955,t,0,0,4
8:00.475   172971,),0,0,2
8:01.731   173423,(,0,0,1
8:01.808   173451,N,0,0,0
8:01.847   173465,),0,0,1
8:02.044   173536,(,0,0,2
8:02.200   173592,t,0,0,0
8:02.297   173627,),0,0,2
8:02.792   173805,(,0,0,1
8:02.842   173823,N,0,0,0
8:02.881   173837,),0,0,1
8:03.222   173960,(,0,0,2
8:03.450   174042,t,0,0,1
8:03.664   174119,),0,0,2
8:04.742   174507,(,0,0,1
8:04.819   174535,N,0,0,0
8:04.858   174549,),0,0,1
8:05.078   174628,(,0,0,2
8:05.175   174663,t,0,0,0
8:05.292   174705,),0,0,2
8:05.706   174854,(,0,0,1
8:05.761   174874,N,0,0,0
8:05.797   174887,),0,0,1
8:06.228   175042,(,0,0,2
8:06.386   175099,t,0,0,1
8:06.606   175178,),0,0,2
8:09.192   176109,(,0,0,1
8:09.253   176131,N,0,0,0
8:09.292   176145,),0,0,1
8:09.494   176218,(,0,0,2
8:09.622   176264,t,0,0,0
8:09.733   176304,),0,0,2
8:10.306   176510,(,0,0,1
8:10.353   176527,N,0,0,0
8:10.392   176541,),0,0,1
8:10.567   176604,(,0,0,2
8:10.733   176664,t,0,0,0
8:10.836   176701,),0,0,2
8:12.400   177264,(,0,0,1
8:12.458   177285,N,0,0,0
8:12.494   177298,),0,0,1
8:15.597   178415,(,0,0,1
8:15.658   178437,N,0,0,0
8:15.694   178450,),0,0,1
8:16.375   178695,(,0,0,2
8:16.436   178717,t,0,0,0
8:16.481   178733,),0,0,2
8:17.597   179135,(,0,0,1
8:17.650   179154,N,0,0,0
8:17.689   179168,),0,0,1
8:17.742   179187,(,0,0,2
8:17.822   179216,t,0,0,4
8:18.000   179280,t,0,0,4
8:18.128   179326,),0,0,2
8:18.550   179478,(,0,0,1
8:18.608   179499,N,0,0,0
8:18.644   179512,),0,0,1
8:18.689   179528,(,0,0,2
8:18.764   179555,t,0,0,4
8:18.969   179629,t,0,0,4
8:19.064   179663,),0,0,2
8:19.489   179816,(,0,0,1
8:19.564   179843,N,0,0,0
8:19.603   179857,),0,0,1
8:20.053   180019,(,0,0,2
8:20.108   180039,t,0,0,1
8:20.194   180070,),0,0,2
8:22.808   181011,(,0,0,1
8:22.850   181026,N,0,0,0
8:22.883   181038,),0,0,1
8:23.031   181091,(,0,0,2
8:23.208   181155,t,0,0,0
8:23.328   181198,),0,0,2
8:23.828   181378,(,0,0,1
8:23.883   181398,N,0,0,0
8:23.925   181413,),0,0,1
8:24.103   181477,(,0,0,2
8:24.242   181527,t,0,0,0
8:24.389   181580,),0,0,2
8:24.908   181767,(,0,0,1
8:24.969   181789,N,0,0,0
8:25.008   181803,),0,0,1
8:25.197   181871,(,0,0,2
8:25.328   181918,t,0,0,0
8:25.469   181969,),0,0,2
8:25.942   182139,(,0,0,1
8:25.992   182157,N,0,0,0
8:26.031   182171,),0,0,1
8:26.194   182230,(,0,0,2
8:26.356   182288,t,0,0,0
8:26.508   182343,),0,0,2
8:27.044   182536,(,0,0,1
8:27.097   182555,N,0,0,0
8:27.133   182568,),0,0,1
8:27.181   182585,(,0,0,2
8:27.222   182600,t,0,0,4
8:27.433   182676,t,0,0,4
8:27.564   182723,),0,0,2
8:28.058   182901,(,0,0,1
8:28.108   182919,N,0,0,0
8:28.142   182931,),0,0,1
8:28.303   182989,(,0,0,2
8:28.442   183039,t,0,0,0
8:28.583   183090,),0,0,2
8:29.042   183255,(,0,0,1
8:29.089   183272,N,0,0,0
8:29.128   183286,),0,0,1
8:29.297   183347,(,0,0,2
8:29.433   183396,t,0,0,0
8:29.575   183447,),0,0,2
8:30.075   183627,(,0,0,1
8:30.131   183647,N,0,0,0
8:30.167   183660,),0,0,1
8:30.325   183717,(,0,0,2
8:30.467   183768,t,0,0,0
8:30.631   183827,),0,0,2
8:32.225   184401,(,0,0,1
8:32.269   184417,N,0,0,0
8:32.306   184430,),0,0,1
8:32.689   184568,(,0,0,2
8:32.886   184639,t,0,0,1
8:33.117   184722,),0,0,2
8:35.253   185491,(,0,0,1
8:35.300   185508,N,0,0,0
8:35.336   185521,),0,0,1
8:35.492   185577,(,0,0,2
8:35.631   185627,t,0,0,0
8:35.783   185682,),0,0,2
8:36.236   185845,(,0,0,1
8:36.311   185872,N,0,0,0
8:36.350   185886,),0,0,1
8:36.514   185945,(,0,0,2
8:36.667   186000,t,0,0,0
8:36.831   186059,),0,0,2
8:38.856   186788,(,0,0,1
8:38.908   186807,N,0,0,0
8:38.947   186821,),0,0,1
8:39.108   186879,(,0,0,2
8:39.239   186926,t,0,0,0
8:39.392   186981,),0,0,2
8:39.956   187184,(,0,0,1
8:40.031   187211,N,0,0,0
8:40.069   187225,),0,0,1
8:40.242   187287,(,0,0,2
8:40.375   187335,t,0,0,0
8:40.522   187388,),0,0,2
8:42.086   187951,(,0,0,1
8:42.158   187977,N,0,0,0
8:42.197   187991,),0,0,1
8:42.375   188055,(,0,0,2
8:42.531   188111,t,0,0,0
8:42.686   188167,),0,0,2
8:43.181   188345,(,0,0,1
8:43.242   188367,N,0,0,0
8:43.281   188381,),0,0,1
8:43.469   188449,(,0,0,2
8:43.633   188508,t,0,0,0
8:43.767   188556,),0,0,2
8:45.356   189128,(,0,0,1
8:45.408   189147,N,0,0,0
8:45.444   189160,),0,0,1
8:45.519   189187,(,0,0,2
8:45.567   189204,t,0,0,1
8:45.717   189258,),0,0,2
8:46.344   189484,(,0,0,1
8:46.394   189502,N,0,0,0
8:46.431   189515,),0,0,1
8:46.586   189571,(,0,0,2
8:46.742   189627,t,0,0,0
8:46.883   189678,),0,0,2
8:47.383   189858,(,0,0,1
8:47.431   189875,N,0,0,0
8:47.506   189902,),0,0,1
8:51.517   191346,(,0,0,1
8:51.558   191361,N,0,0,0
8:51.594   191374,),0,0,1
8:52.250   191610,(,0,0,2
8:52.308   191631,t,0,0,0
8:52.356   191648,),0,0,2
8:53.433   192036,(,0,0,1
8:53.494   192058,N,0,0,0
8:53.533   192072,),0,0,1
8:53.903   192205,(,0,0,2
8:54.014   192245,t,0,0,1
8:54.314   192353,),0,0,2
8:55.733   192864,(,0,0,1
8:55.778   192880,N,0,0,0
8:55.814   192893,),0,0,1
8:56.022   192968,(,0,0,2
8:56.158   193017,t,0,0,0
8:56.306   193070,),0,0,2
8:57.569   193525,(,0,0,1
8:57.647   193553,N,0,0,0
8:57.678   193564,),0,0,1
8:57.989   193676,(,0,0,2
8:58.044   193696,t,0,0,0
8:58.092   193713,),0,0,2
8:59.192   194109,(,0,0,1
8:59.256   194132,N,0,0,0
8:59.300   194148,),0,0,1
8:59.489   194216,(,0,0,2
8:59.644   194272,t,0,0,0
8:59.722   194300,),0,0,2
9:12.244   198808,(,0,0,0
9:12.286   198823,p,0,0,0
9:12.328   198838,),0,0,0
9:12.339   198842,(,0,0,1
9:12.464   198887,N,0,0,0
9:12.636   198949,),0,0,1
9:12.719   198979,(,0,0,2
9:12.972   199070,t,0,0,1
9:13.242   199167,),0,0,2
9:14.372   199574,(,0,0,0
9:14.422   199592,p,0,0,0
9:14.461   199606,),0,0,0
9:14.558   199641,(,0,0,1
9:14.608   199659,N,0,0,0
9:14.647   199673,),0,0,1
9:14.814   199733,(,0,0,2
9:14.950   199782,t,0,0,0
9:15.114   199841,),0,0,2
9:15.442   199959,(,0,0,0
9:15.486   199975,p,0,0,0
9:15.525   199989,),0,0,0
9:15.625   200025,(,0,0,1
9:15.675   200043,N,0,0,0
9:15.717   200058,),0,0,1
9:15.886   200119,(,0,0,2
9:16.033   200172,t,0,0,0
9:16.158   200217,),0,0,2
9:16.481   200333,(,0,0,0
9:16.525   200349,p,0,0,0
9:16.564   200363,),0,0,0
9:16.647   200393,(,0,0,1
9:16.706   200414,N,0,0,0
9:16.744   200428,),0,0,1
9:16.900   200484,(,0,0,2
9:17.031   200531,t,0,0,0
9:17.194   200590,),0,0,2
9:17.522   200708,(,0,0,0
9:17.567   200724,p,0,0,0
9:17.608   200739,),0,0,0
9:17.703   200773,(,0,0,1
9:17.753   200791,N,0,0,0
9:17.794   200806,),0,0,1
9:17.975   200871,(,0,0,2
9:18.122   200924,t,0,0,0
9:18.294   200986,),0,0,2
9:18.797   201167,(,0,0,0
9:18.842   201183,p,0,0,0
9:18.886   201199,),0,0,0
9:18.897   201203,(,0,0,1
9:19.072   201266,N,0,0,0
9:19.228   201322,),0,0,1
9:19.672   201482,(,0,0,2
9:19.728   201502,t,0,0,0
9:19.775   201519,),0,0,2
9:19.922   201572,(,0,0,0
9:19.972   201590,p,0,0,0
9:19.997   201599,),0,0,0
9:20.269   201697,(,0,0,1
9:20.464   201767,N,0,0,0
9:20.486   201775,),0,0,1
9:20.778   201880,(,0,0,2
9:20.839   201902,t,0,0,0
9:20.889   201920,),0,0,2
9:20.981   201953,(,0,0,0
9:21.022   201968,p,0,0,0
9:21.064   201983,),0,0,0
9:21.072   201986,(,0,0,1
9:21.200   202032,N,0,0,0
9:21.406   202106,),0,0,1
9:21.428   202114,(,0,0,2
9:21.542   202155,t,0,0,1
9:21.619   202183,),0,0,2
9:21.839   202262,(,0,0,0
9:21.886   202279,p,0,0,0
9:21.925   202293,),0,0,0
9:22.014   202325,(,0,0,1
9:22.058   202341,N,0,0,0
9:22.097   202355,),0,0,1
9:22.436   202477,(,0,0,2
9:22.672   202562,t,0,0,1
9:22.872   202634,),0,0,2
9:23.017   202686,(,0,0,0
9:23.058   202701,p,0,0,0
9:23.100   202716,),0,0,0
9:23.142   202731,(,0,0,1
9:23.258   202773,N,0,0,0
9:23.358   202809,),0,0,1
9:23.828   202978,(,0,0,2
9:23.889   203000,t,0,0,0
9:23.944   203020,),0,0,2
9:24.039   203054,(,0,0,0
9:24.083   203070,p,0,0,0
9:24.125   203085,),0,0,0
9:24.133   203088,(,0,0,1
9:24.297   203147,N,0,0,0
9:24.489   203216,),0,0,1
9:24.922   203372,(,0,0,2
9:24.989   203396,t,0,0,0
9:25.031   203411,),0,0,2
9:26.156   203816,(,0,0,0
9:26.200   203832,p,0,0,0
9:26.242   203847,),0,0,0
9:26.250   203850,(,0,0,1
9:26.403   203905,N,0,0,0
9:26.547   203957,),0,0,1
9:26.997   204119,(,0,0,2
9:27.061   204142,t,0,0,0
9:27.108   204159,),0,0,2
9:29.397   204983,(,0,0,0
9:29.436   204997,p,0,0,0
9:29.472   205010,),0,0,0
9:29.564   205043,(,0,0,1
9:29.617   205062,N,0,0,0
9:29.656   205076,),0,0,1
9:29.822   205136,(,0,0,2
9:29.992   205197,t,0,0,0
9:30.144   205252,),0,0,2
9:30.761   205474,(,0,0,0
9:30.808   205491,p,0,0,0
9:30.850   205506,),0,0,0
9:30.861   205510,(,0,0,1
9:30.997   205559,N,0,0,0
9:31.172   205622,),0,0,1
9:31.214   205637,(,0,0,2
9:31.350   205686,t,0,0,1
9:31.378   205696,),0,0,2
9:31.447   205721,(,0,0,1
9:31.722   205820,N,0,0,0
9:31.775   205839,),0,0,1
9:31.781   205841,t,0,0,3
9:31.886   205879,),0,0,2
9:32.839   206222,(,0,0,0
9:32.886   206239,p,0,0,0
9:32.925   206253,),0,0,0
9:32.989   206276,(,0,0,1
9:33.067   206304,N,0,0,0
9:33.103   206317,),0,0,1
9:33.258   206373,(,0,0,2
9:33.431   206435,t,0,0,0
9:33.575   206487,),0,0,2
9:34.931   206975,(,0,0,1
9:35.000   207000,N,0,0,0
9:35.033   207012,),0,0,1
9:35.125   207045,(,0,0,2
9:35.172   207062,t,0,0,0
9:35.219   207079,),0,0,2
9:35.914   207329,(,0,0,1
9:36.022   207368,N,0,0,0
9:36.058   207381,),0,0,1
9:36.147   207413,(,0,0,2
9:36.197   207431,t,0,0,0
9:36.244   207448,),0,0,2
9:41.142   209211,(,0,0,0
9:41.186   209227,p,0,0,0
9:41.225   209241,),0,0,0
9:41.314   209273,(,0,0,1
9:41.364   209291,N,0,0,0
9:41.406   209306,),0,0,1
9:41.764   209435,(,0,0,2
9:41.881   209477,t,0,0,1
9:42.156   209576,),0,0,2
9:45.022   210608,(,0,0,1
9:45.153   210655,N,0,0,0
9:45.275   210699,),0,0,1
9:45.742   210867,(,0,0,2
9:45.789   210884,t,0,0,5
9:45.839   210902,t,0,0,5
9:45.875   210915,),0,0,2
9:46.622   211184,(,0,0,0
9:46.661   211198,p,0,0,0
9:46.700   211212,),0,0,0
9:46.772   211238,(,0,0,1
9:46.844   211264,N,0,0,0
9:46.881   211277,),0,0,1
9:47.072   211346,(,0,0,2
9:47.203   211393,t,0,0,0
9:47.325   211437,),0,0,2
9:47.644   211552,(,0,0,0
9:47.700   211572,p,0,0,0
9:47.739   211586,),0,0,0
9:47.822   211616,(,0,0,1
9:47.886   211639,N,0,0,0
9:47.922   211652,),0,0,1
9:48.086   211711,(,0,0,2
9:48.253   211771,t,0,0,0
9:48.389   211820,),0,0,2
   10:22.139   223970,(,0,0,0
   10:22.181   223985,p,0,0,0
   10:22.219   223999,),0,0,0
   10:22.300   224028,(,0,0,1
   10:22.361   224050,N,0,0,0
   10:22.397   224063,),0,0,1
   10:22.536   224113,(,0,0,2
   10:22.703   224173,t,0,0,0
   10:22.847   224225,),0,0,2
   11:03.106   238718,(,0,0,0
   11:03.147   238733,p,0,0,0
   11:03.186   238747,),0,0,0
   11:03.283   238782,(,0,0,1
   11:03.336   238801,N,0,0,0
   11:03.372   238814,),0,0,1
   11:03.531   238871,(,0,0,2
   11:03.681   238925,t,0,0,0
   11:03.811   238972,),0,0,2
   11:04.231   239123,(,0,0,0
   11:04.269   239137,p,0,0,0
   11:04.308   239151,),0,0,0
   11:04.400   239184,(,0,0,1
   11:04.456   239204,N,0,0,0
   11:04.494   239218,),0,0,1
   11:04.675   239283,(,0,0,2
   11:04.794   239326,t,0,0,0
   11:04.958   239385,),0,0,2
   11:05.422   239552,(,0,0,0
   11:05.469   239569,p,0,0,0
   11:05.508   239583,),0,0,0
   11:05.608   239619,(,0,0,1
   11:05.664   239639,N,0,0,0
   11:05.703   239653,),0,0,1
   11:05.867   239712,(,0,0,2
   11:05.997   239759,t,0,0,0
   11:06.150   239814,),0,0,2
   11:06.486   239935,(,0,0,0
   11:06.536   239953,p,0,0,0
   11:06.575   239967,),0,0,0
   11:06.669   240001,(,0,0,1
   11:06.731   240023,N,0,0,0
   11:06.767   240036,),0,0,1
   11:06.944   240100,(,0,0,2
   11:07.075   240147,t,0,0,0
   11:07.250   240210,),0,0,2
   11:07.644   240352,(,0,0,0
   11:07.694   240370,p,0,0,0
   11:07.736   240385,),0,0,0
   11:07.839   240422,(,0,0,1
   11:07.903   240445,N,0,0,0
   11:07.942   240459,),0,0,1
   11:08.125   240525,(,0,0,2
   11:08.267   240576,t,0,0,0
   11:08.436   240637,),0,0,2
   11:08.806   240770,(,0,0,0
   11:08.847   240785,p,0,0,0
   11:08.886   240799,),0,0,0
   11:08.986   240835,(,0,0,1
   11:09.044   240856,N,0,0,0
   11:09.081   240869,),0,0,1
   11:09.253   240931,(,0,0,2
   11:09.389   240980,t,0,0,0
   11:09.522   241028,),0,0,2
   11:09.811   241132,(,0,0,0
   11:09.867   241152,p,0,0,0
   11:09.906   241166,),0,0,0
   11:10.003   241201,(,0,0,1
   11:10.053   241219,N,0,0,0
   11:10.086   241231,),0,0,1
   11:10.136   241249,(,0,0,2
   11:10.200   241272,t,0,0,4
   11:10.364   241331,t,0,0,4
   11:10.539   241394,),0,0,2
   11:10.847   241505,(,0,0,0
   11:10.889   241520,p,0,0,0
   11:10.925   241533,),0,0,0
   11:11.006   241562,(,0,0,1
   11:11.072   241586,N,0,0,0
   11:11.108   241599,),0,0,1
   11:11.272   241658,(,0,0,2
   11:11.414   241709,t,0,0,0
   11:11.583   241770,),0,0,2
   11:11.933   241896,(,0,0,0
   11:11.978   241912,p,0,0,0
   11:12.017   241926,),0,0,0
   11:12.117   241962,(,0,0,1
   11:12.178   241984,N,0,0,0
   11:12.219   241999,),0,0,1
   11:12.381   242057,(,0,0,2
   11:12.511   242104,t,0,0,0
   11:12.681   242165,),0,0,2
   11:13.053   242299,(,0,0,0
   11:13.097   242315,p,0,0,0
   11:13.136   242329,),0,0,0
   11:13.239   242366,(,0,0,1
   11:13.289   242384,N,0,0,0
   11:13.328   242398,),0,0,1
   11:13.506   242462,(,0,0,2
   11:13.617   242502,t,0,0,0
   11:13.781   242561,),0,0,2
   11:14.153   242695,(,0,0,0
   11:14.200   242712,p,0,0,0
   11:14.244   242728,),0,0,0
   11:14.350   242766,(,0,0,1
   11:14.403   242785,N,0,0,0
   11:14.442   242799,),0,0,1
   11:14.664   242879,(,0,0,2
   11:14.744   242908,t,0,0,0
   11:14.889   242960,),0,0,2
   11:15.225   243081,(,0,0,0
   11:15.258   243093,p,0,0,0
   11:15.294   243106,),0,0,0
   11:15.394   243142,(,0,0,1
   11:15.447   243161,N,0,0,0
   11:15.483   243174,),0,0,1
   11:15.556   243200,(,0,0,2
   11:15.578   243208,t,0,0,4
   11:15.856   243308,t,0,0,4
   11:15.939   243338,),0,0,2
   11:16.194   243430,(,0,0,0
   11:16.256   243452,p,0,0,0
   11:16.289   243464,),0,0,0
   11:16.389   243500,(,0,0,1
   11:16.439   243518,N,0,0,0
   11:16.475   243531,),0,0,1
   11:16.633   243588,(,0,0,2
   11:16.753   243631,t,0,0,0
   11:16.783   243642,),0,0,2
   11:17.231   243803,(,0,0,0
   11:17.264   243815,p,0,0,0
   11:17.300   243828,),0,0,0
   11:17.394   243862,(,0,0,1
   11:17.444   243880,N,0,0,0
   11:17.481   243893,),0,0,1
   11:17.525   243909,(,0,0,2
   11:17.583   243930,t,0,0,4
   11:17.761   243994,t,0,0,4
   11:17.931   244055,),0,0,2
   11:18.228   244162,(,0,0,0
   11:18.278   244180,p,0,0,0
   11:18.317   244194,),0,0,0
   11:18.414   244229,(,0,0,1
   11:18.478   244252,N,0,0,0
   11:18.517   244266,),0,0,1
   11:18.683   244326,(,0,0,2
   11:18.847   244385,t,0,0,0
   11:19.025   244449,),0,0,2
   11:19.336   244561,(,0,0,0
   11:19.394   244582,p,0,0,0
   11:19.433   244596,),0,0,0
   11:19.542   244635,(,0,0,1
   11:19.594   244654,N,0,0,0
   11:19.633   244668,),0,0,1
   11:19.789   244724,(,0,0,2
   11:19.956   244784,t,0,0,0
   11:20.094   244834,),0,0,2
   11:20.406   244946,(,0,0,0
   11:20.456   244964,p,0,0,0
   11:20.494   244978,),0,0,0
   11:20.600   245016,(,0,0,1
   11:20.653   245035,N,0,0,0
   11:20.694   245050,),0,0,1
   11:20.861   245110,(,0,0,2
   11:21.006   245162,t,0,0,0
   11:21.164   245219,),0,0,2
   11:21.511   245344,(,0,0,0
   11:21.556   245360,p,0,0,0
   11:21.594   245374,),0,0,0
   11:21.689   245408,(,0,0,1
   11:21.739   245426,N,0,0,0
   11:21.778   245440,),0,0,1
   11:21.822   245456,(,0,0,2
   11:21.889   245480,t,0,0,4
   11:22.064   245543,t,0,0,4
   11:22.222   245600,),0,0,2
   11:22.506   245702,(,0,0,0
   11:22.553   245719,p,0,0,0
   11:22.589   245732,),0,0,0
   11:22.678   245764,(,0,0,1
   11:22.725   245781,N,0,0,0
   11:22.761   245794,),0,0,1
   11:22.808   245811,(,0,0,2
   11:22.856   245828,t,0,0,4
   11:23.050   245898,t,0,0,4
   11:23.208   245955,),0,0,2
   11:23.508   246063,(,0,0,0
   11:23.561   246082,p,0,0,0
   11:23.600   246096,),0,0,0
   11:23.700   246132,(,0,0,1
   11:23.750   246150,N,0,0,0
   11:23.792   246165,),0,0,1
   11:23.964   246227,(,0,0,2
   11:24.108   246279,t,0,0,0
   11:24.236   246325,),0,0,2
   11:24.583   246450,(,0,0,0
   11:24.633   246468,p,0,0,0
   11:24.672   246482,),0,0,0
   11:24.781   246521,(,0,0,1
   11:24.833   246540,N,0,0,0
   11:24.875   246555,),0,0,1
   11:25.044   246616,(,0,0,2
   11:25.175   246663,t,0,0,0
   11:25.358   246729,),0,0,2
   11:25.722   246860,(,0,0,0
   11:25.772   246878,p,0,0,0
   11:25.811   246892,),0,0,0
   11:25.908   246927,(,0,0,1
   11:25.961   246946,N,0,0,0
   11:26.003   246961,),0,0,1
   11:26.161   247018,(,0,0,2
   11:26.308   247071,t,0,0,0
   11:26.478   247132,),0,0,2
   11:26.828   247258,(,0,0,0
   11:26.869   247273,p,0,0,0
   11:26.908   247287,),0,0,0
   11:27.006   247322,(,0,0,1
   11:27.056   247340,N,0,0,0
   11:27.094   247354,),0,0,1
   11:27.242   247407,(,0,0,2
   11:27.378   247456,t,0,0,0
   11:27.550   247518,),0,0,2
   11:27.892   247641,(,0,0,0
   11:27.942   247659,p,0,0,0
   11:27.981   247673,),0,0,0
   11:28.089   247712,(,0,0,1
   11:28.142   247731,N,0,0,0
   11:28.181   247745,),0,0,1
   11:28.333   247800,(,0,0,2
   11:28.486   247855,t,0,0,0
   11:28.622   247904,),0,0,2
   11:28.972   248030,(,0,0,0
   11:29.017   248046,p,0,0,0
   11:29.056   248060,),0,0,0
   11:29.156   248096,(,0,0,1
   11:29.203   248113,N,0,0,0
   11:29.244   248128,),0,0,1
   11:29.383   248178,(,0,0,2
   11:29.531   248231,t,0,0,0
   11:29.683   248286,),0,0,2
   11:30.042   248415,(,0,0,0
   11:30.083   248430,p,0,0,0
   11:30.122   248444,),0,0,0
   11:30.228   248482,(,0,0,1
   11:30.283   248502,N,0,0,0
   11:30.322   248516,),0,0,1
   11:30.508   248583,(,0,0,2
   11:30.667   248640,t,0,0,0
   11:30.800   248688,),0,0,2
   11:31.144   248812,(,0,0,0
   11:31.203   248833,p,0,0,0
   11:31.242   248847,),0,0,0
   11:31.347   248885,(,0,0,1
   11:31.406   248906,N,0,0,0
   11:31.447   248921,),0,0,1
   11:31.617   248982,(,0,0,2
   11:31.775   249039,t,0,0,0
   11:31.933   249096,),0,0,2
   11:32.289   249224,(,0,0,0
   11:32.339   249242,p,0,0,0
   11:32.381   249257,),0,0,0
   11:32.481   249293,(,0,0,1
   11:32.531   249311,N,0,0,0
   11:32.567   249324,),0,0,1
   11:32.614   249341,(,0,0,2
   11:32.897   249443,t,0,0,1
   11:33.275   249579,),0,0,2
   11:33.347   249605,(,0,0,0
   11:33.392   249621,p,0,0,0
   11:33.428   249634,),0,0,0
   11:33.522   249668,(,0,0,1
   11:33.575   249687,N,0,0,0
   11:33.608   249699,),0,0,1
   11:33.781   249761,(,0,0,2
   11:33.922   249812,t,0,0,0
   11:34.058   249861,),0,0,2
   11:34.344   249964,(,0,0,0
   11:34.394   249982,p,0,0,0
   11:34.431   249995,),0,0,0
   11:34.511   250024,(,0,0,1
   11:34.592   250053,N,0,0,0
   11:34.628   250066,),0,0,1
   11:34.803   250129,(,0,0,2
   11:34.933   250176,t,0,0,0
   11:35.083   250230,),0,0,2
   11:35.403   250345,(,0,0,0
   11:35.456   250364,p,0,0,0
   11:35.494   250378,),0,0,0
   11:35.594   250414,(,0,0,1
   11:35.650   250434,N,0,0,0
   11:35.686   250447,),0,0,1
   11:35.739   250466,(,0,0,2
   11:35.794   250486,t,0,0,4
   11:35.967   250548,t,0,0,4
   11:36.128   250606,),0,0,2
   11:36.481   250733,(,0,0,0
   11:36.533   250752,p,0,0,0
   11:36.572   250766,),0,0,0
   11:36.658   250797,(,0,0,1
   11:36.725   250821,N,0,0,0
   11:36.761   250834,),0,0,1
   11:36.911   250888,(,0,0,2
   11:37.069   250945,t,0,0,0
   11:37.258   251013,),0,0,2
   11:37.581   251129,(,0,0,0
   11:37.619   251143,p,0,0,0
   11:37.658   251157,),0,0,0
   11:37.767   251196,(,0,0,1
   11:37.828   251218,N,0,0,0
   11:37.867   251232,),0,0,1
   11:38.111   251320,(,0,0,2
   11:38.217   251358,t,0,0,0
   11:38.347   251405,),0,0,2
   11:38.664   251519,(,0,0,0
   11:38.706   251534,p,0,0,0
   11:38.742   251547,),0,0,0
   11:38.847   251585,(,0,0,1
   11:38.903   251605,N,0,0,0
   11:38.939   251618,),0,0,1
   11:39.164   251699,(,0,0,2
   11:39.225   251721,t,0,0,0
   11:39.397   251783,),0,0,2
   11:39.694   251890,(,0,0,0
   11:39.739   251906,p,0,0,0
   11:39.778   251920,),0,0,0
   11:39.867   251952,(,0,0,1
   11:39.922   251972,N,0,0,0
   11:39.956   251984,),0,0,1
   11:40.136   252049,(,0,0,2
   11:40.258   252093,t,0,0,0
   11:40.394   252142,),0,0,2
   11:40.647   252233,(,0,0,0
   11:40.697   252251,p,0,0,0
   11:40.733   252264,),0,0,0
   11:40.831   252299,(,0,0,1
   11:40.889   252320,N,0,0,0
   11:40.925   252333,),0,0,1
   11:41.092   252393,(,0,0,2
   11:41.242   252447,t,0,0,0
   11:41.394   252502,),0,0,2
   11:41.642   252591,(,0,0,0
   11:41.694   252610,p,0,0,0
   11:41.733   252624,),0,0,0
   11:41.831   252659,(,0,0,1
   11:41.881   252677,N,0,0,0
   11:41.917   252690,),0,0,1
   11:42.103   252757,(,0,0,2
   11:42.214   252797,t,0,0,0
   11:42.333   252840,),0,0,2
   11:42.631   252947,(,0,0,0
   11:42.664   252959,p,0,0,0
   11:42.703   252973,),0,0,0
   11:42.783   253002,(,0,0,1
   11:42.858   253029,N,0,0,0
   11:42.892   253041,),0,0,1
   11:42.978   253072,(,0,0,2
   11:43.008   253083,t,0,0,4
   11:43.206   253154,t,0,0,4
   11:43.361   253210,),0,0,2
   11:46.044   254176,(,0,0,0
   11:46.094   254194,p,0,0,0
   11:46.133   254208,),0,0,0
   11:46.211   254236,(,0,0,1
   11:46.275   254259,N,0,0,0
   11:46.311   254272,),0,0,1
   11:46.650   254394,(,0,0,2
   11:46.864   254471,t,0,0,1
   11:47.094   254554,),0,0,2
   11:52.292   256425,(,0,0,0
   11:52.339   256442,p,0,0,0
   11:52.375   256455,),0,0,0
   11:52.461   256486,(,0,0,1
   11:52.517   256506,N,0,0,0
   11:52.550   256518,),0,0,1
   11:52.717   256578,(,0,0,2
   11:52.836   256621,t,0,0,0
   11:52.989   256676,),0,0,2
   11:53.222   256760,(,0,0,0
   11:53.267   256776,p,0,0,0
   11:53.300   256788,),0,0,0
   11:53.369   256813,(,0,0,1
   11:53.447   256841,N,0,0,0
   11:53.483   256854,),0,0,1
   11:53.864   256991,(,0,0,2
   11:53.958   257025,t,0,0,1
   11:54.011   257044,),0,0,2
   11:54.153   257095,(,0,0,0
   11:54.206   257114,p,0,0,0
   11:54.247   257129,),0,0,0
   11:54.344   257164,(,0,0,1
   11:54.406   257186,N,0,0,0
   11:54.442   257199,),0,0,1
   11:54.617   257262,(,0,0,2
   11:54.772   257318,t,0,0,0
   11:54.931   257375,),0,0,2
   11:56.289   257864,(,0,0,0
   11:56.347   257885,p,0,0,0
   11:56.386   257899,),0,0,0
   11:56.483   257934,(,0,0,1
   11:56.542   257955,N,0,0,0
   11:56.578   257968,),0,0,1
   11:56.750   258030,(,0,0,2
   11:56.881   258077,t,0,0,0
   11:57.025   258129,),0,0,2
   11:57.278   258220,(,0,0,0
   11:57.319   258235,p,0,0,0
   11:57.358   258249,),0,0,0
   11:57.450   258282,(,0,0,1
   11:57.503   258301,N,0,0,0
   11:57.536   258313,),0,0,1
   11:57.678   258364,(,0,0,2
   11:57.839   258422,t,0,0,0
   11:57.978   258472,),0,0,2
   11:58.189   258548,(,0,0,0
   11:58.236   258565,p,0,0,0
   11:58.272   258578,),0,0,0
   11:58.361   258610,(,0,0,1
   11:58.414   258629,N,0,0,0
   11:58.447   258641,),0,0,1
   11:58.608   258699,(,0,0,2
   11:58.767   258756,t,0,0,0
   11:58.856   258788,),0,0,2
   11:59.469   259009,(,0,0,0
   11:59.508   259023,p,0,0,0
   11:59.547   259037,),0,0,0
   11:59.633   259068,(,0,0,1
   11:59.692   259089,N,0,0,0
   11:59.728   259102,),0,0,1
   11:59.897   259163,(,0,0,2
   12:00.042   259215,t,0,0,0
   12:00.194   259270,),0,0,2
   12:05.842   261303,(,0,0,0
   12:05.883   261318,p,0,0,0
   12:05.919   261331,),0,0,0
   12:06.008   261363,(,0,0,1
   12:06.069   261385,N,0,0,0
   12:06.106   261398,),0,0,1
   12:06.325   261477,(,0,0,2
   12:06.436   261517,t,0,0,0
   12:06.481   261533,),0,0,2
   12:06.833   261660,(,0,0,0
   12:06.883   261678,p,0,0,0
   12:06.919   261691,),0,0,0
   12:07.014   261725,(,0,0,1
   12:07.067   261744,N,0,0,0
   12:07.106   261758,),0,0,1
   12:07.506   261902,(,0,0,2
   12:07.608   261939,t,0,0,1
   12:07.883   262038,),0,0,2
   12:08.856   262388,(,0,0,0
   12:08.900   262404,p,0,0,0
   12:08.939   262418,),0,0,0
   12:09.036   262453,(,0,0,1
   12:09.089   262472,N,0,0,0
   12:09.128   262486,),0,0,1
   12:09.278   262540,(,0,0,2
   12:09.417   262590,t,0,0,0
   12:09.567   262644,),0,0,2
   12:10.228   262882,(,0,0,0
   12:10.261   262894,p,0,0,0
   12:10.300   262908,),0,0,0
   12:10.383   262938,(,0,0,1
   12:10.436   262957,N,0,0,0
   12:10.475   262971,),0,0,1
   12:10.522   262988,(,0,0,2
   12:10.603   263017,t,0,0,1
   12:10.750   263070,),0,0,2
   12:10.839   263102,(,0,0,0
   12:10.883   263118,p,0,0,0
   12:10.928   263134,),0,0,0
   12:11.039   263174,(,0,0,1
   12:11.089   263192,N,0,0,0
   12:11.122   263204,),0,0,1
   12:11.178   263224,(,0,0,2
   12:11.253   263251,t,0,0,4
   12:11.408   263307,t,0,0,4
   12:11.550   263358,),0,0,2
   12:12.164   263579,(,0,0,0
   12:12.211   263596,p,0,0,0
   12:12.250   263610,),0,0,0
   12:12.322   263636,(,0,0,1
   12:12.411   263668,N,0,0,0
   12:12.453   263683,),0,0,1
   12:12.636   263749,(,0,0,2
   12:12.808   263811,t,0,0,0
   12:12.942   263859,),0,0,2
   12:14.622   264464,(,0,0,0
   12:14.675   264483,p,0,0,0
   12:14.714   264497,),0,0,0
   12:14.783   264522,(,0,0,1
   12:14.872   264554,N,0,0,0
   12:14.908   264567,),0,0,1
   12:15.056   264620,(,0,0,2
   12:15.236   264685,t,0,0,0
   12:15.361   264730,),0,0,2
   12:16.764   265235,(,0,0,0
   12:16.803   265249,p,0,0,0
   12:16.839   265262,),0,0,0
   12:16.931   265295,(,0,0,1
   12:16.983   265314,N,0,0,0
   12:17.019   265327,),0,0,1
   12:17.186   265387,(,0,0,2
   12:17.328   265438,t,0,0,0
   12:17.456   265484,),0,0,2
   12:17.764   265595,(,0,0,0
   12:17.811   265612,p,0,0,0
   12:17.847   265625,),0,0,0
   12:17.939   265658,(,0,0,1
   12:17.997   265679,N,0,0,0
   12:18.036   265693,),0,0,1
   12:18.194   265750,(,0,0,2
   12:18.344   265804,t,0,0,0
   12:18.514   265865,),0,0,2
   12:18.856   265988,(,0,0,0
   12:18.906   266006,p,0,0,0
   12:18.944   266020,),0,0,0
   12:19.036   266053,(,0,0,1
   12:19.111   266080,N,0,0,0
   12:19.150   266094,),0,0,1
   12:19.306   266150,(,0,0,2
   12:19.467   266208,t,0,0,0
   12:19.617   266262,),0,0,2
   12:21.011   266764,(,0,0,0
   12:21.056   266780,p,0,0,0
   12:21.094   266794,),0,0,0
   12:21.192   266829,(,0,0,1
   12:21.242   266847,N,0,0,0
   12:21.281   266861,),0,0,1
   12:21.447   266921,(,0,0,2
   12:21.589   266972,t,0,0,0
   12:21.750   267030,),0,0,2
   12:22.031   267131,(,0,0,0
   12:22.072   267146,p,0,0,0
   12:22.111   267160,),0,0,0
   12:22.200   267192,(,0,0,1
   12:22.253   267211,N,0,0,0
   12:22.289   267224,),0,0,1
   12:22.439   267278,(,0,0,2
   12:22.589   267332,t,0,0,0
   12:22.753   267391,),0,0,2
   12:22.994   267478,(,0,0,0
   12:23.036   267493,p,0,0,0
   12:23.075   267507,),0,0,0
   12:23.161   267538,(,0,0,1
   12:23.211   267556,N,0,0,0
   12:23.250   267570,),0,0,1
   12:23.397   267623,(,0,0,2
   12:23.539   267674,t,0,0,0
   12:23.703   267733,),0,0,2
   12:24.006   267842,(,0,0,0
   12:24.053   267859,p,0,0,0
   12:24.092   267873,),0,0,0
   12:24.197   267911,(,0,0,1
   12:24.250   267930,N,0,0,0
   12:24.289   267944,),0,0,1
   12:24.350   267966,(,0,0,2
   12:24.397   267983,t,0,0,4
   12:24.597   268055,t,0,0,4
   12:24.767   268116,),0,0,2
   12:26.103   268597,(,0,0,0
   12:26.128   268606,p,0,0,0
   12:26.247   268649,),0,0,0
   12:26.319   268675,(,0,0,1
   12:26.383   268698,N,0,0,0
   12:26.417   268710,),0,0,1
   12:27.100   268956,(,0,0,2
   12:27.144   268972,t,0,0,0
   12:27.192   268989,),0,0,2
   12:28.008   269283,(,0,0,0
   12:28.050   269298,p,0,0,0
   12:28.089   269312,),0,0,0
   12:28.192   269349,(,0,0,1
   12:28.242   269367,N,0,0,0
   12:28.281   269381,),0,0,1
   12:28.325   269397,(,0,0,2
   12:28.350   269406,t,0,0,4
   12:28.583   269490,t,0,0,4
   12:28.750   269550,),0,0,2
   12:30.239   270086,(,0,0,0
   12:30.292   270105,p,0,0,0
   12:30.331   270119,),0,0,0
   12:30.433   270156,(,0,0,1
   12:30.486   270175,N,0,0,0
   12:30.525   270189,),0,0,1
   12:30.572   270206,(,0,0,2
   12:30.628   270226,t,0,0,4
   12:30.861   270310,t,0,0,4
   12:31.008   270363,),0,0,2
   12:31.347   270485,(,0,0,0
   12:31.394   270502,p,0,0,0
   12:31.431   270515,),0,0,0
   12:31.536   270553,(,0,0,1
   12:31.592   270573,N,0,0,0
   12:31.631   270587,),0,0,1
   12:31.794   270646,(,0,0,2
   12:31.953   270703,t,0,0,0
   12:32.117   270762,),0,0,2
   12:33.578   271288,(,0,0,0
   12:33.622   271304,p,0,0,0
   12:33.661   271318,),0,0,0
   12:33.758   271353,(,0,0,1
   12:33.811   271372,N,0,0,0
   12:33.847   271385,),0,0,1
   12:34.169   271501,(,0,0,2
   12:34.294   271546,t,0,0,1
   12:34.658   271677,),0,0,2
   12:39.861   273550,(,0,0,0
   12:39.906   273566,p,0,0,0
   12:39.942   273579,),0,0,0
   12:40.036   273613,(,0,0,1
   12:40.089   273632,N,0,0,0
   12:40.128   273646,),0,0,1
   12:40.281   273701,(,0,0,2
   12:40.425   273753,t,0,0,0
   12:40.569   273805,),0,0,2
   12:40.844   273904,(,0,0,0
   12:40.892   273921,p,0,0,0
   12:40.928   273934,),0,0,0
   12:41.025   273969,(,0,0,1
   12:41.081   273989,N,0,0,0
   12:41.117   274002,),0,0,1
   12:41.297   274067,(,0,0,2
   12:41.444   274120,t,0,0,0
   12:41.583   274170,),0,0,2
   12:43.361   274810,(,0,0,0
   12:43.397   274823,p,0,0,0
   12:43.436   274837,),0,0,0
   12:43.533   274872,(,0,0,1
   12:43.589   274892,N,0,0,0
   12:43.628   274906,),0,0,1
   12:43.833   274980,(,0,0,2
   12:43.964   275027,t,0,0,0
   12:44.097   275075,),0,0,2
   12:45.561   275602,(,0,0,0
   12:45.606   275618,p,0,0,0
   12:45.644   275632,),0,0,0
   12:45.739   275666,(,0,0,1
   12:45.794   275686,N,0,0,0
   12:45.833   275700,),0,0,1
   12:46.047   275777,(,0,0,2
   12:46.178   275824,t,0,0,0
   12:46.289   275864,),0,0,2
   12:46.569   275965,(,0,0,0
   12:46.619   275983,p,0,0,0
   12:46.658   275997,),0,0,0
   12:46.750   276030,(,0,0,1
   12:46.808   276051,N,0,0,0
   12:46.847   276065,),0,0,1
   12:47.186   276187,(,0,0,2
   12:47.433   276276,t,0,0,1
   12:47.631   276347,),0,0,2
   12:50.772   277478,(,0,0,0
   12:50.817   277494,p,0,0,0
   12:50.853   277507,),0,0,0
   12:50.933   277536,(,0,0,1
   12:51.011   277564,N,0,0,0
   12:51.047   277577,),0,0,1
   12:51.117   277602,(,0,0,2
   12:51.164   277619,t,0,0,4
   12:51.419   277711,t,0,0,4
   12:51.458   277725,),0,0,2
   12:51.717   277818,(,0,0,0
   12:51.761   277834,p,0,0,0
   12:51.800   277848,),0,0,0
   12:51.900   277884,(,0,0,1
   12:51.958   277905,N,0,0,0
   12:51.992   277917,),0,0,1
   12:52.200   277992,(,0,0,2
   12:52.300   278028,t,0,0,0
   12:52.439   278078,),0,0,2
   12:52.797   278207,(,0,0,0
   12:52.844   278224,p,0,0,0
   12:52.883   278238,),0,0,0
   12:52.975   278271,(,0,0,1
   12:53.025   278289,N,0,0,0
   12:53.061   278302,),0,0,1
   12:53.214   278357,(,0,0,2
   12:53.397   278423,t,0,0,0
   12:53.525   278469,),0,0,2
   12:53.811   278572,(,0,0,0
   12:53.856   278588,p,0,0,0
   12:53.894   278602,),0,0,0
   12:53.978   278632,(,0,0,1
   12:54.044   278656,N,0,0,0
   12:54.081   278669,),0,0,1
   12:54.133   278688,(,0,0,2
   12:54.194   278710,t,0,0,4
   12:54.400   278784,t,0,0,4
   12:54.536   278833,),0,0,2
   12:54.872   278954,(,0,0,0
   12:54.922   278972,p,0,0,0
   12:54.964   278987,),0,0,0
   12:55.069   279025,(,0,0,1
   12:55.131   279047,N,0,0,0
   12:55.169   279061,),0,0,1
   12:55.383   279138,(,0,0,2
   12:55.561   279202,t,0,0,0
   12:55.672   279242,),0,0,2
   12:55.933   279336,(,0,0,0
   12:56.000   279360,p,0,0,0
   12:56.039   279374,),0,0,0
   12:56.136   279409,(,0,0,1
   12:56.197   279431,N,0,0,0
   12:56.236   279445,),0,0,1
   12:56.394   279502,(,0,0,2
   12:56.544   279556,t,0,0,0
   12:56.686   279607,),0,0,2
   12:56.969   279709,(,0,0,0
   12:57.014   279725,p,0,0,0
   12:57.050   279738,),0,0,0
   12:57.153   279775,(,0,0,1
   12:57.203   279793,N,0,0,0
   12:57.239   279806,),0,0,1
   12:57.633   279948,(,0,0,2
   12:57.708   279975,t,0,0,1
   12:57.739   279986,),0,0,2
   12:57.958   280065,(,0,0,0
   12:58.000   280080,p,0,0,0
   12:58.036   280093,),0,0,0
   12:58.128   280126,(,0,0,1
   12:58.178   280144,N,0,0,0
   12:58.214   280157,),0,0,1
   12:58.289   280184,(,0,0,2
   12:58.317   280194,t,0,0,4
   12:58.539   280274,t,0,0,4
   12:58.675   280323,),0,0,2
   12:58.922   280412,(,0,0,0
   12:58.969   280429,p,0,0,0
   12:59.014   280445,),0,0,0
   12:59.108   280479,(,0,0,1
   12:59.164   280499,N,0,0,0
   12:59.203   280513,),0,0,1
   12:59.356   280568,(,0,0,2
   12:59.511   280624,t,0,0,0
   12:59.664   280679,),0,0,2
   13:00.153   280855,(,0,0,0
   13:00.206   280874,p,0,0,0
   13:00.253   280891,),0,0,0
   13:00.344   280924,(,0,0,1
   13:00.397   280943,N,0,0,0
   13:00.436   280957,),0,0,1
   13:00.603   281017,(,0,0,2
   13:00.744   281068,t,0,0,0
   13:00.908   281127,),0,0,2
   13:01.475   281331,(,0,0,0
   13:01.519   281347,p,0,0,0
   13:01.558   281361,),0,0,0
   13:01.656   281396,(,0,0,1
   13:01.714   281417,N,0,0,0
   13:01.753   281431,),0,0,1
   13:01.939   281498,(,0,0,2
   13:02.114   281561,t,0,0,0
   13:02.269   281617,),0,0,2
   13:02.722   281780,(,0,0,0
   13:02.764   281795,p,0,0,0
   13:02.803   281809,),0,0,0
   13:02.903   281845,(,0,0,1
   13:02.956   281864,N,0,0,0
   13:02.994   281878,),0,0,1
   13:03.147   281933,(,0,0,2
   13:03.281   281981,t,0,0,0
   13:03.436   282037,),0,0,2
   13:03.811   282172,(,0,0,0
   13:03.853   282187,p,0,0,0
   13:03.892   282201,),0,0,0
   13:03.978   282232,(,0,0,1
   13:04.028   282250,N,0,0,0
   13:04.067   282264,),0,0,1
   13:04.222   282320,(,0,0,2
   13:04.378   282376,t,0,0,0
   13:04.522   282428,),0,0,2
   13:04.850   282546,(,0,0,0
   13:04.897   282563,p,0,0,0
   13:04.936   282577,),0,0,0
   13:05.036   282613,(,0,0,1
   13:05.089   282632,N,0,0,0
   13:05.128   282646,),0,0,1
   13:05.303   282709,(,0,0,2
   13:05.439   282758,t,0,0,0
   13:05.608   282819,),0,0,2
   13:05.947   282941,(,0,0,0
   13:05.997   282959,p,0,0,0
   13:06.036   282973,),0,0,0
   13:06.139   283010,(,0,0,1
   13:06.192   283029,N,0,0,0
   13:06.228   283042,),0,0,1
   13:06.300   283068,(,0,0,2
   13:06.328   283078,t,0,0,4
   13:06.564   283163,t,0,0,4
   13:06.719   283219,),0,0,2
   13:07.081   283349,(,0,0,0
   13:07.128   283366,p,0,0,0
   13:07.164   283379,),0,0,0
   13:07.267   283416,(,0,0,1
   13:07.319   283435,N,0,0,0
   13:07.358   283449,),0,0,1
   13:07.525   283509,(,0,0,2
   13:07.667   283560,t,0,0,0
   13:07.850   283626,),0,0,2
   13:08.169   283741,(,0,0,0
   13:08.217   283758,p,0,0,0
   13:08.256   283772,),0,0,0
   13:08.342   283803,(,0,0,1
   13:08.414   283829,N,0,0,0
   13:08.453   283843,),0,0,1
   13:08.703   283933,(,0,0,2
   13:08.786   283963,t,0,0,0
   13:08.886   283999,),0,0,2
   13:09.261   284134,(,0,0,0
   13:09.308   284151,p,0,0,0
   13:09.350   284166,),0,0,0
   13:09.450   284202,(,0,0,1
   13:09.500   284220,N,0,0,0
   13:09.536   284233,),0,0,1
   13:09.719   284299,(,0,0,2
   13:09.839   284342,t,0,0,0
   13:09.989   284396,),0,0,2
   13:10.314   284513,(,0,0,0
   13:10.353   284527,p,0,0,0
   13:10.389   284540,),0,0,0
   13:10.483   284574,(,0,0,1
   13:10.533   284592,N,0,0,0
   13:10.569   284605,),0,0,1
   13:10.650   284634,(,0,0,2
   13:10.697   284651,t,0,0,4
   13:10.978   284752,t,0,0,4
   13:11.036   284773,),0,0,2
   13:11.308   284871,(,0,0,0
   13:11.350   284886,p,0,0,0
   13:11.386   284899,),0,0,0
   13:11.486   284935,(,0,0,1
   13:11.539   284954,N,0,0,0
   13:11.575   284967,),0,0,1
   13:11.656   284996,(,0,0,2
   13:11.683   285006,t,0,0,4
   13:11.892   285081,t,0,0,4
   13:12.050   285138,),0,0,2
   13:12.383   285258,(,0,0,0
   13:12.428   285274,p,0,0,0
   13:12.472   285290,),0,0,0
   13:12.578   285328,(,0,0,1
   13:12.636   285349,N,0,0,0
   13:12.675   285363,),0,0,1
   13:12.842   285423,(,0,0,2
   13:13.017   285486,t,0,0,0
   13:13.128   285526,),0,0,2
   13:13.481   285653,(,0,0,0
   13:13.525   285669,p,0,0,0
   13:13.561   285682,),0,0,0
   13:13.669   285721,(,0,0,1
   13:13.719   285739,N,0,0,0
   13:13.758   285753,),0,0,1
   13:13.983   285834,(,0,0,2
   13:14.064   285863,t,0,0,0
   13:14.219   285919,),0,0,2
   13:14.533   286032,(,0,0,0
   13:14.597   286055,p,0,0,0
   13:14.636   286069,),0,0,0
   13:14.742   286107,(,0,0,1
   13:14.797   286127,N,0,0,0
   13:14.836   286141,),0,0,1
   13:14.994   286198,(,0,0,2
   13:15.169   286261,t,0,0,0
   13:15.306   286310,),0,0,2
   13:15.608   286419,(,0,0,0
   13:15.644   286432,p,0,0,0
   13:15.681   286445,),0,0,0
   13:15.769   286477,(,0,0,1
   13:15.819   286495,N,0,0,0
   13:15.858   286509,),0,0,1
   13:16.025   286569,(,0,0,2
   13:16.144   286612,t,0,0,0
   13:16.319   286675,),0,0,2
   13:16.600   286776,(,0,0,0
   13:16.644   286792,p,0,0,0
   13:16.686   286807,),0,0,0
   13:16.781   286841,(,0,0,1
   13:16.833   286860,N,0,0,0
   13:16.872   286874,),0,0,1
   13:17.022   286928,(,0,0,2
   13:17.172   286982,t,0,0,0
   13:17.292   287025,),0,0,2
   13:17.619   287143,(,0,0,0
   13:17.672   287162,p,0,0,0
   13:17.708   287175,),0,0,0
   13:17.806   287210,(,0,0,1
   13:17.856   287228,N,0,0,0
   13:17.892   287241,),0,0,1
   13:18.044   287296,(,0,0,2
   13:18.219   287359,t,0,0,0
   13:18.356   287408,),0,0,2
   13:18.683   287526,(,0,0,0
   13:18.728   287542,p,0,0,0
   13:18.767   287556,),0,0,0
   13:18.867   287592,(,0,0,1
   13:18.922   287612,N,0,0,0
   13:18.961   287626,),0,0,1
   13:19.144   287692,(,0,0,2
   13:19.303   287749,t,0,0,0
   13:19.478   287812,),0,0,2
   13:19.753   287911,(,0,0,0
   13:19.789   287924,p,0,0,0
   13:19.822   287936,),0,0,0
   13:19.900   287964,(,0,0,1
   13:19.983   287994,N,0,0,0
   13:20.019   288007,),0,0,1
   13:20.439   288158,(,0,0,2
   13:20.586   288211,t,0,0,1
   13:20.778   288280,),0,0,2
   13:27.211   290596,(,0,0,0
   13:27.261   290614,p,0,0,0
   13:27.300   290628,),0,0,0
   13:27.383   290658,(,0,0,1
   13:27.439   290678,N,0,0,0
   13:27.472   290690,),0,0,1
   13:27.631   290747,(,0,0,2
   13:27.767   290796,t,0,0,0
   13:27.900   290844,),0,0,2
   13:28.158   290937,(,0,0,0
   13:28.214   290957,p,0,0,0
   13:28.250   290970,),0,0,0
   13:28.347   291005,(,0,0,1
   13:28.400   291024,N,0,0,0
   13:28.439   291038,),0,0,1
   13:28.628   291106,(,0,0,2
   13:28.789   291164,t,0,0,0
   13:28.886   291199,),0,0,2
   13:29.153   291295,(,0,0,0
   13:29.197   291311,p,0,0,0
   13:29.236   291325,),0,0,0
   13:29.311   291352,(,0,0,1
   13:29.389   291380,N,0,0,0
   13:29.428   291394,),0,0,1
   13:29.608   291459,(,0,0,2
   13:29.733   291504,t,0,0,0
   13:29.853   291547,),0,0,2
   13:30.128   291646,(,0,0,0
   13:30.167   291660,p,0,0,0
   13:30.203   291673,),0,0,0
   13:30.303   291709,(,0,0,1
   13:30.361   291730,N,0,0,0
   13:30.397   291743,),0,0,1
   13:30.569   291805,(,0,0,2
   13:30.722   291860,t,0,0,0
   13:30.814   291893,),0,0,2
   13:32.228   292402,(,0,0,0
   13:32.264   292415,p,0,0,0
   13:32.300   292428,),0,0,0
   13:32.397   292463,(,0,0,1
   13:32.456   292484,N,0,0,0
   13:32.494   292498,),0,0,1
   13:32.550   292518,(,0,0,2
   13:32.839   292622,t,0,0,1
   13:33.269   292777,),0,0,2
   13:47.839   298022,(,0,0,1
   13:47.964   298067,N,0,0,0
   13:47.997   298079,),0,0,1
   13:48.475   298251,(,0,0,2
   13:48.542   298275,t,0,0,5
   13:48.647   298313,t,0,0,5
   13:48.700   298332,),0,0,2
   13:48.964   298427,(,0,0,1
   13:49.028   298450,N,0,0,0
   13:49.067   298464,),0,0,1
   13:49.547   298637,(,0,0,2
   13:49.614   298661,t,0,0,5
   13:49.739   298706,t,0,0,5
   13:49.775   298719,),0,0,2
   13:50.072   298826,(,0,0,1
   13:50.089   298832,N,0,0,0
   13:50.133   298848,),0,0,1
   13:50.753   299071,(,0,0,2
   13:50.811   299092,t,0,0,0
   13:50.858   299109,),0,0,2
   13:51.089   299192,(,0,0,1
   13:51.256   299252,N,0,0,0
   13:51.358   299289,),0,0,1
   13:51.931   299495,(,0,0,2
   13:51.989   299516,t,0,0,0
   13:52.036   299533,),0,0,2
   13:52.408   299667,(,0,0,1
   13:52.444   299680,N,0,0,0
   13:52.622   299744,),0,0,1
   13:53.044   299896,(,0,0,2
   13:53.108   299919,t,0,0,5
   13:53.186   299947,t,0,0,5
   13:53.247   299969,),0,0,2
   13:53.400   300024,(,0,0,1
   13:53.550   300078,N,0,0,0
   13:53.592   300093,),0,0,1
   13:54.128   300286,(,0,0,2
   13:54.181   300305,t,0,0,0
   13:54.225   300321,),0,0,2
   13:54.597   300455,(,0,0,1
   13:54.636   300469,N,0,0,0
   13:54.708   300495,),0,0,1
   13:55.214   300677,(,0,0,2
   13:55.358   300729,t,0,0,0
   13:55.497   300779,),0,0,2
   13:56.867   301272,(,0,0,1
   13:56.889   301280,N,0,0,0
   13:56.925   301293,),0,0,1
   13:56.992   301317,(,0,0,2
   13:57.125   301365,t,0,0,1
   13:57.189   301388,),0,0,2
   13:57.606   301538,(,0,0,1
   13:57.631   301547,N,0,0,0
   13:57.686   301567,),0,0,1
   13:58.372   301814,(,0,0,2
   13:58.414   301829,t,0,0,0
   13:58.461   301846,),0,0,2
   14:17.033   308532,(,0,0,1
   14:17.081   308549,N,0,0,0
   14:17.114   308561,),0,0,1
   14:17.483   308694,(,0,0,2
   14:17.711   308776,t,0,0,1
   14:17.931   308855,),0,0,2
   14:19.186   309307,(,0,0,1
   14:19.231   309323,N,0,0,0
   14:19.278   309340,),0,0,1
   14:19.406   309386,(,0,0,2
   14:19.575   309447,t,0,0,0
   14:19.736   309505,),0,0,2
   14:27.783   312402,(,0,0,1
   14:27.833   312420,N,0,0,0
   14:27.958   312465,),0,0,1
   14:28.011   312484,(,0,0,2
   14:28.119   312523,t,0,0,0
   14:28.236   312565,),0,0,2
   14:28.944   312820,(,0,0,1
   14:28.983   312834,N,0,0,0
   14:29.111   312880,),0,0,1
   14:29.208   312915,(,0,0,2
   14:29.358   312969,t,0,0,0
   14:29.483   313014,),0,0,2
   14:30.961   313546,(,0,0,0
   14:30.986   313555,p,0,0,0
   14:31.019   313567,),0,0,0
   14:31.167   313620,(,0,0,1
   14:31.192   313629,N,0,0,0
   14:31.244   313648,),0,0,1
   14:32.258   314013,(,0,0,1
   14:32.311   314032,N,0,0,0
   14:32.369   314053,),0,0,1
   14:32.375   314055,(,0,0,2
   14:32.544   314116,t,0,0,0
   14:32.844   314224,),0,0,2
   14:36.594   315574,(,0,0,1
   14:36.622   315584,N,0,0,0
   14:36.689   315608,),0,0,1
   14:36.844   315664,(,0,0,2
   14:36.942   315699,t,0,0,0
   14:37.156   315776,),0,0,2
   14:41.906   317486,(,0,0,1
   14:41.967   317508,N,0,0,0
   14:42.019   317527,),0,0,1
   14:42.028   317530,(,0,0,2
   14:42.192   317589,t,0,0,0
   14:42.536   317713,),0,0,2
   14:43.050   317898,(,0,0,1
   14:43.081   317909,N,0,0,0
   14:43.136   317929,),0,0,1
   14:43.142   317931,(,0,0,2
   14:43.303   317989,t,0,0,0
   14:43.619   318103,),0,0,2
   14:48.411   319828,(,0,0,1
   14:48.450   319842,N,0,0,0
   14:48.503   319861,),0,0,1
   14:48.511   319864,(,0,0,2
   14:48.692   319929,t,0,0,0
   14:48.864   319991,),0,0,2
   14:54.817   322134,(,0,0,1
   14:54.875   322155,N,0,0,0
   14:54.944   322180,),0,0,1
   14:55.083   322230,(,0,0,2
   14:55.189   322268,t,0,0,0
   14:55.292   322305,),0,0,2
   15:02.344   324844,(,0,0,1
   15:02.367   324852,N,0,0,0
   15:02.422   324872,),0,0,1
   15:02.428   324874,(,0,0,2
   15:02.689   324968,t,0,0,0
   15:02.914   325049,),0,0,2
   15:05.481   325973,(,0,0,1
   15:05.511   325984,N,0,0,0
   15:05.564   326003,),0,0,1
   15:05.569   326005,(,0,0,2
   15:05.725   326061,t,0,0,0
   15:05.892   326121,),0,0,2
   15:06.556   326360,(,0,0,1
   15:06.583   326370,N,0,0,0
   15:06.639   326390,),0,0,1
   15:07.125   326565,(,0,0,2
   15:07.161   326578,t,0,0,5
   15:07.211   326596,t,0,0,5
   15:07.247   326609,),0,0,2
   15:08.697   327131,(,0,0,1
   15:08.778   327160,N,0,0,0
   15:08.842   327183,),0,0,1
   15:09.211   327316,(,0,0,2
   15:09.414   327389,t,0,0,1
   15:09.617   327462,),0,0,2
   15:12.822   328616,(,0,0,1
   15:12.853   328627,N,0,0,0
   15:12.908   328647,),0,0,1
   15:12.917   328650,(,0,0,2
   15:13.178   328744,t,0,0,0
   15:13.283   328782,),0,0,2
   15:13.908   329007,(,0,0,1
   15:13.931   329015,N,0,0,0
   15:13.981   329033,),0,0,1
   15:13.986   329035,(,0,0,2
   15:14.150   329094,t,0,0,0
   15:14.344   329164,),0,0,2
   15:19.361   330970,(,0,0,1
   15:19.392   330981,N,0,0,0
   15:19.442   330999,),0,0,1
   15:19.447   331001,(,0,0,2
   15:19.706   331094,t,0,0,0
   15:19.964   331187,),0,0,2
   15:20.650   331434,(,0,0,1
   15:20.731   331463,N,0,0,0
   15:20.733   331464,),0,0,1
   15:20.739   331466,(,0,0,2
   15:20.900   331524,t,0,0,0
   15:21.225   331641,),0,0,2
   15:25.025   333009,(,0,0,1
   15:25.053   333019,N,0,0,0
   15:25.106   333038,),0,0,1
   15:25.111   333040,(,0,0,2
   15:25.275   333099,t,0,0,0
   15:25.589   333212,),0,0,2
   15:39.033   338052,(,0,0,1
   15:39.078   338068,N,0,0,0
   15:39.117   338082,),0,0,1
   15:39.289   338144,(,0,0,2
   15:39.439   338198,t,0,0,0
   15:39.578   338248,),0,0,2
   15:40.186   338467,(,0,0,1
   15:40.242   338487,N,0,0,0
   15:40.278   338500,),0,0,1
   15:40.456   338564,(,0,0,2
   15:40.597   338615,t,0,0,0
   15:40.731   338663,),0,0,2
   15:41.314   338873,(,0,0,1
   15:41.361   338890,N,0,0,0
   15:41.397   338903,),0,0,1
   15:41.556   338960,(,0,0,2
   15:41.697   339011,t,0,0,0
   15:41.839   339062,),0,0,2
   15:42.411   339268,(,0,0,1
   15:42.467   339288,N,0,0,0
   15:42.511   339304,),0,0,1
   15:42.703   339373,(,0,0,2
   15:42.867   339432,t,0,0,0
   15:43.017   339486,),0,0,2
   15:43.572   339686,(,0,0,1
   15:43.625   339705,N,0,0,0
   15:43.664   339719,),0,0,1
   15:43.714   339737,(,0,0,2
   15:43.789   339764,t,0,0,4
   15:44.003   339841,t,0,0,4
   15:44.142   339891,),0,0,2
   15:44.664   340079,(,0,0,1
   15:44.717   340098,N,0,0,0
   15:44.756   340112,),0,0,1
   15:44.894   340162,(,0,0,2
   15:45.058   340221,t,0,0,0
   15:45.239   340286,),0,0,2
   15:46.753   340831,(,0,0,1
   15:46.803   340849,N,0,0,0
   15:46.842   340863,),0,0,1
   15:47.011   340924,(,0,0,2
   15:47.158   340977,t,0,0,0
   15:47.294   341026,),0,0,2
   15:47.817   341214,(,0,0,1
   15:47.869   341233,N,0,0,0
   15:47.906   341246,),0,0,1
   15:48.108   341319,(,0,0,2
   15:48.231   341363,t,0,0,0
   15:48.372   341414,),0,0,2
   15:48.856   341588,(,0,0,1
   15:48.914   341609,N,0,0,0
   15:48.953   341623,),0,0,1
   15:49.156   341696,(,0,0,2
   15:49.292   341745,t,0,0,0
   15:49.444   341800,),0,0,2
   15:49.983   341994,(,0,0,1
   15:50.039   342014,N,0,0,0
   15:50.075   342027,),0,0,1
   15:50.264   342095,(,0,0,2
   15:50.400   342144,t,0,0,0
   15:50.547   342197,),0,0,2
   15:51.003   342361,(,0,0,1
   15:51.058   342381,N,0,0,0
   15:51.094   342394,),0,0,1
   15:51.289   342464,(,0,0,2
   15:51.425   342513,t,0,0,0
   15:51.553   342559,),0,0,2
   15:52.042   342735,(,0,0,1
   15:52.094   342754,N,0,0,0
   15:52.131   342767,),0,0,1
   15:52.306   342830,(,0,0,2
   15:52.436   342877,t,0,0,0
   15:52.575   342927,),0,0,2
   15:53.036   343093,(,0,0,1
   15:53.089   343112,N,0,0,0
   15:53.125   343125,),0,0,1
   15:53.308   343191,(,0,0,2
   15:53.442   343239,t,0,0,0
   15:53.597   343295,),0,0,2
   15:54.081   343469,(,0,0,1
   15:54.133   343488,N,0,0,0
   15:54.172   343502,),0,0,1
   15:54.347   343565,(,0,0,2
   15:54.517   343626,t,0,0,0
   15:54.650   343674,),0,0,2
   15:55.144   343852,(,0,0,1
   15:55.194   343870,N,0,0,0
   15:55.233   343884,),0,0,1
   15:55.439   343958,(,0,0,2
   15:55.586   344011,t,0,0,0
   15:55.725   344061,),0,0,2
   15:56.192   344229,(,0,0,1
   15:56.250   344250,N,0,0,0
   15:56.289   344264,),0,0,1
   15:56.467   344328,(,0,0,2
   15:56.608   344379,t,0,0,0
   15:56.750   344430,),0,0,2
   15:57.283   344622,(,0,0,1
   15:57.336   344641,N,0,0,0
   15:57.372   344654,),0,0,1
   15:57.531   344711,(,0,0,2
   15:57.656   344756,t,0,0,0
   15:57.811   344812,),0,0,2
   15:58.756   345152,(,0,0,1
   15:58.828   345178,N,0,0,0
   15:58.864   345191,),0,0,1
   15:59.061   345262,(,0,0,2
   15:59.189   345308,t,0,0,0
   15:59.331   345359,),0,0,2
   16:00.008   345603,(,0,0,1
   16:00.061   345622,N,0,0,0
   16:00.103   345637,),0,0,1
   16:00.294   345706,(,0,0,2
   16:00.433   345756,t,0,0,0
   16:00.586   345811,),0,0,2
   16:01.197   346031,(,0,0,1
   16:01.253   346051,N,0,0,0
   16:01.289   346064,),0,0,1
   16:01.469   346129,(,0,0,2
   16:01.622   346184,t,0,0,0
   16:01.756   346232,),0,0,2
   16:03.428   346834,(,0,0,1
   16:03.478   346852,N,0,0,0
   16:03.517   346866,),0,0,1
   16:03.783   346962,(,0,0,2
   16:03.844   346984,t,0,0,0
   16:03.936   347017,),0,0,2
   16:04.436   347197,(,0,0,1
   16:04.486   347215,N,0,0,0
   16:04.525   347229,),0,0,1
   16:04.711   347296,(,0,0,2
   16:04.819   347335,t,0,0,0
   16:04.967   347388,),0,0,2
   16:05.464   347567,(,0,0,1
   16:05.514   347585,N,0,0,0
   16:05.550   347598,),0,0,1
   16:05.747   347669,(,0,0,2
   16:05.864   347711,t,0,0,0
   16:06.042   347775,),0,0,2
   16:06.533   347952,(,0,0,1
   16:06.597   347975,N,0,0,0
   16:06.636   347989,),0,0,1
   16:06.836   348061,(,0,0,2
   16:06.981   348113,t,0,0,0
   16:07.139   348170,),0,0,2
   16:08.692   348729,(,0,0,1
   16:08.753   348751,N,0,0,0
   16:08.789   348764,),0,0,1
   16:08.969   348829,(,0,0,2
   16:09.128   348886,t,0,0,0
   16:09.264   348935,),0,0,2
   16:09.753   349111,(,0,0,1
   16:09.803   349129,N,0,0,0
   16:09.836   349141,),0,0,1
   16:09.886   349159,(,0,0,2
   16:09.939   349178,t,0,0,4
   16:10.131   349247,t,0,0,4
   16:10.283   349302,),0,0,2
   16:10.761   349474,(,0,0,1
   16:10.808   349491,N,0,0,0
   16:10.842   349503,),0,0,1
   16:11.211   349636,(,0,0,2
   16:11.403   349705,t,0,0,1
   16:11.611   349780,),0,0,2
   16:13.936   350617,(,0,0,1
   16:13.989   350636,N,0,0,0
   16:14.022   350648,),0,0,1
   16:14.394   350782,(,0,0,2
   16:14.617   350862,t,0,0,1
   16:14.833   350940,),0,0,2
   16:16.053   351379,(,0,0,1
   16:16.106   351398,N,0,0,0
   16:16.144   351412,),0,0,1
   16:16.314   351473,(,0,0,2
   16:16.458   351525,t,0,0,0
   16:16.583   351570,),0,0,2
   16:17.086   351751,(,0,0,1
   16:17.122   351764,N,0,0,0
   16:17.158   351777,),0,0,1
   16:17.531   351911,(,0,0,2
   16:17.592   351933,t,0,0,1
   16:17.964   352067,),0,0,2
   16:21.294   353266,(,0,0,1
   16:21.372   353294,N,0,0,0
   16:21.408   353307,),0,0,1
   16:21.753   353431,(,0,0,2
   16:21.858   353469,t,0,0,1
   16:22.183   353586,),0,0,2
   16:24.464   354407,(,0,0,1
   16:24.514   354425,N,0,0,0
   16:24.550   354438,),0,0,1
   16:24.722   354500,(,0,0,2
   16:24.875   354555,t,0,0,0
   16:25.017   354606,),0,0,2
   16:27.742   355587,(,0,0,1
   16:27.786   355603,N,0,0,0
   16:27.825   355617,),0,0,1
   16:28.164   355739,(,0,0,2
   16:28.267   355776,t,0,0,1
   16:28.631   355907,),0,0,2
   16:32.031   357131,(,0,0,1
   16:32.089   357152,N,0,0,0
   16:32.125   357165,),0,0,1
   16:32.172   357182,(,0,0,2
   16:32.206   357194,t,0,0,4
   16:32.478   357292,t,0,0,4
   16:32.606   357338,),0,0,2
   16:33.069   357505,(,0,0,1
   16:33.122   357524,N,0,0,0
   16:33.158   357537,),0,0,1
   16:33.322   357596,(,0,0,2
   16:33.478   357652,t,0,0,0
   16:33.622   357704,),0,0,2
   16:35.189   358268,(,0,0,1
   16:35.242   358287,N,0,0,0
   16:35.281   358301,),0,0,1
   16:35.453   358363,(,0,0,2
   16:35.600   358416,t,0,0,0
   16:35.756   358472,),0,0,2
   16:36.289   358664,(,0,0,1
   16:36.344   358684,N,0,0,0
   16:36.381   358697,),0,0,1
   16:36.539   358754,(,0,0,2
   16:36.711   358816,t,0,0,0
   16:36.867   358872,),0,0,2
   16:38.550   359478,(,0,0,1
   16:38.611   359500,N,0,0,0
   16:38.647   359513,),0,0,1
   16:38.836   359581,(,0,0,2
   16:38.972   359630,t,0,0,0
   16:39.083   359670,),0,0,2
   16:39.603   359857,(,0,0,1
   16:39.650   359874,N,0,0,0
   16:39.686   359887,),0,0,1
   16:39.864   359951,(,0,0,2
   16:39.997   359999,t,0,0,0
   16:40.150   360054,),0,0,2
   16:45.069   361825,(,0,0,1
   16:45.147   361853,N,0,0,0
   16:45.183   361866,),0,0,1
   16:45.233   361884,(,0,0,2
   16:45.292   361905,t,0,0,4
   16:45.514   361985,t,0,0,4
   16:45.636   362029,),0,0,2
   16:47.256   362612,(,0,0,1
   16:47.300   362628,N,0,0,0
   16:47.333   362640,),0,0,1
   16:47.386   362659,(,0,0,2
   16:47.447   362681,t,0,0,4
   16:47.650   362754,t,0,0,4
   16:47.792   362805,),0,0,2
   16:48.275   362979,(,0,0,1
   16:48.331   362999,N,0,0,0
   16:48.367   363012,),0,0,1
   16:48.556   363080,(,0,0,2
   16:48.669   363121,t,0,0,0
   16:48.819   363175,),0,0,2
   16:52.603   364537,(,0,0,1
   16:52.650   364554,N,0,0,0
   16:52.689   364568,),0,0,1
   16:53.167   364740,(,0,0,2
   16:53.197   364751,t,0,0,1
   16:53.236   364765,),0,0,2
   16:54.692   365289,(,0,0,1
   16:54.758   365313,N,0,0,0
   16:54.797   365327,),0,0,1
   16:54.969   365389,(,0,0,2
   16:55.100   365436,t,0,0,0
   16:55.242   365487,),0,0,2
   16:55.764   365675,(,0,0,1
   16:55.825   365697,N,0,0,0
   16:55.864   365711,),0,0,1
   16:56.044   365776,(,0,0,2
   16:56.203   365833,t,0,0,0
   16:56.356   365888,),0,0,2
   16:56.867   366072,(,0,0,1
   16:56.917   366090,N,0,0,0
   16:56.950   366102,),0,0,1
   16:58.861   366790,(,0,0,1
   16:58.917   366810,N,0,0,0
   16:58.994   366838,),0,0,1
   18:23.253   397171,(,0,0,1
   18:23.283   397182,N,0,0,0
   18:23.369   397213,),0,0,1
   18:23.428   397234,(,0,0,2
   18:23.469   397249,t,0,0,1
   18:23.503   397261,),0,0,2
   18:25.206   397874,(,0,0,1
   18:25.272   397898,N,0,0,0
   18:25.308   397911,),0,0,1
   18:25.997   398159,(,0,0,2
   18:26.044   398176,t,0,0,0
   18:26.094   398194,),0,0,2
   18:26.950   398502,(,0,0,1
   18:27.006   398522,N,0,0,0
   18:27.122   398564,),0,0,1
   18:27.128   398566,(,0,0,2
   18:27.183   398586,t,0,0,5
   18:27.236   398605,t,0,0,5
   18:27.275   398619,),0,0,2
   18:39.439   402998,(,0,0,1
   18:39.503   403021,N,0,0,0
   18:39.539   403034,),0,0,1
   18:40.197   403271,(,0,0,2
   18:40.256   403292,t,0,0,0
   18:40.306   403310,),0,0,2
   18:53.367   408012,(,0,0,1
   18:53.464   408047,N,0,0,0
   18:53.578   408088,),0,0,1
   18:53.622   408104,(,0,0,2
   18:53.667   408120,t,0,0,5
   18:53.719   408139,t,0,0,5
   18:53.758   408153,),0,0,2
   19:09.786   413923,(,0,0,1
   19:09.833   413940,N,0,0,0
   19:09.878   413956,),0,0,1
   19:09.986   413995,(,0,0,2
   19:10.025   414009,t,0,0,4
   19:10.228   414082,t,0,0,4
   19:10.364   414131,),0,0,2
   19:18.081   416909,(,0,0,1
   19:18.169   416941,N,0,0,0
   19:18.244   416968,),0,0,1
   19:18.303   416989,(,0,0,2
   19:18.350   417006,t,0,0,5
   19:18.403   417025,t,0,0,5
   19:18.442   417039,),0,0,2
   19:19.378   417376,(,0,0,1
   19:19.428   417394,N,0,0,0
   19:19.506   417422,),0,0,1
   19:19.892   417561,(,0,0,2
   19:20.022   417608,t,0,0,1
   19:20.131   417647,),0,0,2
   19:20.672   417842,(,0,0,1
   19:20.719   417859,N,0,0,0
   19:20.719   417859,),0,0,1
   19:20.961   417946,(,0,0,2
   19:20.994   417958,t,0,0,0
   19:21.008   417963,),0,0,2
   19:21.556   418160,(,0,0,1
   19:21.619   418183,N,0,0,0
   19:21.728   418222,),0,0,1
   19:21.858   418269,(,0,0,2
   19:21.936   418297,t,0,0,0
   19:22.056   418340,),0,0,2
   19:22.614   418541,(,0,0,1
   19:22.664   418559,N,0,0,0
   19:22.681   418565,),0,0,1
   19:23.144   418732,(,0,0,2
   19:23.167   418740,t,0,0,0
   19:23.197   418751,),0,0,2
   19:24.828   419338,(,0,0,1
   19:24.881   419357,N,0,0,0
   19:24.881   419357,),0,0,1
   19:25.597   419615,(,0,0,2
   19:25.619   419623,t,0,0,1
   19:25.642   419631,),0,0,2
   19:25.881   419717,(,0,0,1
   19:26.003   419761,N,0,0,0
   19:26.136   419809,),0,0,1
   19:26.286   419863,(,0,0,2
   19:26.453   419923,t,0,0,1
   19:26.578   419968,),0,0,2
   19:30.008   421203,(,0,0,1
   19:30.142   421251,N,0,0,0
   19:30.192   421269,),0,0,1
   19:30.547   421397,(,0,0,2
   19:30.644   421432,t,0,0,1
   19:30.769   421477,),0,0,2
   19:43.283   425982,(,0,0,1
   19:43.344   426004,N,0,0,0
   19:43.389   426020,),0,0,1
   19:43.450   426042,(,0,0,2
   19:43.489   426056,t,0,0,4
   19:43.722   426140,t,0,0,4
   19:43.878   426196,),0,0,2
   20:12.356   436448,(,0,0,1
   20:12.411   436468,N,0,0,0
   20:12.544   436516,),0,0,1
   20:12.694   436570,),0,0,2
   20:12.794   436606,t,0,0,1
   20:12.894   436642,(,0,0,2
   20:14.608   437259,(,0,0,1
   20:14.708   437295,N,0,0,0
