Elapsedtime,sample,Type,Sub,Chan,Num
0:00.733,264,(,0,0,0
0:00.800,288,p,0,0,0
0:00.825,297,),0,0,0
0:00.892,321,(,0,0,1
0:00.944,340,N,0,0,0
0:01.050,378,),0,0,1
0:01.136,409,(,0,0,2
0:01.272,458,t,0,0,0
0:01.292,465,),0,0,2
0:01.358,489,(,0,0,0
0:01.419,511,p,0,0,0
0:01.450,522,),0,0,0
0:01.519,547,(,0,0,1
0:01.578,568,N,0,0,0
0:01.683,606,),0,0,1
0:01.703,613,(,0,0,2
0:01.739,626,t,0,0,4
0:01.925,693,t,0,0,4
0:01.978,712,),0,0,2
0:02.014,725,(,0,0,0
0:02.061,742,p,0,0,0
0:02.089,752,),0,0,0
0:02.178,784,(,0,0,1
0:02.236,805,N,0,0,0
0:02.364,851,),0,0,1
0:02.456,884,(,0,0,2
0:02.608,939,t,0,0,0
0:02.625,945,),0,0,2
0:02.689,968,(,0,0,0
0:02.744,988,p,0,0,0
0:02.806,1010,),0,0,0
0:02.847,1025,(,0,0,1
0:02.903,1045,N,0,0,0
0:03.019,1087,),0,0,1
0:03.056,1100,t,0,0,2
0:03.261,1174,),0,0,2
0:03.353,1207,(,0,0,0
0:03.436,1237,p,0,0,0
0:03.483,1254,),0,0,0
0:03.511,1264,(,0,0,1
0:03.567,1284,N,0,0,0
0:03.681,1325,),0,0,1
0:03.767,1356,(,0,0,2
0:03.914,1409,t,0,0,0
0:03.933,1416,),0,0,2
0:03.997,1439,(,0,0,0
0:04.075,1467,p,0,0,0
0:04.139,1490,),0,0,0
0:04.161,1498,(,0,0,1
0:04.222,1520,N,0,0,0
0:04.339,1562,),0,0,1
0:04.439,1598,(,0,0,2
0:04.581,1649,t,0,0,0
0:04.608,1659,),0,0,2
0:04.669,1681,(,0,0,0
0:04.758,1713,p,0,0,0
0:04.814,1733,),0,0,0
0:04.836,1741,(,0,0,1
0:04.894,1762,N,0,0,0
0:05.017,1806,),0,0,1
0:05.114,1841,(,0,0,2
0:05.250,1890,t,0,0,0
0:05.272,1898,),0,0,2
0:05.456,1964,(,0,0,1
0:05.533,1992,N,0,0,0
0:05.647,2033,),0,0,1
0:05.725,2061,t,0,0,2
0:05.872,2114,),0,0,2
0:05.958,2145,(,0,0,0
0:06.022,2168,p,0,0,0
0:06.058,2181,),0,0,0
0:06.086,2191,(,0,0,1
0:06.156,2216,N,0,0,0
0:06.261,2254,),0,0,1
0:06.292,2265,t,0,0,2
0:06.475,2331,),0,0,2
0:06.550,2358,(,0,0,0
0:06.617,2382,p,0,0,0
0:06.686,2407,),0,0,0
0:06.708,2415,(,0,0,1
0:06.758,2433,N,0,0,0
0:06.864,2471,),0,0,1
0:06.953,2503,(,0,0,2
0:07.083,2550,t,0,0,0
0:07.108,2559,),0,0,2
0:07.161,2578,(,0,0,0
0:07.244,2608,p,0,0,0
0:07.294,2626,),0,0,0
0:07.322,2636,(,0,0,1
0:07.381,2657,N,0,0,0
0:07.506,2702,),0,0,1
0:07.567,2724,(,0,0,2
0:07.725,2781,t,0,0,0
0:07.756,2792,),0,0,2
0:07.778,2800,(,0,0,0
0:07.856,2828,p,0,0,0
0:07.881,2837,),0,0,0
0:07.894,2842,(,0,0,1
0:08.000,2880,N,0,0,0
0:08.125,2925,),0,0,1
0:08.169,2941,t,0,0,2
0:08.350,3006,),0,0,2
0:08.428,3034,(,0,0,0
0:08.514,3065,p,0,0,0
0:08.558,3081,),0,0,0
0:08.592,3093,(,0,0,1
0:08.647,3113,N,0,0,0
0:08.769,3157,),0,0,1
0:08.797,3167,(,0,0,2
0:08.839,3182,t,0,0,1
0:09.003,3241,),0,0,2
0:09.222,3320,(,0,0,1
0:09.303,3349,N,0,0,0
0:09.425,3393,),0,0,1
0:09.461,3406,t,0,0,2
0:09.650,3474,),0,0,2
0:09.733,3504,(,0,0,0
0:09.808,3531,p,0,0,0
0:09.861,3550,),0,0,0
0:09.894,3562,(,0,0,1
0:09.953,3583,N,0,0,0
0:10.072,3626,),0,0,1
0:10.125,3645,t,0,0,2
0:10.297,3707,),0,0,2
0:10.372,3734,(,0,0,0
0:10.431,3755,p,0,0,0
0:10.475,3771,),0,0,0
0:10.497,3779,(,0,0,1
0:10.583,3810,N,0,0,0
0:10.703,3853,),0,0,1
0:10.836,3901,t,0,0,2
0:10.925,3933,),0,0,2
0:11.003,3961,(,0,0,0
0:11.078,3988,p,0,0,0
0:11.131,4007,),0,0,0
0:11.161,4018,(,0,0,1
0:11.217,4038,N,0,0,0
0:11.336,4081,),0,0,1
0:11.389,4100,t,0,0,2
0:11.564,4163,),0,0,2
0:11.789,4244,(,0,0,1
0:11.839,4262,N,0,0,0
0:11.950,4302,),0,0,1
0:11.997,4319,t,0,0,2
0:12.156,4376,),0,0,2
0:12.231,4403,(,0,0,0
0:12.297,4427,p,0,0,0
0:12.361,4450,),0,0,0
0:12.383,4458,(,0,0,1
0:12.436,4477,N,0,0,0
0:12.553,4519,),0,0,1
0:12.592,4533,t,0,0,2
0:12.750,4590,),0,0,2
0:12.819,4615,(,0,0,0
0:12.894,4642,p,0,0,0
0:12.944,4660,),0,0,0
0:12.967,4668,(,0,0,1
0:13.019,4687,N,0,0,0
0:13.136,4729,),0,0,1
0:13.189,4748,t,0,0,2
0:13.347,4805,),0,0,2
0:13.422,4832,(,0,0,0
0:13.483,4854,p,0,0,0
0:13.544,4876,),0,0,0
0:13.567,4884,(,0,0,1
0:13.628,4906,N,0,0,0
0:13.744,4948,),0,0,1
0:13.789,4964,t,0,0,2
0:13.964,5027,),0,0,2
0:14.036,5053,(,0,0,0
0:14.106,5078,p,0,0,0
0:14.156,5096,),0,0,0
0:14.181,5105,(,0,0,1
0:14.236,5125,N,0,0,0
0:14.350,5166,),0,0,1
0:14.397,5183,),0,0,2
0:14.419,5191,t,0,0,0
0:14.442,5199,(,0,0,2
0:14.656,5276,(,0,0,0
0:14.736,5305,p,0,0,0
0:14.794,5326,),0,0,0
0:14.822,5336,(,0,0,1
0:14.878,5356,N,0,0,0
0:14.994,5398,),0,0,1
0:15.058,5421,t,0,0,2
0:15.219,5479,),0,0,2
0:15.303,5509,(,0,0,0
0:15.383,5538,p,0,0,0
0:15.442,5559,),0,0,0
0:15.464,5567,(,0,0,1
0:15.525,5589,N,0,0,0
0:15.653,5635,),0,0,1
0:15.694,5650,t,0,0,2
0:15.869,5713,),0,0,2
0:15.947,5741,(,0,0,0
0:16.031,5771,p,0,0,0
0:16.075,5787,),0,0,0
0:16.097,5795,(,0,0,1
0:16.158,5817,N,0,0,0
0:16.281,5861,),0,0,1
0:16.336,5881,t,0,0,2
0:16.503,5941,),0,0,2
0:16.586,5971,(,0,0,0
0:16.656,5996,p,0,0,0
0:16.708,6015,),0,0,0
0:16.731,6023,(,0,0,1
0:16.792,6045,N,0,0,0
0:16.903,6085,),0,0,1
0:16.953,6103,t,0,0,2
0:17.108,6159,),0,0,2
0:17.111,6160,(,0,0,0
0:17.119,6163,p,0,0,0
0:17.217,6198,),0,0,0
0:17.311,6232,(,0,0,1
0:17.386,6259,N,0,0,0
0:17.419,6271,),0,0,1
0:17.453,6283,(,0,0,2
0:17.564,6323,t,0,0,1
0:17.744,6388,),0,0,2
0:17.747,6389,(,0,0,0
0:17.758,6393,p,0,0,0
0:17.822,6416,),0,0,0
0:17.944,6460,(,0,0,1
0:18.000,6480,N,0,0,0
0:18.119,6523,),0,0,1
0:18.172,6542,t,0,0,2
0:18.331,6599,),0,0,2
0:18.397,6623,(,0,0,0
0:18.475,6651,p,0,0,0
0:18.517,6666,),0,0,0
0:18.539,6674,(,0,0,1
0:18.594,6694,N,0,0,0
0:18.706,6734,),0,0,1
0:18.756,6752,t,0,0,2
0:18.928,6814,),0,0,2
0:19.008,6843,(,0,0,0
0:19.078,6868,p,0,0,0
0:19.133,6888,),0,0,0
0:19.156,6896,(,0,0,1
0:19.208,6915,N,0,0,0
0:19.317,6954,),0,0,1
0:19.364,6971,t,0,0,2
0:19.525,7029,),0,0,2
0:19.581,7049,(,0,0,0
0:19.611,7060,p,0,0,0
0:19.642,7071,),0,0,0
0:19.725,7101,(,0,0,1
0:19.811,7132,N,0,0,0
0:19.922,7172,),0,0,1
0:19.975,7191,t,0,0,2
0:20.136,7249,),0,0,2
0:20.214,7277,(,0,0,0
0:20.286,7303,p,0,0,0
0:20.344,7324,),0,0,0
0:20.375,7335,(,0,0,1
0:20.431,7355,N,0,0,0
0:20.553,7399,),0,0,1
0:20.608,7419,t,0,0,2
0:20.772,7478,),0,0,2
0:20.847,7505,(,0,0,0
0:20.911,7528,p,0,0,0
0:20.981,7553,),0,0,0
0:20.997,7559,(,0,0,1
0:21.061,7582,N,0,0,0
0:21.181,7625,),0,0,1
0:21.203,7633,(,0,0,2
0:21.244,7648,t,0,0,1
0:21.422,7712,),0,0,2
0:21.514,7745,(,0,0,0
0:21.575,7767,p,0,0,0
0:21.647,7793,),0,0,0
0:21.669,7801,(,0,0,1
0:21.728,7822,N,0,0,0
0:21.847,7865,),0,0,1
0:21.903,7885,t,0,0,2
0:22.083,7950,),0,0,2
0:22.183,7986,(,0,0,0
0:22.256,8012,p,0,0,0
0:22.322,8036,),0,0,0
0:22.347,8045,(,0,0,1
0:22.403,8065,N,0,0,0
0:22.517,8106,),0,0,1
0:22.572,8126,t,0,0,2
0:22.736,8185,),0,0,2
0:22.817,8214,(,0,0,0
0:22.881,8237,p,0,0,0
0:22.944,8260,),0,0,0
0:22.972,8270,(,0,0,1
0:23.028,8290,N,0,0,0
0:23.142,8331,),0,0,1
0:23.203,8353,t,0,0,2
0:23.356,8408,),0,0,2
0:23.439,8438,(,0,0,0
0:23.500,8460,p,0,0,0
0:23.564,8483,),0,0,0
0:23.586,8491,(,0,0,1
0:23.639,8510,N,0,0,0
0:23.747,8549,),0,0,1
0:23.806,8570,t,0,0,2
0:23.958,8625,),0,0,2
0:24.053,8659,(,0,0,0
0:24.114,8681,p,0,0,0
0:24.183,8706,),0,0,0
0:24.211,8716,(,0,0,1
0:24.267,8736,N,0,0,0
0:24.378,8776,),0,0,1
0:24.439,8798,t,0,0,2
0:24.586,8851,),0,0,2
0:24.700,8892,(,0,0,0
0:24.767,8916,p,0,0,0
0:24.833,8940,),0,0,0
0:24.858,8949,(,0,0,1
0:24.914,8969,N,0,0,0
0:25.025,9009,),0,0,1
0:25.081,9029,t,0,0,2
0:25.214,9077,),0,0,2
0:25.331,9119,(,0,0,0
0:25.392,9141,p,0,0,0
0:25.417,9150,),0,0,0
0:25.450,9162,(,0,0,1
0:25.542,9195,N,0,0,0
0:25.656,9236,),0,0,1
0:25.708,9255,t,0,0,2
0:25.850,9306,),0,0,2
0:25.964,9347,(,0,0,0
0:26.022,9368,p,0,0,0
0:26.089,9392,),0,0,0
0:26.111,9400,(,0,0,1
0:26.169,9421,N,0,0,0
0:26.286,9463,),0,0,1
0:26.344,9484,t,0,0,2
0:26.494,9538,),0,0,2
0:26.611,9580,(,0,0,0
0:26.669,9601,p,0,0,0
0:26.744,9628,),0,0,0
0:26.772,9638,(,0,0,1
0:26.828,9658,N,0,0,0
0:26.947,9701,),0,0,1
0:26.964,9707,(,0,0,2
0:27.011,9724,t,0,0,1
0:27.161,9778,),0,0,2
0:27.292,9825,(,0,0,0
0:27.347,9845,p,0,0,0
0:27.425,9873,),0,0,0
0:27.447,9881,(,0,0,1
0:27.500,9900,N,0,0,0
0:27.614,9941,),0,0,1
0:27.678,9964,t,0,0,2
0:27.825,10017,),0,0,2
0:27.956,10064,(,0,0,0
0:28.017,10086,p,0,0,0
0:28.097,10115,),0,0,0
0:28.125,10125,(,0,0,1
0:28.183,10146,N,0,0,0
0:28.294,10186,),0,0,1
0:28.319,10195,(,0,0,2
0:28.361,10210,t,0,0,1
0:28.506,10262,),0,0,2
0:28.633,10308,(,0,0,0
0:28.697,10331,p,0,0,0
0:28.767,10356,),0,0,0
0:28.794,10366,(,0,0,1
0:28.858,10389,N,0,0,0
0:28.972,10430,),0,0,1
0:29.039,10454,t,0,0,2
0:29.172,10502,),0,0,2
0:29.289,10544,(,0,0,0
0:29.344,10564,p,0,0,0
0:29.414,10589,),0,0,0
0:29.439,10598,(,0,0,1
0:29.494,10618,N,0,0,0
0:29.608,10659,),0,0,1
0:29.669,10681,t,0,0,2
0:29.808,10731,),0,0,2
0:29.922,10772,(,0,0,0
0:29.981,10793,p,0,0,0
0:30.044,10816,),0,0,0
0:30.067,10824,(,0,0,1
0:30.119,10843,N,0,0,0
0:30.225,10881,),0,0,1
0:30.281,10901,t,0,0,2
0:30.422,10952,),0,0,2
0:30.547,10997,(,0,0,0
0:30.606,11018,p,0,0,0
0:30.675,11043,),0,0,0
0:30.703,11053,(,0,0,1
0:30.758,11073,N,0,0,0
0:30.869,11113,),0,0,1
0:30.931,11135,t,0,0,2
0:31.075,11187,),0,0,2
0:31.203,11233,(,0,0,0
0:31.264,11255,p,0,0,0
0:31.306,11270,),0,0,0
0:31.336,11281,(,0,0,1
0:31.414,11309,N,0,0,0
0:31.450,11322,),0,0,1
0:31.506,11342,(,0,0,2
0:31.589,11372,t,0,0,1
0:31.725,11421,),0,0,2
0:31.775,11439,(,0,0,0
0:31.831,11459,p,0,0,0
0:31.889,11480,),0,0,0
0:32.011,11524,(,0,0,1
0:32.075,11547,N,0,0,0
0:32.192,11589,),0,0,1
0:32.261,11614,t,0,0,2
0:32.394,11662,),0,0,2
0:32.517,11706,(,0,0,0
0:32.575,11727,p,0,0,0
0:32.647,11753,),0,0,0
0:32.672,11762,(,0,0,1
0:32.728,11782,N,0,0,0
0:32.839,11822,),0,0,1
0:32.858,11829,(,0,0,2
0:32.911,11848,t,0,0,1
0:33.058,11901,),0,0,2
0:33.194,11950,(,0,0,0
0:33.253,11971,p,0,0,0
0:33.322,11996,),0,0,0
0:33.356,12008,(,0,0,1
0:33.411,12028,N,0,0,0
0:33.528,12070,),0,0,1
0:33.547,12077,(,0,0,2
0:33.603,12097,t,0,0,1
0:33.747,12149,),0,0,2
0:33.883,12198,(,0,0,0
0:33.944,12220,p,0,0,0
0:34.019,12247,),0,0,0
0:34.044,12256,(,0,0,1
0:34.097,12275,N,0,0,0
0:34.206,12314,),0,0,1
0:34.225,12321,(,0,0,2
0:34.278,12340,t,0,0,1
0:34.414,12389,),0,0,2
0:34.558,12441,(,0,0,0
0:34.611,12460,p,0,0,0
0:34.700,12492,),0,0,0
0:34.725,12501,(,0,0,1
0:34.781,12521,N,0,0,0
0:34.892,12561,),0,0,1
0:34.992,12597,(,0,0,2
0:35.100,12636,t,0,0,0
0:35.128,12646,),0,0,2
0:35.233,12684,(,0,0,0
0:35.297,12707,p,0,0,0
0:35.372,12734,),0,0,0
0:35.394,12742,(,0,0,1
0:35.456,12764,N,0,0,0
0:35.569,12805,),0,0,1
0:35.658,12837,(,0,0,2
0:35.775,12879,t,0,0,0
0:35.797,12887,),0,0,2
0:35.825,12897,(,0,0,0
0:35.853,12907,p,0,0,0
0:35.922,12932,),0,0,0
0:36.011,12964,(,0,0,1
0:36.100,12996,N,0,0,0
0:36.211,13036,),0,0,1
0:36.231,13043,(,0,0,2
0:36.278,13060,t,0,0,4
0:36.419,13111,t,0,0,4
0:36.450,13122,),0,0,2
0:36.536,13153,(,0,0,0
0:36.592,13173,p,0,0,0
0:36.656,13196,),0,0,0
0:36.686,13207,(,0,0,1
0:36.742,13227,N,0,0,0
0:36.844,13264,),0,0,1
0:36.939,13298,(,0,0,2
0:37.050,13338,t,0,0,0
0:37.078,13348,),0,0,2
0:37.175,13383,(,0,0,0
0:37.244,13408,p,0,0,0
0:37.308,13431,),0,0,0
0:37.339,13442,(,0,0,1
0:37.394,13462,N,0,0,0
0:37.506,13502,),0,0,1
0:37.525,13509,(,0,0,2
0:37.578,13528,t,0,0,4
0:37.733,13584,t,0,0,4
0:37.767,13596,),0,0,2
0:37.864,13631,(,0,0,0
0:37.919,13651,p,0,0,0
0:38.011,13684,),0,0,0
0:38.039,13694,(,0,0,1
0:38.094,13714,N,0,0,0
0:38.206,13754,),0,0,1
0:38.222,13760,(,0,0,2
0:38.283,13782,t,0,0,4
0:38.428,13834,t,0,0,4
0:38.464,13847,),0,0,2
0:38.497,13859,(,0,0,0
0:38.514,13865,p,0,0,0
0:38.614,13901,),0,0,0
0:38.631,13907,(,0,0,1
0:38.733,13944,N,0,0,0
0:38.811,13972,),0,0,1
0:38.861,13990,(,0,0,2
0:38.986,14035,t,0,0,0
0:39.142,14091,),0,0,2
0:39.256,14132,(,0,0,0
0:39.331,14159,p,0,0,0
0:39.392,14181,),0,0,0
0:39.411,14188,(,0,0,1
0:39.472,14210,N,0,0,0
0:39.592,14253,),0,0,1
0:39.608,14259,(,0,0,2
0:39.664,14279,t,0,0,1
0:39.808,14331,),0,0,2
0:39.947,14381,(,0,0,0
0:40.003,14401,p,0,0,0
0:40.089,14432,),0,0,0
0:40.111,14440,(,0,0,1
0:40.169,14461,N,0,0,0
0:40.289,14504,),0,0,1
0:40.311,14512,(,0,0,2
0:40.361,14530,t,0,0,4
0:40.514,14585,t,0,0,4
0:40.561,14602,),0,0,2
0:40.589,14612,(,0,0,0
0:40.625,14625,p,0,0,0
0:40.686,14647,),0,0,0
0:40.811,14692,(,0,0,1
0:40.867,14712,N,0,0,0
0:40.978,14752,),0,0,1
0:40.994,14758,(,0,0,2
0:41.050,14778,t,0,0,4
0:41.200,14832,t,0,0,4
0:41.231,14843,),0,0,2
0:41.333,14880,(,0,0,0
0:41.389,14900,p,0,0,0
0:41.461,14926,),0,0,0
0:41.492,14937,(,0,0,1
0:41.544,14956,N,0,0,0
0:41.653,14995,),0,0,1
0:41.669,15001,(,0,0,2
0:41.719,15019,t,0,0,4
0:41.867,15072,t,0,0,4
0:41.906,15086,),0,0,2
0:42.006,15122,(,0,0,0
0:42.078,15148,p,0,0,0
0:42.139,15170,),0,0,0
0:42.164,15179,(,0,0,1
0:42.219,15199,N,0,0,0
0:42.322,15236,),0,0,1
0:42.339,15242,(,0,0,2
0:42.386,15259,t,0,0,4
0:42.528,15310,t,0,0,4
0:42.564,15323,),0,0,2
0:42.656,15356,(,0,0,0
0:42.714,15377,p,0,0,0
0:42.792,15405,),0,0,0
0:42.819,15415,(,0,0,1
0:42.875,15435,N,0,0,0
0:42.983,15474,),0,0,1
0:43.000,15480,(,0,0,2
0:43.050,15498,t,0,0,4
0:43.186,15547,t,0,0,4
0:43.228,15562,),0,0,2
0:43.311,15592,(,0,0,0
0:43.364,15611,p,0,0,0
0:43.411,15628,),0,0,0
0:43.467,15648,(,0,0,1
0:43.522,15668,N,0,0,0
0:43.628,15706,),0,0,1
0:43.647,15713,(,0,0,2
0:43.703,15733,t,0,0,4
0:43.844,15784,t,0,0,4
0:43.883,15798,),0,0,2
0:43.989,15836,(,0,0,0
0:44.042,15855,p,0,0,0
0:44.119,15883,),0,0,0
0:44.153,15895,(,0,0,1
0:44.214,15917,N,0,0,0
0:44.331,15959,),0,0,1
0:44.347,15965,(,0,0,2
0:44.400,15984,t,0,0,4
0:44.561,16042,t,0,0,4
0:44.614,16061,),0,0,2
0:44.719,16099,(,0,0,0
0:44.781,16121,p,0,0,0
0:44.858,16149,),0,0,0
0:44.881,16157,(,0,0,1
0:44.942,16179,N,0,0,0
0:45.058,16221,),0,0,1
0:45.075,16227,(,0,0,2
0:45.128,16246,t,0,0,4
0:45.286,16303,t,0,0,4
0:45.328,16318,),0,0,2
0:45.431,16355,(,0,0,0
0:45.486,16375,p,0,0,0
0:45.572,16406,),0,0,0
0:45.597,16415,(,0,0,1
0:45.656,16436,N,0,0,0
0:45.764,16475,),0,0,1
0:45.783,16482,(,0,0,2
0:45.831,16499,t,0,0,4
0:45.978,16552,t,0,0,4
0:46.019,16567,),0,0,2
0:46.119,16603,(,0,0,0
0:46.172,16622,p,0,0,0
0:46.267,16656,),0,0,0
0:46.289,16664,(,0,0,1
0:46.344,16684,N,0,0,0
0:46.453,16723,),0,0,1
0:46.472,16730,(,0,0,2
0:46.525,16749,t,0,0,4
0:46.675,16803,t,0,0,4
0:46.722,16820,),0,0,2
0:46.814,16853,(,0,0,0
0:46.867,16872,p,0,0,0
0:46.961,16906,),0,0,0
0:46.983,16914,(,0,0,1
0:47.039,16934,N,0,0,0
0:47.147,16973,),0,0,1
0:47.164,16979,(,0,0,2
0:47.217,16998,t,0,0,4
0:47.353,17047,t,0,0,4
0:47.394,17062,),0,0,2
0:47.492,17097,(,0,0,0
0:47.544,17116,p,0,0,0
0:47.631,17147,),0,0,0
0:47.653,17155,(,0,0,1
0:47.711,17176,N,0,0,0
0:47.825,17217,),0,0,1
0:47.925,17253,(,0,0,2
0:48.036,17293,t,0,0,0
0:48.083,17310,),0,0,2
0:48.178,17344,(,0,0,0
0:48.231,17363,p,0,0,0
0:48.297,17387,),0,0,0
0:48.339,17402,(,0,0,1
0:48.394,17422,N,0,0,0
0:48.506,17462,),0,0,1
0:48.522,17468,(,0,0,2
0:48.575,17487,t,0,0,4
0:48.722,17540,t,0,0,4
0:48.764,17555,),0,0,2
0:48.850,17586,(,0,0,0
0:48.911,17608,p,0,0,0
0:48.978,17632,),0,0,0
0:49.006,17642,(,0,0,1
0:49.058,17661,N,0,0,0
0:49.167,17700,),0,0,1
0:49.183,17706,(,0,0,2
0:49.233,17724,t,0,0,4
0:49.383,17778,t,0,0,4
0:49.419,17791,),0,0,2
0:49.519,17827,(,0,0,0
0:49.572,17846,p,0,0,0
0:49.639,17870,),0,0,0
0:49.672,17882,(,0,0,1
0:49.725,17901,N,0,0,0
0:49.833,17940,),0,0,1
0:49.850,17946,(,0,0,2
0:49.903,17965,t,0,0,4
0:50.053,18019,t,0,0,4
0:50.094,18034,),0,0,2
0:50.194,18070,(,0,0,0
0:50.250,18090,p,0,0,0
0:50.339,18122,),0,0,0
0:50.361,18130,(,0,0,1
0:50.422,18152,N,0,0,0
0:50.542,18195,),0,0,1
0:50.564,18203,(,0,0,2
0:50.622,18224,t,0,0,4
0:50.783,18282,t,0,0,4
0:50.833,18300,),0,0,2
0:50.933,18336,(,0,0,0
0:50.983,18354,p,0,0,0
0:51.025,18369,),0,0,0
0:51.108,18399,(,0,0,1
0:51.169,18421,N,0,0,0
0:51.283,18462,),0,0,1
0:51.303,18469,(,0,0,2
0:51.358,18489,t,0,0,4
0:51.506,18542,t,0,0,4
0:51.553,18559,),0,0,2
0:51.594,18574,(,0,0,0
0:51.622,18584,p,0,0,0
0:51.686,18607,),0,0,0
0:51.792,18645,(,0,0,1
0:51.881,18677,N,0,0,0
0:52.003,18721,),0,0,1
0:52.019,18727,(,0,0,2
0:52.075,18747,t,0,0,4
0:52.222,18800,t,0,0,4
0:52.264,18815,),0,0,2
0:52.358,18849,(,0,0,0
0:52.414,18869,p,0,0,0
0:52.483,18894,),0,0,0
0:52.514,18905,(,0,0,1
0:52.575,18927,N,0,0,0
0:52.689,18968,),0,0,1
0:52.706,18974,(,0,0,2
0:52.761,18994,t,0,0,4
0:52.908,19047,t,0,0,4
0:52.944,19060,),0,0,2
0:53.044,19096,(,0,0,0
0:53.103,19117,p,0,0,0
0:53.172,19142,),0,0,0
0:53.206,19154,(,0,0,1
0:53.261,19174,N,0,0,0
0:53.372,19214,),0,0,1
0:53.394,19222,(,0,0,2
0:53.444,19240,t,0,0,4
0:53.594,19294,t,0,0,4
0:53.631,19307,),0,0,2
0:53.719,19339,(,0,0,0
0:53.769,19357,p,0,0,0
0:53.850,19386,),0,0,0
0:53.872,19394,(,0,0,1
0:53.925,19413,N,0,0,0
0:54.033,19452,),0,0,1
0:54.050,19458,(,0,0,2
0:54.108,19479,t,0,0,4
0:54.258,19533,t,0,0,4
0:54.303,19549,),0,0,2
0:54.397,19583,(,0,0,0
0:54.447,19601,p,0,0,0
0:54.497,19619,),0,0,0
0:54.553,19639,(,0,0,1
0:54.606,19658,N,0,0,0
0:54.714,19697,),0,0,1
0:54.817,19734,(,0,0,2
0:54.936,19777,t,0,0,0
0:54.983,19794,),0,0,2
0:55.086,19831,(,0,0,0
0:55.139,19850,p,0,0,0
0:55.211,19876,),0,0,0
0:55.242,19887,(,0,0,1
0:55.294,19906,N,0,0,0
0:55.397,19943,),0,0,1
0:55.414,19949,(,0,0,2
0:55.464,19967,t,0,0,4
0:55.606,20018,t,0,0,4
0:55.650,20034,),0,0,2
0:55.756,20072,(,0,0,0
0:55.814,20093,p,0,0,0
0:55.886,20119,),0,0,0
0:55.914,20129,(,0,0,1
0:55.972,20150,N,0,0,0
0:56.081,20189,),0,0,1
0:56.094,20194,(,0,0,2
0:56.142,20211,t,0,0,4
0:56.292,20265,t,0,0,4
0:56.333,20280,),0,0,2
0:56.433,20316,(,0,0,0
0:56.486,20335,p,0,0,0
0:56.569,20365,),0,0,0
0:56.600,20376,(,0,0,1
0:56.661,20398,N,0,0,0
0:56.778,20440,),0,0,1
0:56.797,20447,(,0,0,2
0:56.853,20467,t,0,0,4
0:57.017,20526,t,0,0,4
0:57.064,20543,),0,0,2
0:57.167,20580,(,0,0,0
0:57.219,20599,p,0,0,0
0:57.319,20635,),0,0,0
0:57.347,20645,(,0,0,1
0:57.406,20666,N,0,0,0
0:57.531,20711,),0,0,1
0:57.547,20717,(,0,0,2
0:57.611,20740,t,0,0,4
0:57.764,20795,t,0,0,4
0:57.814,20813,),0,0,2
0:57.911,20848,(,0,0,0
0:57.961,20866,p,0,0,0
0:58.053,20899,),0,0,0
0:58.075,20907,(,0,0,1
0:58.131,20927,N,0,0,0
0:58.244,20968,),0,0,1
0:58.261,20974,(,0,0,2
0:58.325,20997,t,0,0,4
0:58.475,21051,t,0,0,4
0:58.514,21065,),0,0,2
0:58.622,21104,(,0,0,0
0:58.672,21122,p,0,0,0
0:58.750,21150,),0,0,0
0:58.775,21159,(,0,0,1
0:58.828,21178,N,0,0,0
0:58.933,21216,),0,0,1
0:59.036,21253,(,0,0,2
0:59.147,21293,t,0,0,0
0:59.197,21311,),0,0,2
0:59.297,21347,(,0,0,0
0:59.356,21368,p,0,0,0
0:59.428,21394,),0,0,0
0:59.456,21404,(,0,0,1
0:59.508,21423,N,0,0,0
0:59.617,21462,),0,0,1
0:59.631,21467,(,0,0,2
0:59.678,21484,t,0,0,4
0:59.831,21539,t,0,0,4
0:59.872,21554,),0,0,2
0:59.972,21590,(,0,0,0
1:00.031,21611,p,0,0,0
1:00.106,21638,),0,0,0
1:00.131,21647,(,0,0,1
1:00.183,21666,N,0,0,0
1:00.286,21703,),0,0,1
1:00.300,21708,(,0,0,2
1:00.350,21726,t,0,0,4
1:00.494,21778,t,0,0,4
1:00.533,21792,),0,0,2
1:00.633,21828,(,0,0,0
1:00.689,21848,p,0,0,0
1:00.778,21880,),0,0,0
1:00.800,21888,(,0,0,1
1:00.856,21908,N,0,0,0
1:00.961,21946,),0,0,1
1:00.983,21954,(,0,0,2
1:01.033,21972,t,0,0,4
1:01.181,22025,t,0,0,4
1:01.222,22040,),0,0,2
1:01.322,22076,(,0,0,0
1:01.372,22094,p,0,0,0
1:01.464,22127,),0,0,0
1:01.494,22138,(,0,0,1
1:01.550,22158,N,0,0,0
1:01.658,22197,),0,0,1
1:01.678,22204,(,0,0,2
1:01.728,22222,t,0,0,4
1:01.875,22275,t,0,0,4
1:01.914,22289,),0,0,2
1:02.014,22325,(,0,0,0
1:02.075,22347,p,0,0,0
1:02.150,22374,),0,0,0
1:02.181,22385,(,0,0,1
1:02.239,22406,N,0,0,0
1:02.350,22446,),0,0,1
1:02.364,22451,(,0,0,2
1:02.422,22472,t,0,0,4
1:02.575,22527,t,0,0,4
1:02.619,22543,),0,0,2
1:02.728,22582,(,0,0,0
1:02.797,22607,p,0,0,0
1:02.864,22631,),0,0,0
1:02.886,22639,(,0,0,1
1:02.942,22659,N,0,0,0
1:03.053,22699,),0,0,1
1:03.075,22707,(,0,0,2
1:03.122,22724,t,0,0,4
1:03.281,22781,t,0,0,4
1:03.322,22796,),0,0,2
1:03.433,22836,(,0,0,0
1:03.506,22862,p,0,0,0
1:03.583,22890,),0,0,0
1:03.611,22900,(,0,0,1
1:03.667,22920,N,0,0,0
1:03.786,22963,),0,0,1
1:03.814,22973,(,0,0,2
1:03.864,22991,t,0,0,4
1:04.025,23049,t,0,0,4
1:04.072,23066,),0,0,2
1:04.181,23105,(,0,0,0
1:04.236,23125,p,0,0,0
1:04.325,23157,),0,0,0
1:04.347,23165,(,0,0,1
1:04.408,23187,N,0,0,0
1:04.514,23225,),0,0,1
1:04.533,23232,(,0,0,2
1:04.592,23253,t,0,0,4
1:04.739,23306,t,0,0,4
1:04.781,23321,),0,0,2
1:04.886,23359,(,0,0,0
1:04.939,23378,p,0,0,0
1:05.019,23407,),0,0,0
1:05.050,23418,(,0,0,1
1:05.103,23437,N,0,0,0
1:05.208,23475,),0,0,1
1:05.225,23481,(,0,0,2
1:05.275,23499,t,0,0,4
1:05.414,23549,t,0,0,4
1:05.450,23562,),0,0,2
1:05.547,23597,(,0,0,0
1:05.608,23619,p,0,0,0
1:05.681,23645,),0,0,0
1:05.711,23656,(,0,0,1
1:05.764,23675,N,0,0,0
1:05.869,23713,),0,0,1
1:05.886,23719,(,0,0,2
1:05.936,23737,t,0,0,4
1:06.069,23785,t,0,0,4
1:06.119,23803,),0,0,2
1:06.219,23839,(,0,0,0
1:06.283,23862,p,0,0,0
1:06.358,23889,),0,0,0
1:06.381,23897,(,0,0,1
1:06.433,23916,N,0,0,0
1:06.544,23956,),0,0,1
1:06.561,23962,(,0,0,2
1:06.606,23978,t,0,0,4
1:06.747,24029,t,0,0,4
1:06.783,24042,),0,0,2
1:06.881,24077,(,0,0,0
1:06.933,24096,p,0,0,0
1:07.017,24126,),0,0,0
1:07.044,24136,(,0,0,1
1:07.100,24156,N,0,0,0
1:07.217,24198,),0,0,1
1:07.242,24207,(,0,0,2
1:07.289,24224,t,0,0,4
1:07.433,24276,t,0,0,4
1:07.475,24291,),0,0,2
1:07.572,24326,(,0,0,0
1:07.625,24345,p,0,0,0
1:07.708,24375,),0,0,0
1:07.739,24386,(,0,0,1
1:07.794,24406,N,0,0,0
1:07.911,24448,),0,0,1
1:07.933,24456,(,0,0,2
1:07.992,24477,t,0,0,4
1:08.147,24533,t,0,0,4
1:08.189,24548,),0,0,2
1:08.292,24585,(,0,0,0
1:08.342,24603,p,0,0,0
1:08.417,24630,),0,0,0
1:08.447,24641,(,0,0,1
1:08.506,24662,N,0,0,0
1:08.619,24703,),0,0,1
1:08.639,24710,(,0,0,2
1:08.692,24729,t,0,0,4
1:08.850,24786,t,0,0,4
1:08.900,24804,),0,0,2
1:09.006,24842,(,0,0,0
1:09.067,24864,p,0,0,0
1:09.139,24890,),0,0,0
1:09.167,24900,(,0,0,1
1:09.225,24921,N,0,0,0
1:09.336,24961,),0,0,1
1:09.350,24966,(,0,0,2
1:09.406,24986,t,0,0,4
1:09.553,25039,t,0,0,4
1:09.600,25056,),0,0,2
1:09.714,25097,(,0,0,0
1:09.781,25121,p,0,0,0
1:09.858,25149,),0,0,0
1:09.881,25157,(,0,0,1
1:09.939,25178,N,0,0,0
1:10.056,25220,),0,0,1
1:10.078,25228,(,0,0,2
1:10.131,25247,t,0,0,4
1:10.292,25305,t,0,0,4
1:10.342,25323,),0,0,2
1:10.381,25337,(,0,0,0
1:10.411,25348,p,0,0,0
1:10.481,25373,),0,0,0
1:10.594,25414,(,0,0,1
1:10.683,25446,N,0,0,0
1:10.800,25488,),0,0,1
1:10.819,25495,(,0,0,2
1:10.875,25515,t,0,0,4
1:11.017,25566,t,0,0,4
1:11.069,25585,),0,0,2
1:11.161,25618,(,0,0,0
1:11.211,25636,p,0,0,0
1:11.300,25668,),0,0,0
1:11.325,25677,(,0,0,1
1:11.381,25697,N,0,0,0
1:11.494,25738,),0,0,1
1:11.514,25745,(,0,0,2
1:11.567,25764,t,0,0,4
1:11.706,25814,t,0,0,4
1:11.750,25830,),0,0,2
1:11.839,25862,(,0,0,0
1:11.889,25880,p,0,0,0
1:11.958,25905,),0,0,0
1:11.989,25916,(,0,0,1
1:12.044,25936,N,0,0,0
1:12.153,25975,),0,0,1
1:12.169,25981,(,0,0,2
1:12.225,26001,t,0,0,4
1:12.364,26051,t,0,0,4
1:12.411,26068,),0,0,2
1:12.497,26099,(,0,0,0
1:12.556,26120,p,0,0,0
1:12.628,26146,),0,0,0
1:12.656,26156,(,0,0,1
1:12.711,26176,N,0,0,0
1:12.822,26216,),0,0,1
1:12.839,26222,(,0,0,2
1:12.894,26242,t,0,0,4
1:13.039,26294,t,0,0,4
1:13.092,26313,),0,0,2
1:13.119,26323,(,0,0,0
1:13.147,26333,p,0,0,0
1:13.208,26355,),0,0,0
1:13.333,26400,(,0,0,1
1:13.392,26421,N,0,0,0
1:13.503,26461,),0,0,1
1:13.522,26468,(,0,0,2
1:13.581,26489,t,0,0,4
1:13.736,26545,t,0,0,4
1:13.786,26563,),0,0,2
1:13.881,26597,(,0,0,0
1:13.931,26615,p,0,0,0
1:14.022,26648,),0,0,0
1:14.044,26656,(,0,0,1
1:14.103,26677,N,0,0,0
1:14.222,26720,),0,0,1
1:14.244,26728,(,0,0,2
1:14.300,26748,t,0,0,4
1:14.450,26802,t,0,0,4
1:14.506,26822,),0,0,2
1:14.542,26835,(,0,0,0
1:14.575,26847,p,0,0,0
1:14.639,26870,),0,0,0
1:14.742,26907,(,0,0,1
1:14.828,26938,N,0,0,0
1:14.942,26979,),0,0,1
1:14.958,26985,(,0,0,2
1:15.011,27004,t,0,0,4
1:15.167,27060,t,0,0,4
1:15.219,27079,),0,0,2
1:15.328,27118,(,0,0,0
1:15.383,27138,p,0,0,0
1:15.464,27167,),0,0,0
1:15.494,27178,(,0,0,1
1:15.550,27198,N,0,0,0
1:15.656,27236,),0,0,1
1:15.669,27241,(,0,0,2
1:15.728,27262,t,0,0,4
1:15.878,27316,t,0,0,4
1:15.925,27333,),0,0,2
1:16.031,27371,(,0,0,0
1:16.092,27393,p,0,0,0
1:16.167,27420,),0,0,0
1:16.200,27432,(,0,0,1
1:16.258,27453,N,0,0,0
1:16.372,27494,),0,0,1
1:16.392,27501,(,0,0,2
1:16.447,27521,t,0,0,4
1:16.603,27577,t,0,0,4
1:16.656,27596,),0,0,2
1:16.744,27628,(,0,0,1
1:16.872,27674,N,0,0,0
1:16.989,27716,),0,0,1
1:17.006,27722,(,0,0,2
1:17.131,27767,t,0,0,0
1:17.317,27834,),0,0,2
1:17.378,27856,(,0,0,0
1:17.439,27878,p,0,0,0
1:17.492,27897,),0,0,0
1:17.619,27943,(,0,0,1
1:17.675,27963,N,0,0,0
1:17.792,28005,),0,0,1
1:17.811,28012,(,0,0,2
1:17.858,28029,t,0,0,4
1:18.022,28088,t,0,0,4
1:18.050,28098,),0,0,2
1:18.142,28131,(,0,0,0
1:18.192,28149,p,0,0,0
1:18.267,28176,),0,0,0
1:18.289,28184,(,0,0,1
1:18.342,28203,N,0,0,0
1:18.444,28240,),0,0,1
1:18.544,28276,(,0,0,2
1:18.664,28319,t,0,0,0
1:18.731,28343,),0,0,2
1:18.756,28352,(,0,0,0
1:18.803,28369,p,0,0,0
1:18.853,28387,),0,0,0
1:18.975,28431,(,0,0,1
1:19.028,28450,N,0,0,0
1:19.139,28490,),0,0,1
1:19.156,28496,(,0,0,2
1:19.217,28518,t,0,0,4
1:19.369,28573,t,0,0,4
1:19.417,28590,),0,0,2
1:19.511,28624,(,0,0,0
1:19.561,28642,p,0,0,0
1:19.614,28661,),0,0,0
1:19.661,28678,(,0,0,1
1:19.714,28697,N,0,0,0
1:19.819,28735,),0,0,1
1:19.839,28742,(,0,0,2
1:19.892,28761,t,0,0,4
1:20.056,28820,t,0,0,4
1:20.111,28840,),0,0,2
1:20.219,28879,(,0,0,0
1:20.275,28899,p,0,0,0
1:20.350,28926,),0,0,0
1:20.383,28938,(,0,0,1
1:20.439,28958,N,0,0,0
1:20.553,28999,),0,0,1
1:20.567,29004,(,0,0,2
1:20.631,29027,t,0,0,4
1:20.797,29087,t,0,0,4
1:20.853,29107,),0,0,2
1:20.958,29145,(,0,0,0
1:21.025,29169,p,0,0,0
1:21.103,29197,),0,0,0
1:21.133,29208,(,0,0,1
1:21.189,29228,N,0,0,0
1:21.300,29268,),0,0,1
1:21.317,29274,(,0,0,2
1:21.372,29294,t,0,0,4
1:21.525,29349,t,0,0,4
1:21.581,29369,),0,0,2
1:21.686,29407,(,0,0,0
1:21.742,29427,p,0,0,0
1:21.831,29459,),0,0,0
1:21.853,29467,(,0,0,1
1:21.911,29488,N,0,0,0
1:22.022,29528,),0,0,1
1:22.042,29535,(,0,0,2
1:22.097,29555,t,0,0,4
1:22.247,29609,t,0,0,4
1:22.300,29628,),0,0,2
1:22.322,29636,(,0,0,0
1:22.367,29652,p,0,0,0
1:22.431,29675,),0,0,0
1:22.525,29709,(,0,0,1
1:22.614,29741,N,0,0,0
1:22.731,29783,),0,0,1
1:22.747,29789,(,0,0,2
1:22.811,29812,t,0,0,4
1:22.958,29865,t,0,0,4
1:23.014,29885,),0,0,2
1:23.117,29922,(,0,0,0
1:23.164,29939,p,0,0,0
1:23.250,29970,),0,0,0
1:23.283,29982,(,0,0,1
1:23.339,30002,N,0,0,0
1:23.453,30043,),0,0,1
1:23.472,30050,(,0,0,2
1:23.522,30068,t,0,0,4
1:23.675,30123,t,0,0,4
1:23.736,30145,),0,0,2
1:23.750,30150,(,0,0,0
1:23.794,30166,p,0,0,0
1:23.861,30190,),0,0,0
1:23.983,30234,(,0,0,1
1:24.036,30253,N,0,0,0
1:24.142,30291,),0,0,1
1:24.158,30297,(,0,0,2
1:24.214,30317,t,0,0,4
1:24.361,30370,t,0,0,4
1:24.417,30390,),0,0,2
1:24.511,30424,(,0,0,0
1:24.567,30444,p,0,0,0
1:24.628,30466,),0,0,0
1:24.664,30479,(,0,0,1
1:24.717,30498,N,0,0,0
1:24.817,30534,),0,0,1
1:24.833,30540,(,0,0,2
1:24.886,30559,t,0,0,4
1:25.031,30611,t,0,0,4
1:25.083,30630,),0,0,2
1:25.183,30666,(,0,0,0
1:25.253,30691,p,0,0,0
1:25.314,30713,),0,0,0
1:25.333,30720,(,0,0,1
1:25.394,30742,N,0,0,0
1:25.500,30780,),0,0,1
1:25.517,30786,(,0,0,2
1:25.569,30805,t,0,0,4
1:25.728,30862,t,0,0,4
1:25.783,30882,),0,0,2
1:25.883,30918,(,0,0,0
1:25.953,30943,p,0,0,0
1:26.019,30967,),0,0,0
1:26.044,30976,(,0,0,1
1:26.100,30996,N,0,0,0
1:26.203,31033,),0,0,1
1:26.222,31040,(,0,0,2
1:26.283,31062,t,0,0,4
1:26.428,31114,t,0,0,4
1:26.486,31135,),0,0,2
1:26.525,31149,(,0,0,0
1:26.564,31163,p,0,0,0
1:26.625,31185,),0,0,0
1:26.736,31225,(,0,0,1
1:26.828,31258,N,0,0,0
1:26.942,31299,),0,0,1
1:26.967,31308,(,0,0,2
1:27.022,31328,t,0,0,4
1:27.175,31383,t,0,0,4
1:27.236,31405,),0,0,2
1:27.344,31444,(,0,0,0
1:27.400,31464,p,0,0,0
1:27.492,31497,),0,0,0
1:27.522,31508,(,0,0,1
1:27.583,31530,N,0,0,0
1:27.694,31570,),0,0,1
1:27.714,31577,(,0,0,2
1:27.775,31599,t,0,0,4
1:27.922,31652,t,0,0,4
1:27.978,31672,),0,0,2
1:28.081,31709,(,0,0,0
1:28.133,31728,p,0,0,0
1:28.211,31756,),0,0,0
1:28.250,31770,(,0,0,1
1:28.306,31790,N,0,0,0
1:28.419,31831,),0,0,1
1:28.439,31838,(,0,0,2
1:28.494,31858,t,0,0,4
1:28.642,31911,t,0,0,4
1:28.694,31930,),0,0,2
1:28.792,31965,(,0,0,0
1:28.844,31984,p,0,0,0
1:28.911,32008,),0,0,0
1:28.950,32022,(,0,0,1
1:29.000,32040,N,0,0,0
1:29.106,32078,),0,0,1
1:29.122,32084,(,0,0,2
1:29.178,32104,t,0,0,4
1:29.328,32158,t,0,0,4
1:29.383,32178,),0,0,2
1:29.483,32214,(,0,0,0
1:29.558,32241,p,0,0,0
1:29.614,32261,),0,0,0
1:29.650,32274,(,0,0,1
1:29.706,32294,N,0,0,0
1:29.817,32334,),0,0,1
1:29.836,32341,(,0,0,2
1:29.892,32361,t,0,0,4
1:30.047,32417,t,0,0,4
1:30.100,32436,),0,0,2
1:30.203,32473,(,0,0,0
1:30.261,32494,p,0,0,0
1:30.339,32522,),0,0,0
1:30.361,32530,(,0,0,1
1:30.414,32549,N,0,0,0
1:30.517,32586,),0,0,1
1:30.539,32594,(,0,0,2
1:30.589,32612,t,0,0,4
1:30.739,32666,t,0,0,4
1:30.794,32686,),0,0,2
1:30.894,32722,(,0,0,0
1:30.944,32740,p,0,0,0
1:31.031,32771,),0,0,0
1:31.053,32779,(,0,0,1
1:31.106,32798,N,0,0,0
1:31.211,32836,),0,0,1
1:31.228,32842,(,0,0,2
1:31.272,32858,t,0,0,4
1:31.417,32910,t,0,0,4
1:31.458,32925,),0,0,2
1:31.561,32962,(,0,0,0
1:31.611,32980,p,0,0,0
1:31.692,33009,),0,0,0
1:31.725,33021,(,0,0,1
1:31.778,33040,N,0,0,0
1:31.883,33078,),0,0,1
1:31.903,33085,(,0,0,2
1:31.964,33107,t,0,0,4
1:32.111,33160,t,0,0,4
1:32.153,33175,),0,0,2
1:32.258,33213,(,0,0,1
1:32.392,33261,N,0,0,0
1:32.486,33295,),0,0,1
1:32.522,33308,(,0,0,2
1:32.650,33354,t,0,0,0
1:32.831,33419,),0,0,2
1:32.983,33474,(,0,0,0
1:33.056,33500,p,0,0,0
1:33.111,33520,),0,0,0
1:33.158,33537,(,0,0,1
1:33.219,33559,N,0,0,0
1:33.339,33602,),0,0,1
1:33.364,33611,(,0,0,2
1:33.411,33628,t,0,0,4
1:33.583,33690,t,0,0,4
1:33.608,33699,),0,0,2
1:33.719,33739,(,0,0,0
1:33.778,33760,p,0,0,0
1:33.867,33792,),0,0,0
1:33.897,33803,(,0,0,1
1:33.956,33824,N,0,0,0
1:34.075,33867,),0,0,1
1:34.092,33873,(,0,0,2
1:34.153,33895,t,0,0,4
1:34.306,33950,t,0,0,4
1:34.361,33970,),0,0,2
1:34.400,33984,(,0,0,0
1:34.447,34001,p,0,0,0
1:34.497,34019,),0,0,0
1:34.625,34065,(,0,0,1
1:34.683,34086,N,0,0,0
1:34.797,34127,),0,0,1
1:34.817,34134,(,0,0,2
1:34.867,34152,t,0,0,4
1:35.022,34208,t,0,0,4
1:35.072,34226,),0,0,2
1:35.103,34237,(,0,0,0
1:35.131,34247,p,0,0,0
1:35.192,34269,),0,0,0
1:35.317,34314,(,0,0,1
1:35.369,34333,N,0,0,0
1:35.478,34372,),0,0,1
1:35.494,34378,(,0,0,2
1:35.547,34397,t,0,0,4
1:35.692,34449,t,0,0,4
1:35.736,34465,),0,0,2
1:35.833,34500,(,0,0,0
1:35.889,34520,p,0,0,0
1:35.967,34548,),0,0,0
1:35.994,34558,(,0,0,1
1:36.050,34578,N,0,0,0
1:36.161,34618,),0,0,1
1:36.178,34624,(,0,0,2
1:36.239,34646,t,0,0,4
1:36.386,34699,t,0,0,4
1:36.442,34719,),0,0,2
1:36.544,34756,(,0,0,0
1:36.594,34774,p,0,0,0
1:36.675,34803,),0,0,0
1:36.711,34816,(,0,0,1
1:36.764,34835,N,0,0,0
1:36.872,34874,),0,0,1
1:36.892,34881,(,0,0,2
1:36.942,34899,t,0,0,4
1:37.083,34950,t,0,0,4
1:37.136,34969,),0,0,2
1:37.231,35003,(,0,0,0
1:37.289,35024,p,0,0,0
1:37.367,35052,),0,0,0
1:37.400,35064,(,0,0,1
1:37.456,35084,N,0,0,0
1:37.564,35123,),0,0,1
1:37.581,35129,(,0,0,2
1:37.636,35149,t,0,0,4
1:37.772,35198,t,0,0,4
1:37.825,35217,),0,0,2
1:37.919,35251,(,0,0,0
1:37.972,35270,p,0,0,0
1:38.053,35299,),0,0,0
1:38.081,35309,(,0,0,1
1:38.139,35330,N,0,0,0
1:38.253,35371,),0,0,1
1:38.272,35378,(,0,0,2
1:38.322,35396,t,0,0,4
1:38.469,35449,t,0,0,4
1:38.522,35468,),0,0,2
1:38.558,35481,(,0,0,0
1:38.597,35495,p,0,0,0
1:38.658,35517,),0,0,0
1:38.769,35557,(,0,0,1
1:38.858,35589,N,0,0,0
1:38.978,35632,),0,0,1
1:39.003,35641,(,0,0,2
1:39.056,35660,t,0,0,4
1:39.208,35715,t,0,0,4
1:39.256,35732,),0,0,2
1:39.358,35769,(,0,0,0
1:39.411,35788,p,0,0,0
1:39.494,35818,),0,0,0
1:39.528,35830,(,0,0,1
1:39.586,35851,N,0,0,0
1:39.703,35893,),0,0,1
1:39.719,35899,(,0,0,2
1:39.783,35922,t,0,0,4
1:39.944,35980,t,0,0,4
1:40.003,36001,),0,0,2
1:40.103,36037,(,0,0,0
1:40.156,36056,p,0,0,0
1:40.244,36088,),0,0,0
1:40.269,36097,(,0,0,1
1:40.325,36117,N,0,0,0
1:40.444,36160,),0,0,1
1:40.461,36166,(,0,0,2
1:40.525,36189,t,0,0,4
1:40.683,36246,t,0,0,4
1:40.739,36266,),0,0,2
1:40.836,36301,(,0,0,0
1:40.886,36319,p,0,0,0
1:40.964,36347,),0,0,0
1:40.992,36357,(,0,0,1
1:41.047,36377,N,0,0,0
1:41.153,36415,),0,0,1
1:41.169,36421,(,0,0,2
1:41.228,36442,t,0,0,4
1:41.381,36497,t,0,0,4
1:41.431,36515,),0,0,2
1:41.464,36527,(,0,0,0
1:41.508,36543,p,0,0,0
1:41.561,36562,),0,0,0
1:41.686,36607,(,0,0,1
1:41.739,36626,N,0,0,0
1:41.839,36662,),0,0,1
1:41.858,36669,(,0,0,2
1:41.908,36687,t,0,0,4
1:42.050,36738,t,0,0,4
1:42.106,36758,),0,0,2
1:42.150,36774,(,0,0,0
1:42.183,36786,p,0,0,0
1:42.242,36807,),0,0,0
1:42.367,36852,(,0,0,1
1:42.422,36872,N,0,0,0
1:42.531,36911,),0,0,1
1:42.556,36920,(,0,0,2
1:42.606,36938,t,0,0,4
1:42.756,36992,t,0,0,4
1:42.811,37012,),0,0,2
1:42.911,37048,(,0,0,0
1:42.975,37071,p,0,0,0
1:43.053,37099,),0,0,0
1:43.081,37109,(,0,0,1
1:43.136,37129,N,0,0,0
1:43.250,37170,),0,0,1
1:43.267,37176,(,0,0,2
1:43.319,37195,t,0,0,4
1:43.469,37249,t,0,0,4
1:43.522,37268,),0,0,2
1:43.619,37303,(,0,0,0
1:43.669,37321,p,0,0,0
1:43.753,37351,),0,0,0
1:43.781,37361,(,0,0,1
1:43.836,37381,N,0,0,0
1:43.950,37422,),0,0,1
1:43.972,37430,(,0,0,2
1:44.031,37451,t,0,0,4
1:44.183,37506,t,0,0,4
1:44.239,37526,),0,0,2
1:44.253,37531,(,0,0,0
1:44.303,37549,p,0,0,0
1:44.367,37572,),0,0,0
1:44.492,37617,(,0,0,1
1:44.547,37637,N,0,0,0
1:44.661,37678,),0,0,1
1:44.683,37686,(,0,0,2
1:44.744,37708,t,0,0,4
1:44.900,37764,t,0,0,4
1:44.958,37785,),0,0,2
1:45.056,37820,(,0,0,0
1:45.108,37839,p,0,0,0
1:45.172,37862,),0,0,0
1:45.219,37879,(,0,0,1
1:45.278,37900,N,0,0,0
1:45.394,37942,),0,0,1
1:45.414,37949,(,0,0,2
1:45.475,37971,t,0,0,4
1:45.633,38028,t,0,0,4
1:45.689,38048,),0,0,2
1:45.733,38064,(,0,0,0
1:45.767,38076,p,0,0,0
1:45.822,38096,),0,0,0
1:45.950,38142,(,0,0,1
1:46.008,38163,N,0,0,0
1:46.122,38204,),0,0,1
1:46.144,38212,(,0,0,2
1:46.203,38233,t,0,0,4
1:46.361,38290,t,0,0,4
1:46.419,38311,),0,0,2
1:46.528,38350,(,0,0,0
1:46.586,38371,p,0,0,0
1:46.664,38399,),0,0,0
1:46.686,38407,(,0,0,1
1:46.747,38429,N,0,0,0
1:46.861,38470,),0,0,1
1:46.881,38477,(,0,0,2
1:46.939,38498,t,0,0,4
1:47.094,38554,t,0,0,4
1:47.147,38573,),0,0,2
1:47.253,38611,(,0,0,0
1:47.308,38631,p,0,0,0
1:47.392,38661,),0,0,0
1:47.417,38670,(,0,0,1
1:47.469,38689,N,0,0,0
1:47.575,38727,),0,0,1
1:47.592,38733,(,0,0,2
1:47.647,38753,t,0,0,4
1:47.786,38803,t,0,0,4
1:47.839,38822,),0,0,2
1:47.939,38858,(,0,0,0
1:47.986,38875,p,0,0,0
1:48.075,38907,),0,0,0
1:48.100,38916,(,0,0,1
1:48.153,38935,N,0,0,0
1:48.261,38974,),0,0,1
1:48.281,38981,(,0,0,2
1:48.331,38999,t,0,0,4
1:48.472,39050,t,0,0,4
1:48.517,39066,),0,0,2
1:48.614,39101,(,0,0,0
1:48.664,39119,p,0,0,0
1:48.733,39144,),0,0,0
1:48.769,39157,(,0,0,1
1:48.822,39176,N,0,0,0
1:48.931,39215,),0,0,1
1:48.950,39222,(,0,0,2
1:49.003,39241,t,0,0,4
1:49.153,39295,t,0,0,4
1:49.208,39315,),0,0,2
1:49.308,39351,(,0,0,0
1:49.369,39373,p,0,0,0
1:49.444,39400,),0,0,0
1:49.475,39411,(,0,0,1
1:49.533,39432,N,0,0,0
1:49.647,39473,),0,0,1
1:49.667,39480,(,0,0,2
1:49.722,39500,t,0,0,4
1:49.878,39556,t,0,0,4
1:49.933,39576,),0,0,2
1:49.953,39583,(,0,0,0
1:50.000,39600,p,0,0,0
1:50.064,39623,),0,0,0
1:50.186,39667,(,0,0,1
1:50.247,39689,N,0,0,0
1:50.356,39728,),0,0,1
1:50.381,39737,(,0,0,2
1:50.439,39758,t,0,0,4
1:50.594,39814,t,0,0,4
1:50.650,39834,),0,0,2
1:50.753,39871,(,0,0,0
1:50.808,39891,p,0,0,0
1:50.889,39920,),0,0,0
1:50.917,39930,(,0,0,1
1:50.972,39950,N,0,0,0
1:51.083,39990,),0,0,1
1:51.097,39995,(,0,0,2
1:51.150,40014,t,0,0,4
1:51.306,40070,t,0,0,4
1:51.367,40092,),0,0,2
1:51.475,40131,(,0,0,0
1:51.528,40150,p,0,0,0
1:51.608,40179,),0,0,0
1:51.639,40190,(,0,0,1
1:51.694,40210,N,0,0,0
1:51.803,40249,),0,0,1
1:51.819,40255,(,0,0,2
1:51.883,40278,t,0,0,4
1:52.039,40334,t,0,0,4
1:52.100,40356,),0,0,2
1:52.200,40392,(,0,0,0
1:52.258,40413,p,0,0,0
1:52.339,40442,),0,0,0
1:52.367,40452,(,0,0,1
1:52.419,40471,N,0,0,0
1:52.522,40508,),0,0,1
1:52.542,40515,(,0,0,2
1:52.597,40535,t,0,0,4
1:52.753,40591,t,0,0,4
1:52.803,40609,),0,0,2
1:52.906,40646,(,0,0,0
1:52.964,40667,p,0,0,0
1:53.044,40696,),0,0,0
1:53.072,40706,(,0,0,1
1:53.133,40728,N,0,0,0
1:53.242,40767,),0,0,1
1:53.256,40772,(,0,0,2
1:53.314,40793,t,0,0,4
1:53.464,40847,t,0,0,4
1:53.519,40867,),0,0,2
1:53.619,40903,(,0,0,0
1:53.672,40922,p,0,0,0
1:53.758,40953,),0,0,0
1:53.783,40962,(,0,0,1
1:53.839,40982,N,0,0,0
1:53.953,41023,),0,0,1
1:53.972,41030,(,0,0,2
1:54.028,41050,t,0,0,4
1:54.172,41102,t,0,0,4
1:54.211,41116,),0,0,2
1:54.236,41125,(,0,0,0
1:54.281,41141,p,0,0,0
1:54.339,41162,),0,0,0
1:54.464,41207,(,0,0,1
1:54.517,41226,N,0,0,0
1:54.628,41266,),0,0,1
1:54.650,41274,(,0,0,2
1:54.700,41292,t,0,0,4
1:54.847,41345,t,0,0,4
1:54.897,41363,),0,0,2
1:54.917,41370,(,0,0,0
1:54.953,41383,p,0,0,0
1:55.014,41405,),0,0,0
1:55.136,41449,(,0,0,1
1:55.189,41468,N,0,0,0
1:55.294,41506,),0,0,1
1:55.311,41512,(,0,0,2
1:55.369,41533,t,0,0,4
1:55.519,41587,t,0,0,4
1:55.572,41606,),0,0,2
1:55.664,41639,(,0,0,0
1:55.717,41658,p,0,0,0
1:55.800,41688,),0,0,0
1:55.831,41699,(,0,0,1
1:55.886,41719,N,0,0,0
1:56.000,41760,),0,0,1
1:56.019,41767,(,0,0,2
1:56.083,41790,t,0,0,4
1:56.244,41848,t,0,0,4
1:56.292,41865,),0,0,2
1:56.400,41904,(,0,0,0
1:56.464,41927,p,0,0,0
1:56.542,41955,),0,0,0
1:56.569,41965,(,0,0,1
1:56.631,41987,N,0,0,0
1:56.742,42027,),0,0,1
1:56.761,42034,(,0,0,2
1:56.819,42055,t,0,0,4
1:56.972,42110,t,0,0,4
1:57.019,42127,),0,0,2
1:57.125,42165,(,0,0,0
1:57.186,42187,p,0,0,0
1:57.272,42218,),0,0,0
1:57.297,42227,(,0,0,1
1:57.358,42249,N,0,0,0
1:57.469,42289,),0,0,1
1:57.489,42296,(,0,0,2
1:57.547,42317,t,0,0,4
1:57.694,42370,t,0,0,4
1:57.742,42387,),0,0,2
1:57.833,42420,(,0,0,0
1:57.886,42439,p,0,0,0
1:57.964,42467,),0,0,0
1:58.003,42481,(,0,0,1
1:58.061,42502,N,0,0,0
1:58.175,42543,),0,0,1
1:58.194,42550,(,0,0,2
1:58.256,42572,t,0,0,4
1:58.400,42624,t,0,0,4
1:58.453,42643,),0,0,2
1:58.553,42679,(,0,0,0
1:58.608,42699,p,0,0,0
1:58.683,42726,),0,0,0
1:58.722,42740,(,0,0,1
1:58.783,42762,N,0,0,0
1:58.897,42803,),0,0,1
1:58.914,42809,(,0,0,2
1:58.972,42830,t,0,0,4
1:59.111,42880,t,0,0,4
1:59.167,42900,),0,0,2
1:59.258,42933,(,0,0,0
1:59.314,42953,p,0,0,0
1:59.392,42981,),0,0,0
1:59.419,42991,(,0,0,1
1:59.475,43011,N,0,0,0
1:59.586,43051,),0,0,1
1:59.603,43057,(,0,0,2
1:59.661,43078,t,0,0,4
1:59.811,43132,t,0,0,4
1:59.864,43151,),0,0,2
1:59.953,43183,(,0,0,0
2:00.006,43202,p,0,0,0
2:00.086,43231,),0,0,0
2:00.117,43242,(,0,0,1
2:00.172,43262,N,0,0,0
2:00.283,43302,),0,0,1
2:00.300,43308,(,0,0,2
2:00.358,43329,t,0,0,4
2:00.508,43383,t,0,0,4
2:00.567,43404,),0,0,2
2:00.581,43409,(,0,0,0
2:00.622,43424,p,0,0,0
2:00.686,43447,),0,0,0
2:00.808,43491,(,0,0,1
2:00.861,43510,N,0,0,0
2:00.964,43547,),0,0,1
2:00.983,43554,(,0,0,2
2:01.044,43576,t,0,0,4
2:01.189,43628,t,0,0,4
2:01.247,43649,),0,0,2
2:01.342,43683,(,0,0,0
2:01.394,43702,p,0,0,0
2:01.469,43729,),0,0,0
2:01.500,43740,(,0,0,1
2:01.550,43758,N,0,0,0
2:01.656,43796,),0,0,1
2:01.669,43801,(,0,0,2
2:01.725,43821,t,0,0,4
2:01.869,43873,t,0,0,4
2:01.922,43892,),0,0,2
2:02.019,43927,(,0,0,0
2:02.078,43948,p,0,0,0
2:02.156,43976,),0,0,0
2:02.189,43988,(,0,0,1
2:02.244,44008,N,0,0,0
2:02.356,44048,),0,0,1
2:02.375,44055,(,0,0,2
2:02.433,44076,t,0,0,4
2:02.600,44136,t,0,0,4
2:02.658,44157,),0,0,2
2:02.764,44195,(,0,0,0
2:02.819,44215,p,0,0,0
2:02.914,44249,),0,0,0
2:02.947,44261,(,0,0,1
2:03.006,44282,N,0,0,0
2:03.125,44325,),0,0,1
2:03.147,44333,(,0,0,2
2:03.206,44354,t,0,0,4
2:03.361,44410,t,0,0,4
2:03.408,44427,),0,0,2
2:03.508,44463,(,0,0,0
2:03.558,44481,p,0,0,0
2:03.642,44511,),0,0,0
2:03.675,44523,(,0,0,1
2:03.736,44545,N,0,0,0
2:03.850,44586,),0,0,1
2:03.869,44593,(,0,0,2
2:03.933,44616,t,0,0,4
2:04.086,44671,t,0,0,4
2:04.136,44689,),0,0,2
2:04.231,44723,(,0,0,0
2:04.283,44742,p,0,0,0
2:04.356,44768,),0,0,0
2:04.386,44779,(,0,0,1
2:04.439,44798,N,0,0,0
2:04.550,44838,),0,0,1
2:04.567,44844,(,0,0,2
2:04.633,44868,t,0,0,4
2:04.786,44923,t,0,0,4
2:04.836,44941,),0,0,2
2:04.931,44975,(,0,0,0
2:04.989,44996,p,0,0,0
2:05.064,45023,),0,0,0
2:05.089,45032,(,0,0,1
2:05.144,45052,N,0,0,0
2:05.258,45093,),0,0,1
2:05.278,45100,(,0,0,2
2:05.333,45120,t,0,0,4
2:05.489,45176,t,0,0,4
2:05.539,45194,),0,0,2
2:05.567,45204,(,0,0,0
2:05.606,45218,p,0,0,0
2:05.661,45238,),0,0,0
2:05.747,45269,(,0,0,1
2:05.833,45300,N,0,0,0
2:05.939,45338,),0,0,1
2:05.958,45345,(,0,0,2
2:06.014,45365,t,0,0,4
2:06.169,45421,t,0,0,4
2:06.211,45436,),0,0,2
2:06.311,45472,(,0,0,0
2:06.361,45490,p,0,0,0
2:06.439,45518,),0,0,0
2:06.467,45528,(,0,0,1
2:06.519,45547,N,0,0,0
2:06.625,45585,),0,0,1
2:06.642,45591,(,0,0,2
2:06.703,45613,t,0,0,4
2:06.856,45668,t,0,0,4
2:06.903,45685,),0,0,2
2:06.922,45692,(,0,0,0
2:06.953,45703,p,0,0,0
2:07.031,45731,),0,0,0
2:07.117,45762,(,0,0,1
2:07.156,45776,N,0,0,0
2:07.250,45810,),0,0,1
2:07.333,45840,(,0,0,2
2:07.447,45881,t,0,0,0
2:07.561,45922,),0,0,2
2:07.672,45962,(,0,0,0
2:07.742,45987,p,0,0,0
2:07.814,46013,),0,0,0
2:07.842,46023,(,0,0,1
2:07.900,46044,N,0,0,0
2:08.011,46084,),0,0,1
2:08.033,46092,(,0,0,2
2:08.089,46112,t,0,0,1
2:08.228,46162,),0,0,2
2:08.361,46210,(,0,0,0
2:08.411,46228,p,0,0,0
2:08.492,46257,),0,0,0
2:08.525,46269,(,0,0,1
2:08.583,46290,N,0,0,0
2:08.697,46331,),0,0,1
2:08.717,46338,(,0,0,2
2:08.775,46359,t,0,0,4
2:08.933,46416,t,0,0,4
2:08.978,46432,),0,0,2
2:09.083,46470,(,0,0,0
2:09.142,46491,p,0,0,0
2:09.222,46520,),0,0,0
2:09.256,46532,(,0,0,1
2:09.319,46555,N,0,0,0
2:09.439,46598,),0,0,1
2:09.458,46605,(,0,0,2
2:09.522,46628,t,0,0,4
2:09.686,46687,t,0,0,4
2:09.725,46701,),0,0,2
2:09.828,46738,(,0,0,0
2:09.881,46757,p,0,0,0
2:09.969,46789,),0,0,0
2:09.994,46798,(,0,0,1
2:10.050,46818,N,0,0,0
2:10.161,46858,),0,0,1
2:10.181,46865,(,0,0,2
2:10.239,46886,t,0,0,4
2:10.400,46944,t,0,0,4
2:10.442,46959,),0,0,2
2:10.475,46971,(,0,0,0
2:10.506,46982,p,0,0,0
2:10.575,47007,),0,0,0
2:10.672,47042,(,0,0,1
2:10.761,47074,N,0,0,0
2:10.869,47113,),0,0,1
2:10.967,47148,(,0,0,2
2:11.081,47189,t,0,0,0
2:11.108,47199,),0,0,2
2:11.211,47236,(,0,0,0
2:11.272,47258,p,0,0,0
2:11.342,47283,),0,0,0
2:11.372,47294,(,0,0,1
2:11.428,47314,N,0,0,0
2:11.533,47352,),0,0,1
2:11.550,47358,(,0,0,2
2:11.600,47376,t,0,0,4
2:11.747,47429,t,0,0,4
2:11.783,47442,),0,0,2
2:11.881,47477,(,0,0,0
2:11.939,47498,p,0,0,0
2:12.019,47527,),0,0,0
2:12.047,47537,(,0,0,1
2:12.100,47556,N,0,0,0
2:12.206,47594,),0,0,1
2:12.225,47601,(,0,0,2
2:12.272,47618,t,0,0,4
2:12.414,47669,t,0,0,4
2:12.447,47681,),0,0,2
2:12.539,47714,(,0,0,0
2:12.594,47734,p,0,0,0
2:12.672,47762,),0,0,0
2:12.703,47773,(,0,0,1
2:12.764,47795,N,0,0,0
2:12.875,47835,),0,0,1
2:12.892,47841,(,0,0,2
2:12.947,47861,t,0,0,4
2:13.097,47915,t,0,0,4
2:13.119,47923,),0,0,2
2:13.228,47962,(,0,0,0
2:13.286,47983,p,0,0,0
2:13.367,48012,),0,0,0
2:13.394,48022,(,0,0,1
2:13.453,48043,N,0,0,0
2:13.564,48083,),0,0,1
2:13.583,48090,(,0,0,2
2:13.644,48112,t,0,0,4
2:13.792,48165,t,0,0,4
2:13.831,48179,),0,0,2
2:13.919,48211,(,0,0,0
2:13.972,48230,p,0,0,0
2:14.058,48261,),0,0,0
2:14.081,48269,(,0,0,1
2:14.136,48289,N,0,0,0
2:14.253,48331,),0,0,1
2:14.267,48336,(,0,0,2
2:14.331,48359,t,0,0,4
2:14.483,48414,t,0,0,4
2:14.531,48431,),0,0,2
2:14.631,48467,(,0,0,0
2:14.689,48488,p,0,0,0
2:14.736,48505,),0,0,0
2:14.789,48524,(,0,0,1
2:14.844,48544,N,0,0,0
2:14.958,48585,),0,0,1
2:14.975,48591,(,0,0,2
2:15.031,48611,t,0,0,4
2:15.183,48666,t,0,0,4
2:15.228,48682,),0,0,2
2:15.333,48720,(,0,0,0
2:15.403,48745,p,0,0,0
2:15.478,48772,),0,0,0
2:15.503,48781,(,0,0,1
2:15.564,48803,N,0,0,0
2:15.681,48845,),0,0,1
2:15.700,48852,(,0,0,2
2:15.756,48872,t,0,0,4
2:15.928,48934,t,0,0,4
2:15.967,48948,),0,0,2
2:16.072,48986,(,0,0,0
2:16.128,49006,p,0,0,0
2:16.219,49039,),0,0,0
2:16.250,49050,(,0,0,1
2:16.311,49072,N,0,0,0
2:16.425,49113,),0,0,1
2:16.442,49119,(,0,0,2
2:16.503,49141,t,0,0,4
2:16.656,49196,t,0,0,4
2:16.694,49210,),0,0,2
2:16.792,49245,(,0,0,0
2:16.847,49265,p,0,0,0
2:16.936,49297,),0,0,0
2:16.958,49305,(,0,0,1
2:17.017,49326,N,0,0,0
2:17.131,49367,),0,0,1
2:17.147,49373,(,0,0,2
2:17.200,49392,t,0,0,4
2:17.353,49447,t,0,0,4
2:17.386,49459,),0,0,2
2:17.478,49492,(,0,0,0
2:17.531,49511,p,0,0,0
2:17.603,49537,),0,0,0
2:17.628,49546,(,0,0,1
2:17.683,49566,N,0,0,0
2:17.792,49605,),0,0,1
2:17.808,49611,(,0,0,2
2:17.867,49632,t,0,0,4
2:18.008,49683,t,0,0,4
2:18.044,49696,),0,0,2
2:18.083,49710,(,0,0,0
2:18.108,49719,p,0,0,0
2:18.172,49742,),0,0,0
2:18.272,49778,(,0,0,1
2:18.353,49807,N,0,0,0
2:18.461,49846,),0,0,1
2:18.483,49854,(,0,0,2
2:18.533,49872,t,0,0,4
2:18.683,49926,t,0,0,4
2:18.725,49941,),0,0,2
2:18.756,49952,(,0,0,0
2:18.781,49961,p,0,0,0
2:18.844,49984,),0,0,0
2:18.967,50028,(,0,0,1
2:19.019,50047,N,0,0,0
2:19.133,50088,),0,0,1
2:19.150,50094,(,0,0,2
2:19.206,50114,t,0,0,4
2:19.367,50172,t,0,0,4
2:19.403,50185,),0,0,2
2:19.500,50220,(,0,0,0
2:19.553,50239,p,0,0,0
2:19.631,50267,),0,0,0
2:19.661,50278,(,0,0,1
2:19.717,50298,N,0,0,0
2:19.831,50339,),0,0,1
2:19.853,50347,(,0,0,2
2:19.906,50366,t,0,0,4
2:20.067,50424,t,0,0,4
2:20.106,50438,),0,0,2
2:20.217,50478,(,0,0,0
2:20.275,50499,p,0,0,0
2:20.344,50524,),0,0,0
2:20.381,50537,(,0,0,1
2:20.433,50556,N,0,0,0
2:20.539,50594,),0,0,1
2:20.556,50600,(,0,0,2
2:20.611,50620,t,0,0,4
2:20.769,50677,t,0,0,4
2:20.808,50691,),0,0,2
2:20.911,50728,(,0,0,0
2:20.969,50749,p,0,0,0
2:21.050,50778,),0,0,0
2:21.081,50789,(,0,0,1
2:21.136,50809,N,0,0,0
2:21.244,50848,),0,0,1
2:21.264,50855,(,0,0,2
2:21.319,50875,t,0,0,1
2:21.458,50925,),0,0,2
2:21.608,50979,(,0,0,0
2:21.664,50999,p,0,0,0
2:21.753,51031,),0,0,0
2:21.778,51040,(,0,0,1
2:21.836,51061,N,0,0,0
2:21.950,51102,),0,0,1
2:21.972,51110,(,0,0,2
2:22.025,51129,t,0,0,4
2:22.194,51190,t,0,0,4
2:22.233,51204,),0,0,2
2:22.344,51244,(,0,0,0
2:22.406,51266,p,0,0,0
2:22.492,51297,),0,0,0
2:22.517,51306,(,0,0,1
2:22.575,51327,N,0,0,0
2:22.697,51371,),0,0,1
2:22.806,51410,(,0,0,2
2:22.928,51454,t,0,0,0
2:22.967,51468,),0,0,2
2:23.064,51503,(,0,0,0
2:23.117,51522,p,0,0,0
2:23.194,51550,),0,0,0
2:23.219,51559,(,0,0,1
2:23.272,51578,N,0,0,0
2:23.386,51619,),0,0,1
2:23.403,51625,(,0,0,2
2:23.456,51644,t,0,0,4
2:23.611,51700,t,0,0,4
2:23.642,51711,),0,0,2
2:23.736,51745,(,0,0,0
2:23.792,51765,p,0,0,0
2:23.864,51791,),0,0,0
2:23.892,51801,(,0,0,1
2:23.942,51819,N,0,0,0
2:24.042,51855,),0,0,1
2:24.061,51862,(,0,0,2
2:24.117,51882,t,0,0,4
2:24.264,51935,t,0,0,4
2:24.297,51947,),0,0,2
2:24.397,51983,(,0,0,0
2:24.447,52001,p,0,0,0
2:24.517,52026,),0,0,0
2:24.550,52038,(,0,0,1
2:24.603,52057,N,0,0,0
2:24.706,52094,),0,0,1
2:24.725,52101,(,0,0,2
2:24.778,52120,t,0,0,4
2:24.933,52176,t,0,0,4
2:24.969,52189,),0,0,2
2:25.069,52225,(,0,0,0
2:25.125,52245,p,0,0,0
2:25.200,52272,),0,0,0
2:25.228,52282,(,0,0,1
2:25.278,52300,N,0,0,0
2:25.381,52337,),0,0,1
2:25.397,52343,(,0,0,2
2:25.453,52363,t,0,0,4
2:25.603,52417,t,0,0,4
2:25.639,52430,),0,0,2
2:25.742,52467,(,0,0,0
2:25.806,52490,p,0,0,0
2:25.886,52519,),0,0,0
2:25.914,52529,(,0,0,1
2:25.969,52549,N,0,0,0
2:26.078,52588,),0,0,1
2:26.097,52595,(,0,0,2
2:26.150,52614,t,0,0,4
2:26.306,52670,t,0,0,4
2:26.350,52686,),0,0,2
2:26.458,52725,(,0,0,0
2:26.514,52745,p,0,0,0
2:26.608,52779,),0,0,0
2:26.633,52788,(,0,0,1
2:26.694,52810,N,0,0,0
2:26.811,52852,),0,0,1
2:26.833,52860,(,0,0,2
2:26.886,52879,t,0,0,4
2:27.039,52934,t,0,0,4
2:27.072,52946,),0,0,2
2:27.172,52982,(,0,0,0
2:27.231,53003,p,0,0,0
2:27.319,53035,),0,0,0
2:27.347,53045,(,0,0,1
2:27.406,53066,N,0,0,0
2:27.522,53108,),0,0,1
2:27.542,53115,(,0,0,2
2:27.600,53136,t,0,0,4
2:27.747,53189,t,0,0,4
2:27.808,53211,),0,0,2
2:27.883,53238,(,0,0,0
2:27.947,53261,p,0,0,0
2:28.019,53287,),0,0,0
2:28.050,53298,(,0,0,1
2:28.106,53318,N,0,0,0
2:28.214,53357,),0,0,1
2:28.233,53364,(,0,0,2
2:28.292,53385,t,0,0,4
2:28.453,53443,t,0,0,4
2:28.492,53457,),0,0,2
2:28.594,53494,(,0,0,0
2:28.644,53512,p,0,0,0
2:28.733,53544,),0,0,0
2:28.767,53556,(,0,0,1
2:28.822,53576,N,0,0,0
2:28.939,53618,),0,0,1
2:28.958,53625,(,0,0,2
2:29.019,53647,t,0,0,4
2:29.178,53704,t,0,0,4
2:29.244,53728,),0,0,2
2:29.317,53754,(,0,0,0
2:29.372,53774,p,0,0,0
2:29.453,53803,),0,0,0
2:29.475,53811,(,0,0,1
2:29.531,53831,N,0,0,0
2:29.633,53868,),0,0,1
2:29.736,53905,(,0,0,2
2:29.850,53946,t,0,0,0
2:29.919,53971,),0,0,2
2:29.931,53975,(,0,0,0
2:29.967,53988,p,0,0,0
2:30.017,54006,),0,0,0
2:30.117,54042,(,0,0,1
2:30.197,54071,N,0,0,0
2:30.303,54109,),0,0,1
2:30.317,54114,(,0,0,2
2:30.361,54130,t,0,0,4
2:30.503,54181,t,0,0,4
2:30.533,54192,),0,0,2
2:30.631,54227,(,0,0,0
2:30.689,54248,p,0,0,0
2:30.764,54275,),0,0,0
2:30.794,54286,(,0,0,1
2:30.847,54305,N,0,0,0
2:30.956,54344,),0,0,1
2:31.050,54378,(,0,0,2
2:31.172,54422,t,0,0,0
2:31.233,54444,),0,0,2
2:31.294,54466,(,0,0,0
2:31.361,54490,p,0,0,0
2:31.433,54516,),0,0,0
2:31.467,54528,(,0,0,1
2:31.522,54548,N,0,0,0
2:31.633,54588,),0,0,1
2:31.650,54594,(,0,0,2
2:31.700,54612,t,0,0,1
2:31.831,54659,),0,0,2
2:31.972,54710,(,0,0,0
2:32.025,54729,p,0,0,0
2:32.106,54758,),0,0,0
2:32.139,54770,(,0,0,1
2:32.197,54791,N,0,0,0
2:32.314,54833,),0,0,1
2:32.333,54840,(,0,0,2
2:32.394,54862,t,0,0,1
2:32.533,54912,),0,0,2
2:32.678,54964,(,0,0,0
2:32.736,54985,p,0,0,0
2:32.819,55015,),0,0,0
2:32.850,55026,(,0,0,1
2:32.908,55047,N,0,0,0
2:33.031,55091,),0,0,1
2:33.047,55097,(,0,0,2
2:33.114,55121,t,0,0,4
2:33.272,55178,t,0,0,4
2:33.308,55191,),0,0,2
2:33.408,55227,(,0,0,0
2:33.472,55250,p,0,0,0
2:33.544,55276,),0,0,0
2:33.569,55285,(,0,0,1
2:33.625,55305,N,0,0,0
2:33.739,55346,),0,0,1
2:33.758,55353,(,0,0,2
2:33.811,55372,t,0,0,4
2:33.972,55430,t,0,0,4
2:34.008,55443,),0,0,2
2:34.114,55481,(,0,0,0
2:34.172,55502,p,0,0,0
2:34.244,55528,),0,0,0
2:34.272,55538,(,0,0,1
2:34.328,55558,N,0,0,0
2:34.442,55599,),0,0,1
2:34.458,55605,(,0,0,2
2:34.511,55624,t,0,0,4
2:34.664,55679,t,0,0,4
2:34.689,55688,),0,0,2
2:34.792,55725,(,0,0,0
2:34.844,55744,p,0,0,0
2:34.922,55772,),0,0,0
2:34.953,55783,(,0,0,1
2:35.008,55803,N,0,0,0
2:35.119,55843,),0,0,1
2:35.136,55849,(,0,0,2
2:35.194,55870,t,0,0,4
2:35.347,55925,t,0,0,4
2:35.383,55938,),0,0,2
2:35.486,55975,(,0,0,0
2:35.544,55996,p,0,0,0
2:35.622,56024,),0,0,0
2:35.653,56035,(,0,0,1
2:35.708,56055,N,0,0,0
2:35.819,56095,),0,0,1
2:35.842,56103,(,0,0,2
2:35.894,56122,t,0,0,4
2:36.042,56175,t,0,0,4
2:36.072,56186,),0,0,2
2:36.167,56220,(,0,0,0
2:36.228,56242,p,0,0,0
2:36.297,56267,),0,0,0
2:36.319,56275,(,0,0,1
2:36.375,56295,N,0,0,0
2:36.486,56335,),0,0,1
2:36.506,56342,(,0,0,2
2:36.561,56362,t,0,0,4
2:36.706,56414,t,0,0,4
2:36.744,56428,),0,0,2
2:36.775,56439,(,0,0,0
2:36.800,56448,p,0,0,0
2:36.864,56471,),0,0,0
2:36.942,56499,(,0,0,1
2:37.028,56530,N,0,0,0
2:37.139,56570,),0,0,1
2:37.158,56577,(,0,0,2
2:37.208,56595,t,0,0,4
2:37.358,56649,t,0,0,4
2:37.397,56663,),0,0,2
2:37.425,56673,(,0,0,0
2:37.458,56685,p,0,0,0
2:37.519,56707,),0,0,0
2:37.639,56750,(,0,0,1
2:37.697,56771,N,0,0,0
2:37.808,56811,),0,0,1
2:37.828,56818,(,0,0,2
2:37.881,56837,t,0,0,4
2:38.044,56896,t,0,0,4
2:38.083,56910,),0,0,2
2:38.181,56945,(,0,0,0
2:38.239,56966,p,0,0,0
2:38.306,56990,),0,0,0
2:38.333,57000,(,0,0,1
2:38.386,57019,N,0,0,0
2:38.500,57060,),0,0,1
2:38.519,57067,(,0,0,2
2:38.575,57087,t,0,0,4
2:38.742,57147,t,0,0,4
2:38.789,57164,),0,0,2
2:38.894,57202,(,0,0,0
2:38.950,57222,p,0,0,0
2:39.031,57251,),0,0,0
2:39.058,57261,(,0,0,1
2:39.117,57282,N,0,0,0
2:39.231,57323,),0,0,1
2:39.253,57331,(,0,0,2
2:39.311,57352,t,0,0,4
2:39.472,57410,t,0,0,4
2:39.519,57427,),0,0,2
2:39.628,57466,(,0,0,0
2:39.689,57488,p,0,0,0
2:39.767,57516,),0,0,0
2:39.800,57528,(,0,0,1
2:39.856,57548,N,0,0,0
2:39.964,57587,),0,0,1
2:39.981,57593,(,0,0,2
2:40.036,57613,t,0,0,4
2:40.192,57669,t,0,0,4
2:40.236,57685,),0,0,2
2:40.336,57721,(,0,0,0
2:40.394,57742,p,0,0,0
2:40.475,57771,),0,0,0
2:40.503,57781,(,0,0,1
2:40.558,57801,N,0,0,0
2:40.672,57842,),0,0,1
2:40.692,57849,(,0,0,2
2:40.747,57869,t,0,0,4
2:40.892,57921,t,0,0,4
2:40.939,57938,),0,0,2
2:41.031,57971,(,0,0,0
2:41.089,57992,p,0,0,0
2:41.156,58016,),0,0,0
2:41.186,58027,(,0,0,1
2:41.242,58047,N,0,0,0
2:41.353,58087,),0,0,1
2:41.367,58092,(,0,0,2
2:41.419,58111,t,0,0,4
2:41.572,58166,t,0,0,4
2:41.619,58183,),0,0,2
2:41.719,58219,(,0,0,0
2:41.772,58238,p,0,0,0
2:41.850,58266,),0,0,0
2:41.881,58277,(,0,0,1
2:41.936,58297,N,0,0,0
2:42.047,58337,),0,0,1
2:42.067,58344,(,0,0,2
2:42.125,58365,t,0,0,4
2:42.278,58420,t,0,0,4
2:42.328,58438,),0,0,2
2:42.419,58471,(,0,0,0
2:42.472,58490,p,0,0,0
2:42.547,58517,),0,0,0
2:42.575,58527,(,0,0,1
2:42.625,58545,N,0,0,0
2:42.733,58584,),0,0,1
2:42.750,58590,(,0,0,2
2:42.806,58610,t,0,0,4
2:42.956,58664,t,0,0,4
2:43.008,58683,),0,0,2
2:43.033,58692,(,0,0,0
2:43.072,58706,p,0,0,0
2:43.139,58730,),0,0,0
2:43.256,58772,(,0,0,1
2:43.311,58792,N,0,0,0
2:43.411,58828,),0,0,1
2:43.425,58833,(,0,0,2
2:43.478,58852,t,0,0,4
2:43.631,58907,t,0,0,4
2:43.681,58925,),0,0,2
2:43.694,58930,(,0,0,0
2:43.744,58948,p,0,0,0
2:43.808,58971,),0,0,0
2:43.933,59016,(,0,0,1
2:43.989,59036,N,0,0,0
2:44.094,59074,),0,0,1
2:44.114,59081,(,0,0,2
2:44.175,59103,t,0,0,4
2:44.328,59158,t,0,0,4
2:44.378,59176,),0,0,2
2:44.483,59214,(,0,0,0
2:44.539,59234,p,0,0,0
2:44.619,59263,),0,0,0
2:44.650,59274,(,0,0,1
2:44.706,59294,N,0,0,0
2:44.811,59332,),0,0,1
2:44.828,59338,(,0,0,2
2:44.889,59360,t,0,0,4
2:45.044,59416,t,0,0,4
2:45.103,59437,),0,0,2
2:45.211,59476,(,0,0,0
2:45.267,59496,p,0,0,0
2:45.361,59530,),0,0,0
2:45.386,59539,(,0,0,1
2:45.442,59559,N,0,0,0
2:45.556,59600,),0,0,1
2:45.578,59608,(,0,0,2
2:45.636,59629,t,0,0,4
2:45.794,59686,t,0,0,4
2:45.844,59704,),0,0,2
2:45.953,59743,(,0,0,0
2:46.011,59764,p,0,0,0
2:46.092,59793,),0,0,0
2:46.131,59807,(,0,0,1
2:46.186,59827,N,0,0,0
2:46.300,59868,),0,0,1
2:46.317,59874,(,0,0,2
2:46.369,59893,t,0,0,4
2:46.522,59948,t,0,0,4
2:46.572,59966,),0,0,2
2:46.672,60002,(,0,0,0
2:46.725,60021,p,0,0,0
2:46.808,60051,),0,0,0
2:46.836,60061,(,0,0,1
2:46.892,60081,N,0,0,0
2:47.003,60121,),0,0,1
2:47.019,60127,(,0,0,2
2:47.078,60148,t,0,0,4
2:47.225,60201,t,0,0,4
2:47.275,60219,),0,0,2
2:47.292,60225,(,0,0,0
2:47.336,60241,p,0,0,0
2:47.394,60262,),0,0,0
2:47.519,60307,(,0,0,1
2:47.575,60327,N,0,0,0
2:47.681,60365,),0,0,1
2:47.700,60372,(,0,0,2
2:47.756,60392,t,0,0,4
2:47.903,60445,t,0,0,4
2:47.956,60464,),0,0,2
2:48.053,60499,(,0,0,0
2:48.111,60520,p,0,0,0
2:48.189,60548,),0,0,0
2:48.219,60559,(,0,0,1
2:48.275,60579,N,0,0,0
2:48.383,60618,),0,0,1
2:48.400,60624,(,0,0,2
2:48.458,60645,t,0,0,4
2:48.617,60702,t,0,0,4
2:48.669,60721,),0,0,2
2:48.700,60732,(,0,0,0
2:48.744,60748,p,0,0,0
2:48.800,60768,),0,0,0
2:48.925,60813,(,0,0,1
2:48.978,60832,N,0,0,0
2:49.081,60869,),0,0,1
2:49.097,60875,(,0,0,2
2:49.153,60895,t,0,0,4
2:49.306,60950,t,0,0,4
2:49.356,60968,),0,0,2
2:49.392,60981,(,0,0,0
2:49.428,60994,p,0,0,0
2:49.486,61015,),0,0,0
2:49.611,61060,(,0,0,1
2:49.667,61080,N,0,0,0
2:49.769,61117,),0,0,1
2:49.786,61123,(,0,0,2
2:49.839,61142,t,0,0,4
2:49.986,61195,t,0,0,4
2:50.036,61213,),0,0,2
2:50.142,61251,(,0,0,0
2:50.197,61271,p,0,0,0
2:50.283,61302,),0,0,0
2:50.311,61312,(,0,0,1
2:50.364,61331,N,0,0,0
2:50.469,61369,),0,0,1
2:50.492,61377,(,0,0,2
2:50.550,61398,t,0,0,4
2:50.708,61455,t,0,0,4
2:50.758,61473,),0,0,2
2:50.867,61512,(,0,0,0
2:50.925,61533,p,0,0,0
2:51.006,61562,),0,0,0
2:51.042,61575,(,0,0,1
2:51.097,61595,N,0,0,0
2:51.206,61634,),0,0,1
2:51.222,61640,(,0,0,2
2:51.278,61660,t,0,0,4
2:51.433,61716,t,0,0,4
2:51.481,61733,),0,0,2
2:51.589,61772,(,0,0,0
2:51.647,61793,p,0,0,0
2:51.736,61825,),0,0,0
2:51.767,61836,(,0,0,1
2:51.825,61857,N,0,0,0
2:51.942,61899,),0,0,1
2:51.961,61906,(,0,0,2
2:52.019,61927,t,0,0,4
2:52.181,61985,t,0,0,4
2:52.225,62001,),0,0,2
2:52.331,62039,(,0,0,0
2:52.392,62061,p,0,0,0
2:52.478,62092,),0,0,0
2:52.508,62103,(,0,0,1
2:52.567,62124,N,0,0,0
2:52.681,62165,),0,0,1
2:52.703,62173,(,0,0,2
2:52.764,62195,t,0,0,4
2:52.914,62249,t,0,0,4
2:52.953,62263,),0,0,2
2:53.050,62298,(,0,0,0
2:53.108,62319,p,0,0,0
2:53.181,62345,),0,0,0
2:53.211,62356,(,0,0,1
2:53.267,62376,N,0,0,0
2:53.378,62416,),0,0,1
2:53.392,62421,(,0,0,2
2:53.450,62442,t,0,0,4
2:53.600,62496,t,0,0,4
2:53.642,62511,),0,0,2
2:53.675,62523,(,0,0,0
2:53.708,62535,p,0,0,0
2:53.767,62556,),0,0,0
2:53.886,62599,(,0,0,1
2:53.939,62618,N,0,0,0
2:54.042,62655,),0,0,1
2:54.061,62662,(,0,0,2
2:54.114,62681,t,0,0,4
2:54.267,62736,t,0,0,4
2:54.311,62752,),0,0,2
2:54.403,62785,(,0,0,0
2:54.458,62805,p,0,0,0
2:54.533,62832,),0,0,0
2:54.567,62844,(,0,0,1
2:54.622,62864,N,0,0,0
2:54.733,62904,),0,0,1
2:54.750,62910,(,0,0,2
2:54.814,62933,t,0,0,4
2:54.967,62988,t,0,0,4
2:55.011,63004,),0,0,2
2:55.114,63041,(,0,0,0
2:55.167,63060,p,0,0,0
2:55.247,63089,),0,0,0
2:55.275,63099,(,0,0,1
2:55.331,63119,N,0,0,0
2:55.433,63156,),0,0,1
2:55.450,63162,(,0,0,2
2:55.511,63184,t,0,0,4
2:55.656,63236,t,0,0,4
2:55.697,63251,),0,0,2
2:55.800,63288,(,0,0,0
2:55.856,63308,p,0,0,0
2:55.942,63339,),0,0,0
2:55.969,63349,(,0,0,1
2:56.025,63369,N,0,0,0
2:56.133,63408,),0,0,1
2:56.150,63414,(,0,0,2
2:56.208,63435,t,0,0,4
2:56.356,63488,t,0,0,4
2:56.381,63497,),0,0,2
2:56.483,63534,(,0,0,0
2:56.539,63554,p,0,0,0
2:56.622,63584,),0,0,0
2:56.656,63596,(,0,0,1
2:56.717,63618,N,0,0,0
2:56.831,63659,),0,0,1
2:56.847,63665,(,0,0,2
2:56.906,63686,t,0,0,4
2:57.056,63740,t,0,0,4
2:57.092,63753,),0,0,2
2:57.197,63791,(,0,0,0
2:57.253,63811,p,0,0,0
2:57.347,63845,),0,0,0
2:57.375,63855,(,0,0,1
2:57.436,63877,N,0,0,0
2:57.553,63919,),0,0,1
2:57.572,63926,(,0,0,2
2:57.633,63948,t,0,0,4
2:57.778,64000,t,0,0,4
2:57.806,64010,),0,0,2
2:57.908,64047,(,0,0,0
2:57.967,64068,p,0,0,0
2:58.047,64097,),0,0,0
2:58.078,64108,(,0,0,1
2:58.136,64129,N,0,0,0
2:58.258,64173,),0,0,1
2:58.281,64181,(,0,0,2
2:58.328,64198,t,0,0,4
2:58.489,64256,t,0,0,4
2:58.522,64268,),0,0,2
2:58.625,64305,(,0,0,0
2:58.681,64325,p,0,0,0
2:58.769,64357,),0,0,0
2:58.794,64366,(,0,0,1
2:58.853,64387,N,0,0,0
2:58.969,64429,),0,0,1
2:58.989,64436,(,0,0,2
2:59.047,64457,t,0,0,1
2:59.189,64508,),0,0,2
2:59.331,64559,(,0,0,0
2:59.386,64579,p,0,0,0
2:59.456,64604,),0,0,0
2:59.486,64615,(,0,0,1
2:59.539,64634,N,0,0,0
2:59.644,64672,),0,0,1
2:59.664,64679,(,0,0,2
2:59.719,64699,t,0,0,4
2:59.867,64752,t,0,0,4
2:59.897,64763,),0,0,2
2:59.994,64798,(,0,0,0
3:00.047,64817,p,0,0,0
3:00.122,64844,),0,0,0
3:00.150,64854,(,0,0,1
3:00.203,64873,N,0,0,0
3:00.308,64911,),0,0,1
3:00.322,64916,(,0,0,2
3:00.375,64935,t,0,0,1
3:00.506,64982,),0,0,2
3:00.636,65029,(,0,0,0
3:00.694,65050,p,0,0,0
3:00.769,65077,),0,0,0
3:00.797,65087,(,0,0,1
3:00.850,65106,N,0,0,0
3:00.958,65145,),0,0,1
3:00.978,65152,(,0,0,2
3:01.033,65172,t,0,0,4
3:01.189,65228,t,0,0,4
3:01.222,65240,),0,0,2
3:01.317,65274,(,0,0,0
3:01.369,65293,p,0,0,0
3:01.458,65325,),0,0,0
3:01.486,65335,(,0,0,1
3:01.542,65355,N,0,0,0
3:01.656,65396,),0,0,1
3:01.678,65404,(,0,0,2
3:01.733,65424,t,0,0,4
3:01.886,65479,t,0,0,4
3:01.925,65493,),0,0,2
3:02.019,65527,(,0,0,0
3:02.083,65550,p,0,0,0
3:02.164,65579,),0,0,0
3:02.183,65586,(,0,0,1
3:02.242,65607,N,0,0,0
3:02.358,65649,),0,0,1
3:02.381,65657,(,0,0,2
3:02.436,65677,t,0,0,4
3:02.594,65734,t,0,0,4
3:02.628,65746,),0,0,2
3:02.731,65783,(,0,0,0
3:02.786,65803,p,0,0,0
3:02.861,65830,),0,0,0
3:02.889,65840,(,0,0,1
3:02.944,65860,N,0,0,0
3:03.053,65899,),0,0,1
3:03.072,65906,(,0,0,2
3:03.125,65925,t,0,0,4
3:03.286,65983,t,0,0,4
3:03.322,65996,),0,0,2
3:03.422,66032,(,0,0,0
3:03.483,66054,p,0,0,0
3:03.553,66079,),0,0,0
3:03.578,66088,(,0,0,1
3:03.642,66111,N,0,0,0
3:03.756,66152,),0,0,1
3:03.775,66159,(,0,0,2
3:03.833,66180,t,0,0,4
3:04.000,66240,t,0,0,4
3:04.044,66256,),0,0,2
3:04.144,66292,(,0,0,0
3:04.200,66312,p,0,0,0
3:04.278,66340,),0,0,0
3:04.303,66349,(,0,0,1
3:04.356,66368,N,0,0,0
3:04.464,66407,),0,0,1
3:04.483,66414,(,0,0,2
3:04.544,66436,t,0,0,4
3:04.703,66493,t,0,0,4
3:04.747,66509,),0,0,2
3:04.853,66547,(,0,0,0
3:04.906,66566,p,0,0,0
3:04.983,66594,),0,0,0
3:05.011,66604,(,0,0,1
3:05.069,66625,N,0,0,0
3:05.175,66663,),0,0,1
3:05.192,66669,(,0,0,2
3:05.253,66691,t,0,0,4
3:05.408,66747,t,0,0,4
3:05.456,66764,),0,0,2
3:05.550,66798,(,0,0,0
3:05.603,66817,p,0,0,0
3:05.689,66848,),0,0,0
3:05.711,66856,(,0,0,1
3:05.767,66876,N,0,0,0
3:05.872,66914,),0,0,1
3:05.894,66922,(,0,0,2
3:05.944,66940,t,0,0,4
3:06.086,66991,t,0,0,4
3:06.131,67007,),0,0,2
3:06.167,67020,(,0,0,0
3:06.197,67031,p,0,0,0
3:06.256,67052,),0,0,0
3:06.381,67097,(,0,0,1
3:06.433,67116,N,0,0,0
3:06.544,67156,),0,0,1
3:06.561,67162,(,0,0,2
3:06.608,67179,t,0,0,4
3:06.753,67231,t,0,0,4
3:06.794,67246,),0,0,2
3:06.817,67254,(,0,0,0
3:06.858,67269,p,0,0,0
3:06.919,67291,),0,0,0
3:07.039,67334,(,0,0,1
3:07.094,67354,N,0,0,0
3:07.203,67393,),0,0,1
3:07.217,67398,(,0,0,2
3:07.275,67419,t,0,0,4
3:07.428,67474,t,0,0,4
3:07.472,67490,),0,0,2
3:07.572,67526,(,0,0,0
3:07.628,67546,p,0,0,0
3:07.708,67575,),0,0,0
3:07.742,67587,(,0,0,1
3:07.797,67607,N,0,0,0
3:07.911,67648,),0,0,1
3:07.928,67654,(,0,0,2
3:07.986,67675,t,0,0,4
3:08.153,67735,t,0,0,4
3:08.200,67752,),0,0,2
3:08.306,67790,(,0,0,0
3:08.364,67811,p,0,0,0
3:08.439,67838,),0,0,0
3:08.469,67849,(,0,0,1
3:08.525,67869,N,0,0,0
3:08.636,67909,),0,0,1
3:08.656,67916,(,0,0,2
3:08.714,67937,t,0,0,4
3:08.881,67997,t,0,0,4
3:08.928,68014,),0,0,2
3:09.033,68052,(,0,0,0
3:09.089,68072,p,0,0,0
3:09.175,68103,),0,0,0
3:09.197,68111,(,0,0,1
3:09.253,68131,N,0,0,0
3:09.364,68171,),0,0,1
3:09.472,68210,(,0,0,2
3:09.583,68250,t,0,0,0
3:09.633,68268,),0,0,2
3:09.739,68306,(,0,0,0
3:09.800,68328,p,0,0,0
3:09.881,68357,),0,0,0
3:09.906,68366,(,0,0,1
3:09.961,68386,N,0,0,0
3:10.072,68426,),0,0,1
3:10.092,68433,(,0,0,2
3:10.144,68452,t,0,0,4
3:10.300,68508,t,0,0,4
3:10.342,68523,),0,0,2
3:10.450,68562,(,0,0,0
3:10.508,68583,p,0,0,0
3:10.592,68613,),0,0,0
3:10.622,68624,(,0,0,1
3:10.678,68644,N,0,0,0
3:10.789,68684,),0,0,1
3:10.806,68690,(,0,0,2
3:10.858,68709,t,0,0,4
3:11.008,68763,t,0,0,4
3:11.042,68775,),0,0,2
3:11.144,68812,(,0,0,0
3:11.200,68832,p,0,0,0
3:11.281,68861,),0,0,0
3:11.308,68871,(,0,0,1
3:11.372,68894,N,0,0,0
3:11.483,68934,),0,0,1
3:11.503,68941,(,0,0,2
3:11.558,68961,t,0,0,4
3:11.703,69013,t,0,0,4
3:11.747,69029,),0,0,2
3:11.844,69064,(,0,0,0
3:11.897,69083,p,0,0,0
3:11.981,69113,),0,0,0
3:12.011,69124,(,0,0,1
3:12.064,69143,N,0,0,0
3:12.178,69184,),0,0,1
3:12.194,69190,(,0,0,2
3:12.253,69211,t,0,0,4
3:12.400,69264,t,0,0,4
3:12.439,69278,),0,0,2
3:12.528,69310,(,0,0,0
3:12.583,69330,p,0,0,0
3:12.644,69352,),0,0,0
3:12.678,69364,(,0,0,1
3:12.733,69384,N,0,0,0
3:12.844,69424,),0,0,1
3:12.858,69429,(,0,0,2
3:12.917,69450,t,0,0,4
3:13.064,69503,t,0,0,4
3:13.108,69519,),0,0,2
3:13.144,69532,(,0,0,0
3:13.175,69543,p,0,0,0
3:13.233,69564,),0,0,0
3:13.356,69608,(,0,0,1
3:13.408,69627,N,0,0,0
3:13.517,69666,),0,0,1
3:13.536,69673,(,0,0,2
3:13.583,69690,t,0,0,4
3:13.733,69744,t,0,0,4
3:13.778,69760,),0,0,2
3:13.883,69798,(,0,0,0
3:13.947,69821,p,0,0,0
3:14.022,69848,),0,0,0
3:14.044,69856,(,0,0,1
3:14.108,69879,N,0,0,0
3:14.222,69920,),0,0,1
3:14.242,69927,(,0,0,2
3:14.303,69949,t,0,0,4
3:14.461,70006,t,0,0,4
3:14.503,70021,),0,0,2
3:14.614,70061,(,0,0,0
3:14.669,70081,p,0,0,0
3:14.758,70113,),0,0,0
3:14.792,70125,(,0,0,1
3:14.850,70146,N,0,0,0
3:14.964,70187,),0,0,1
3:14.983,70194,(,0,0,2
3:15.039,70214,t,0,0,4
3:15.186,70267,t,0,0,4
3:15.233,70284,),0,0,2
3:15.339,70322,(,0,0,0
3:15.392,70341,p,0,0,0
3:15.483,70374,),0,0,0
3:15.511,70384,(,0,0,1
3:15.575,70407,N,0,0,0
3:15.689,70448,),0,0,1
3:15.706,70454,(,0,0,2
3:15.767,70476,t,0,0,4
3:15.914,70529,t,0,0,4
3:15.958,70545,),0,0,2
3:16.058,70581,(,0,0,0
3:16.108,70599,p,0,0,0
3:16.192,70629,),0,0,0
3:16.222,70640,(,0,0,1
3:16.278,70660,N,0,0,0
3:16.394,70702,),0,0,1
3:16.414,70709,(,0,0,2
3:16.472,70730,t,0,0,4
3:16.622,70784,t,0,0,4
3:16.667,70800,),0,0,2
3:16.764,70835,(,0,0,0
3:16.817,70854,p,0,0,0
3:16.906,70886,),0,0,0
3:16.928,70894,(,0,0,1
3:16.986,70915,N,0,0,0
3:17.100,70956,),0,0,1
3:17.122,70964,(,0,0,2
3:17.181,70985,t,0,0,4
3:17.322,71036,t,0,0,4
3:17.356,71048,),0,0,2
3:17.403,71065,(,0,0,0
3:17.431,71075,p,0,0,0
3:17.486,71095,),0,0,0
3:17.608,71139,(,0,0,1
3:17.661,71158,N,0,0,0
3:17.772,71198,),0,0,1
3:17.789,71204,(,0,0,2
3:17.844,71224,t,0,0,4
3:18.003,71281,t,0,0,4
3:18.036,71293,),0,0,2
3:18.133,71328,(,0,0,0
3:18.183,71346,p,0,0,0
3:18.261,71374,),0,0,0
3:18.292,71385,(,0,0,1
3:18.344,71404,N,0,0,0
3:18.456,71444,),0,0,1
3:18.472,71450,(,0,0,2
3:18.536,71473,t,0,0,4
3:18.681,71525,t,0,0,4
3:18.728,71542,),0,0,2
3:18.831,71579,(,0,0,0
3:18.886,71599,p,0,0,0
3:18.961,71626,),0,0,0
3:18.989,71636,(,0,0,1
3:19.039,71654,N,0,0,0
3:19.144,71692,),0,0,1
3:19.158,71697,(,0,0,2
3:19.214,71717,t,0,0,4
3:19.364,71771,t,0,0,4
3:19.403,71785,),0,0,2
3:19.453,71803,(,0,0,0
3:19.486,71815,p,0,0,0
3:19.542,71835,),0,0,0
3:19.664,71879,(,0,0,1
3:19.725,71901,N,0,0,0
3:19.828,71938,),0,0,1
3:19.847,71945,(,0,0,2
3:19.908,71967,t,0,0,4
3:20.056,72020,t,0,0,4
3:20.097,72035,),0,0,2
3:20.136,72049,(,0,0,0
3:20.169,72061,p,0,0,0
3:20.219,72079,),0,0,0
3:20.353,72127,(,0,0,1
3:20.411,72148,N,0,0,0
3:20.528,72190,),0,0,1
3:20.544,72196,(,0,0,2
3:20.603,72217,t,0,0,4
3:20.761,72274,t,0,0,4
3:20.811,72292,),0,0,2
3:20.922,72332,(,0,0,0
3:20.994,72358,p,0,0,0
3:21.067,72384,),0,0,0
3:21.094,72394,(,0,0,1
3:21.153,72415,N,0,0,0
3:21.278,72460,),0,0,1
3:21.306,72470,(,0,0,2
3:21.361,72490,t,0,0,4
3:21.522,72548,t,0,0,4
3:21.567,72564,),0,0,2
3:21.614,72581,(,0,0,0
3:21.647,72593,p,0,0,0
3:21.697,72611,),0,0,0
3:21.825,72657,(,0,0,1
3:21.886,72679,N,0,0,0
3:22.003,72721,),0,0,1
3:22.017,72726,(,0,0,2
3:22.081,72749,t,0,0,4
3:22.242,72807,t,0,0,4
3:22.281,72821,),0,0,2
3:22.386,72859,(,0,0,0
3:22.436,72877,p,0,0,0
3:22.522,72908,),0,0,0
3:22.544,72916,(,0,0,1
3:22.597,72935,N,0,0,0
3:22.703,72973,),0,0,1
3:22.722,72980,(,0,0,2
3:22.775,72999,t,0,0,4
3:22.933,73056,t,0,0,4
3:22.975,73071,),0,0,2
3:23.078,73108,(,0,0,0
3:23.136,73129,p,0,0,0
3:23.206,73154,),0,0,0
3:23.236,73165,(,0,0,1
3:23.286,73183,N,0,0,0
3:23.394,73222,),0,0,1
3:23.411,73228,(,0,0,2
3:23.464,73247,t,0,0,4
3:23.619,73303,t,0,0,4
3:23.667,73320,),0,0,2
3:23.703,73333,(,0,0,0
3:23.733,73344,p,0,0,0
3:23.794,73366,),0,0,0
3:23.922,73412,(,0,0,1
3:23.972,73430,N,0,0,0
3:24.072,73466,),0,0,1
3:24.089,73472,(,0,0,2
3:24.142,73491,t,0,0,4
3:24.289,73544,t,0,0,4
3:24.333,73560,),0,0,2
3:24.433,73596,(,0,0,0
3:24.489,73616,p,0,0,0
3:24.575,73647,),0,0,0
3:24.597,73655,(,0,0,1
3:24.653,73675,N,0,0,0
3:24.764,73715,),0,0,1
3:24.778,73720,(,0,0,2
3:24.833,73740,t,0,0,4
3:24.981,73793,t,0,0,4
3:25.028,73810,),0,0,2
3:25.131,73847,(,0,0,0
3:25.194,73870,p,0,0,0
3:25.269,73897,),0,0,0
3:25.297,73907,(,0,0,1
3:25.356,73928,N,0,0,0
3:25.472,73970,),0,0,1
3:25.489,73976,(,0,0,2
3:25.544,73996,t,0,0,4
3:25.692,74049,t,0,0,4
3:25.733,74064,),0,0,2
3:25.828,74098,(,0,0,0
3:25.881,74117,p,0,0,0
3:25.964,74147,),0,0,0
3:25.994,74158,(,0,0,1
3:26.050,74178,N,0,0,0
3:26.164,74219,),0,0,1
3:26.183,74226,(,0,0,2
3:26.242,74247,t,0,0,4
3:26.394,74302,t,0,0,4
3:26.439,74318,),0,0,2
3:26.536,74353,(,0,0,0
3:26.592,74373,p,0,0,0
3:26.667,74400,),0,0,0
3:26.694,74410,(,0,0,1
3:26.750,74430,N,0,0,0
3:26.861,74470,),0,0,1
3:26.881,74477,(,0,0,2
3:26.939,74498,t,0,0,4
3:27.100,74556,t,0,0,4
3:27.147,74573,),0,0,2
3:27.253,74611,(,0,0,0
3:27.308,74631,p,0,0,0
3:27.397,74663,),0,0,0
3:27.428,74674,(,0,0,1
3:27.486,74695,N,0,0,0
3:27.608,74739,),0,0,1
3:27.625,74745,(,0,0,2
3:27.689,74768,t,0,0,4
3:27.853,74827,t,0,0,4
3:27.906,74846,),0,0,2
3:28.017,74886,(,0,0,0
3:28.078,74908,p,0,0,0
3:28.156,74936,),0,0,0
3:28.189,74948,(,0,0,1
3:28.244,74968,N,0,0,0
3:28.350,75006,),0,0,1
3:28.372,75014,(,0,0,2
3:28.433,75036,t,0,0,4
3:28.581,75089,t,0,0,4
3:28.628,75106,),0,0,2
3:28.733,75144,(,0,0,0
3:28.792,75165,p,0,0,0
3:28.872,75194,),0,0,0
3:28.903,75205,(,0,0,1
3:28.956,75224,N,0,0,0
3:29.064,75263,),0,0,1
3:29.081,75269,(,0,0,2
3:29.133,75288,t,0,0,4
3:29.272,75338,t,0,0,4
3:29.319,75355,),0,0,2
3:29.411,75388,(,0,0,0
3:29.464,75407,p,0,0,0
3:29.544,75436,),0,0,0
3:29.569,75445,(,0,0,1
3:29.625,75465,N,0,0,0
3:29.731,75503,),0,0,1
3:29.750,75510,(,0,0,2
3:29.806,75530,t,0,0,4
3:29.944,75580,t,0,0,4
3:29.989,75596,),0,0,2
3:30.028,75610,(,0,0,0
3:30.058,75621,p,0,0,0
3:30.122,75644,),0,0,0
3:30.247,75689,(,0,0,1
3:30.306,75710,N,0,0,0
3:30.417,75750,),0,0,1
3:30.433,75756,(,0,0,2
3:30.486,75775,t,0,0,4
3:30.633,75828,t,0,0,4
3:30.669,75841,),0,0,2
3:30.764,75875,(,0,0,0
3:30.814,75893,p,0,0,0
3:30.894,75922,),0,0,0
3:30.925,75933,(,0,0,1
3:30.978,75952,N,0,0,0
3:31.089,75992,),0,0,1
3:31.108,75999,(,0,0,2
3:31.164,76019,t,0,0,4
3:31.317,76074,t,0,0,4
3:31.361,76090,),0,0,2
3:31.458,76125,(,0,0,0
3:31.517,76146,p,0,0,0
3:31.592,76173,),0,0,0
3:31.622,76184,(,0,0,1
3:31.678,76204,N,0,0,0
3:31.792,76245,),0,0,1
3:31.811,76252,(,0,0,2
3:31.869,76273,t,0,0,4
3:32.031,76331,t,0,0,4
3:32.078,76348,),0,0,2
3:32.178,76384,(,0,0,0
3:32.228,76402,p,0,0,0
3:32.311,76432,),0,0,0
3:32.336,76441,(,0,0,1
3:32.392,76461,N,0,0,0
3:32.503,76501,),0,0,1
3:32.525,76509,(,0,0,2
3:32.589,76532,t,0,0,4
3:32.747,76589,t,0,0,4
3:32.797,76607,),0,0,2
3:32.842,76623,(,0,0,0
3:32.883,76638,p,0,0,0
3:32.936,76657,),0,0,0
3:33.067,76704,(,0,0,1
3:33.122,76724,N,0,0,0
3:33.231,76763,),0,0,1
3:33.247,76769,(,0,0,2
3:33.303,76789,t,0,0,4
3:33.456,76844,t,0,0,4
3:33.506,76862,),0,0,2
3:33.617,76902,(,0,0,0
3:33.681,76925,p,0,0,0
3:33.753,76951,),0,0,0
3:33.778,76960,(,0,0,1
3:33.839,76982,N,0,0,0
3:33.956,77024,),0,0,1
3:33.978,77032,(,0,0,2
3:34.036,77053,t,0,0,4
3:34.203,77113,t,0,0,4
3:34.247,77129,),0,0,2
3:34.356,77168,(,0,0,0
3:34.439,77198,p,0,0,0
3:34.506,77222,),0,0,0
3:34.536,77233,(,0,0,1
3:34.594,77254,N,0,0,0
3:34.714,77297,),0,0,1
3:34.736,77305,(,0,0,2
3:34.794,77326,t,0,0,4
3:34.942,77379,t,0,0,4
3:34.992,77397,),0,0,2
3:35.086,77431,(,0,0,0
3:35.136,77449,p,0,0,0
3:35.186,77467,),0,0,0
3:35.244,77488,(,0,0,1
3:35.303,77509,N,0,0,0
3:35.414,77549,),0,0,1
3:35.436,77557,(,0,0,2
3:35.486,77575,t,0,0,4
3:35.639,77630,t,0,0,4
3:35.681,77645,),0,0,2
3:35.778,77680,(,0,0,0
3:35.839,77702,p,0,0,0
3:35.894,77722,),0,0,0
3:35.928,77734,(,0,0,1
3:35.978,77752,N,0,0,0
3:36.086,77791,),0,0,1
3:36.103,77797,(,0,0,2
3:36.158,77817,t,0,0,4
3:36.308,77871,t,0,0,4
3:36.358,77889,),0,0,2
3:36.386,77899,(,0,0,0
3:36.417,77910,p,0,0,0
3:36.481,77933,),0,0,0
3:36.572,77966,(,0,0,1
3:36.661,77998,N,0,0,0
3:36.772,78038,),0,0,1
3:36.792,78045,(,0,0,2
3:36.850,78066,t,0,0,4
3:37.008,78123,t,0,0,4
3:37.056,78140,),0,0,2
3:37.089,78152,(,0,0,0
3:37.122,78164,p,0,0,0
3:37.175,78183,),0,0,0
3:37.294,78226,(,0,0,1
3:37.350,78246,N,0,0,0
3:37.461,78286,),0,0,1
3:37.564,78323,(,0,0,2
3:37.692,78369,t,0,0,0
3:37.742,78387,),0,0,2
3:37.850,78426,(,0,0,0
3:37.900,78444,p,0,0,0
3:37.967,78468,),0,0,0
3:38.011,78484,(,0,0,1
3:38.067,78504,N,0,0,0
3:38.181,78545,),0,0,1
3:38.194,78550,(,0,0,2
3:38.258,78573,t,0,0,4
3:38.417,78630,t,0,0,4
3:38.461,78646,),0,0,2
3:38.569,78685,(,0,0,0
3:38.628,78706,p,0,0,0
3:38.722,78740,),0,0,0
3:38.750,78750,(,0,0,1
3:38.803,78769,N,0,0,0
3:38.914,78809,),0,0,1
3:38.936,78817,(,0,0,2
3:38.986,78835,t,0,0,4
3:39.144,78892,t,0,0,4
3:39.192,78909,),0,0,2
3:39.294,78946,(,0,0,0
3:39.347,78965,p,0,0,0
3:39.386,78979,),0,0,0
3:39.464,79007,(,0,0,1
3:39.528,79030,N,0,0,0
3:39.642,79071,),0,0,1
3:39.661,79078,(,0,0,2
3:39.719,79099,t,0,0,4
3:39.869,79153,t,0,0,4
3:39.914,79169,),0,0,2
3:40.014,79205,(,0,0,0
3:40.064,79223,p,0,0,0
3:40.131,79247,),0,0,0
3:40.183,79266,(,0,0,1
3:40.239,79286,N,0,0,0
3:40.350,79326,),0,0,1
3:40.369,79333,(,0,0,2
3:40.425,79353,t,0,0,4
3:40.586,79411,t,0,0,4
3:40.633,79428,),0,0,2
3:40.742,79467,(,0,0,0
3:40.817,79494,p,0,0,0
3:40.883,79518,),0,0,0
3:40.911,79528,(,0,0,1
3:40.967,79548,N,0,0,0
3:41.083,79590,),0,0,1
3:41.108,79599,(,0,0,2
3:41.167,79620,t,0,0,4
3:41.322,79676,t,0,0,4
3:41.378,79696,),0,0,2
3:41.406,79706,(,0,0,0
3:41.442,79719,p,0,0,0
3:41.492,79737,),0,0,0
3:41.617,79782,(,0,0,1
3:41.672,79802,N,0,0,0
3:41.778,79840,),0,0,1
3:41.794,79846,(,0,0,2
3:41.847,79865,t,0,0,4
3:42.000,79920,t,0,0,4
3:42.047,79937,),0,0,2
3:42.150,79974,(,0,0,0
3:42.217,79998,p,0,0,0
3:42.283,80022,),0,0,0
3:42.306,80030,(,0,0,1
3:42.353,80047,N,0,0,0
3:42.458,80085,),0,0,1
3:42.478,80092,(,0,0,2
3:42.525,80109,t,0,0,4
3:42.675,80163,t,0,0,4
3:42.717,80178,),0,0,2
3:42.814,80213,(,0,0,0
3:42.861,80230,p,0,0,0
3:42.911,80248,),0,0,0
3:42.969,80269,(,0,0,1
3:43.022,80288,N,0,0,0
3:43.128,80326,),0,0,1
3:43.144,80332,(,0,0,2
3:43.197,80351,t,0,0,4
3:43.347,80405,t,0,0,4
3:43.394,80422,),0,0,2
3:43.497,80459,(,0,0,0
3:43.572,80486,p,0,0,0
3:43.636,80509,),0,0,0
3:43.661,80518,(,0,0,1
3:43.717,80538,N,0,0,0
3:43.817,80574,),0,0,1
3:43.839,80582,(,0,0,2
3:43.889,80600,t,0,0,4
3:44.047,80657,t,0,0,4
3:44.092,80673,),0,0,2
3:44.197,80711,(,0,0,0
3:44.253,80731,p,0,0,0
3:44.342,80763,),0,0,0
3:44.372,80774,(,0,0,1
3:44.431,80795,N,0,0,0
3:44.542,80835,),0,0,1
3:44.561,80842,(,0,0,2
3:44.619,80863,t,0,0,4
3:44.786,80923,t,0,0,4
3:44.825,80937,),0,0,2
3:44.939,80978,(,0,0,0
3:45.011,81004,p,0,0,0
3:45.083,81030,),0,0,0
3:45.111,81040,(,0,0,1
3:45.175,81063,N,0,0,0
3:45.294,81106,),0,0,1
3:45.317,81114,(,0,0,2
3:45.369,81133,t,0,0,4
3:45.528,81190,t,0,0,4
3:45.581,81209,),0,0,2
3:45.669,81241,(,0,0,0
3:45.722,81260,p,0,0,0
3:45.814,81293,),0,0,0
3:45.836,81301,(,0,0,1
3:45.894,81322,N,0,0,0
3:46.011,81364,),0,0,1
3:46.031,81371,(,0,0,2
3:46.086,81391,t,0,0,4
3:46.242,81447,t,0,0,4
3:46.283,81462,),0,0,2
3:46.386,81499,(,0,0,0
3:46.450,81522,p,0,0,0
3:46.519,81547,),0,0,0
3:46.544,81556,(,0,0,1
3:46.600,81576,N,0,0,0
3:46.714,81617,),0,0,1
3:46.739,81626,(,0,0,2
3:46.786,81643,t,0,0,4
3:46.947,81701,t,0,0,4
3:46.992,81717,),0,0,2
3:47.089,81752,(,0,0,0
3:47.142,81771,p,0,0,0
3:47.189,81788,),0,0,0
3:47.258,81813,(,0,0,1
3:47.314,81833,N,0,0,0
3:47.428,81874,),0,0,1
3:47.442,81879,(,0,0,2
3:47.503,81901,t,0,0,4
3:47.661,81958,t,0,0,4
3:47.703,81973,),0,0,2
3:47.806,82010,(,0,0,0
3:47.872,82034,p,0,0,0
3:47.939,82058,),0,0,0
3:47.964,82067,(,0,0,1
3:48.019,82087,N,0,0,0
3:48.125,82125,),0,0,1
3:48.147,82133,(,0,0,2
3:48.197,82151,t,0,0,4
3:48.344,82204,t,0,0,4
3:48.389,82220,),0,0,2
3:48.486,82255,(,0,0,0
3:48.536,82273,p,0,0,0
3:48.619,82303,),0,0,0
3:48.647,82313,(,0,0,1
3:48.703,82333,N,0,0,0
3:48.811,82372,),0,0,1
3:48.828,82378,(,0,0,2
3:48.881,82397,t,0,0,4
3:49.022,82448,t,0,0,4
3:49.064,82463,),0,0,2
3:49.156,82496,(,0,0,0
3:49.211,82516,p,0,0,0
3:49.269,82537,),0,0,0
3:49.319,82555,(,0,0,1
3:49.372,82574,N,0,0,0
3:49.478,82612,),0,0,1
3:49.492,82617,(,0,0,2
3:49.547,82637,t,0,0,4
3:49.694,82690,t,0,0,4
3:49.744,82708,),0,0,2
3:49.786,82723,(,0,0,0
3:49.822,82736,p,0,0,0
3:49.878,82756,),0,0,0
3:49.986,82795,(,0,0,1
3:50.075,82827,N,0,0,0
3:50.189,82868,),0,0,1
3:50.208,82875,(,0,0,2
3:50.261,82894,t,0,0,4
3:50.408,82947,t,0,0,4
3:50.458,82965,),0,0,2
3:50.492,82977,(,0,0,0
3:50.531,82991,p,0,0,0
3:50.581,83009,),0,0,0
3:50.692,83049,(,0,0,1
3:50.786,83083,N,0,0,0
3:50.911,83128,),0,0,1
3:51.028,83170,(,0,0,2
3:51.144,83212,t,0,0,0
3:51.186,83227,),0,0,2
3:51.297,83267,(,0,0,0
3:51.361,83290,p,0,0,0
3:51.442,83319,),0,0,0
3:51.478,83332,(,0,0,1
3:51.533,83352,N,0,0,0
3:51.658,83397,),0,0,1
3:51.675,83403,(,0,0,2
3:51.731,83423,t,0,0,4
3:51.900,83484,t,0,0,4
3:51.942,83499,),0,0,2
3:52.042,83535,(,0,0,0
3:52.111,83560,p,0,0,0
3:52.175,83583,),0,0,0
3:52.206,83594,(,0,0,1
3:52.261,83614,N,0,0,0
3:52.375,83655,),0,0,1
3:52.394,83662,(,0,0,2
3:52.453,83683,t,0,0,4
3:52.608,83739,t,0,0,4
3:52.664,83759,),0,0,2
3:52.686,83767,(,0,0,0
3:52.728,83782,p,0,0,0
3:52.783,83802,),0,0,0
3:52.911,83848,(,0,0,1
3:52.964,83867,N,0,0,0
3:53.067,83904,),0,0,1
3:53.081,83909,(,0,0,2
3:53.131,83927,t,0,0,4
3:53.292,83985,t,0,0,4
3:53.336,84001,),0,0,2
3:53.439,84038,(,0,0,0
3:53.503,84061,p,0,0,0
3:53.572,84086,),0,0,0
3:53.603,84097,(,0,0,1
3:53.658,84117,N,0,0,0
3:53.772,84158,),0,0,1
3:53.794,84166,(,0,0,2
3:53.844,84184,t,0,0,4
3:54.008,84243,t,0,0,4
3:54.053,84259,),0,0,2
3:54.156,84296,(,0,0,0
3:54.236,84325,p,0,0,0
3:54.289,84344,),0,0,0
3:54.322,84356,(,0,0,1
3:54.378,84376,N,0,0,0
3:54.486,84415,),0,0,1
3:54.586,84451,(,0,0,2
3:54.700,84492,t,0,0,0
3:54.733,84504,),0,0,2
3:54.839,84542,(,0,0,0
3:54.906,84566,p,0,0,0
3:54.972,84590,),0,0,0
3:55.000,84600,(,0,0,1
3:55.056,84620,N,0,0,0
3:55.167,84660,),0,0,1
3:55.181,84665,(,0,0,2
3:55.231,84683,t,0,0,1
3:55.369,84733,),0,0,2
3:55.389,84740,(,0,0,0
3:55.417,84750,p,0,0,0
3:55.483,84774,),0,0,0
3:55.508,84783,(,0,0,1
3:55.556,84800,N,0,0,0
3:55.669,84841,),0,0,1
3:55.750,84870,(,0,0,2
3:55.867,84912,t,0,0,0
3:55.981,84953,),0,0,2
3:56.189,85028,(,0,0,0
3:56.256,85052,p,0,0,0
3:56.328,85078,),0,0,0
3:56.364,85091,(,0,0,1
3:56.422,85112,N,0,0,0
3:56.544,85156,),0,0,1
3:56.561,85162,(,0,0,2
3:56.611,85180,t,0,0,1
3:56.781,85241,),0,0,2
3:56.903,85285,(,0,0,0
3:56.956,85304,p,0,0,0
3:56.994,85318,),0,0,0
3:57.072,85346,(,0,0,1
3:57.128,85366,N,0,0,0
3:57.244,85408,),0,0,1
3:57.267,85416,(,0,0,2
3:57.322,85436,t,0,0,4
3:57.489,85496,t,0,0,4
3:57.539,85514,),0,0,2
3:57.594,85534,(,0,0,0
3:57.631,85547,p,0,0,0
3:57.678,85564,),0,0,0
3:57.814,85613,(,0,0,1
3:57.872,85634,N,0,0,0
3:57.994,85678,),0,0,1
3:58.017,85686,(,0,0,2
3:58.072,85706,t,0,0,4
3:58.244,85768,t,0,0,4
3:58.303,85789,),0,0,2
3:58.381,85817,(,0,0,0
3:58.433,85836,p,0,0,0
3:58.494,85858,),0,0,0
3:58.511,85864,(,0,0,1
3:58.594,85894,N,0,0,0
3:58.706,85934,),0,0,1
3:58.814,85973,(,0,0,2
3:58.931,86015,t,0,0,0
3:58.964,86027,),0,0,2
3:59.072,86066,(,0,0,0
3:59.150,86094,p,0,0,0
3:59.206,86114,),0,0,0
3:59.231,86123,(,0,0,1
3:59.281,86141,N,0,0,0
3:59.389,86180,),0,0,1
3:59.411,86188,(,0,0,2
3:59.461,86206,t,0,0,1
3:59.594,86254,),0,0,2
3:59.728,86302,(,0,0,0
3:59.781,86321,p,0,0,0
3:59.850,86346,),0,0,0
3:59.881,86357,(,0,0,1
3:59.939,86378,N,0,0,0
4:00.047,86417,),0,0,1
4:00.064,86423,(,0,0,2
4:00.119,86443,t,0,0,4
4:00.278,86500,t,0,0,4
4:00.311,86512,),0,0,2
4:00.406,86546,(,0,0,0
4:00.458,86565,p,0,0,0
4:00.547,86597,),0,0,0
4:00.572,86606,(,0,0,1
4:00.628,86626,N,0,0,0
4:00.744,86668,),0,0,1
4:00.822,86696,t,0,0,2
4:00.956,86744,),0,0,2
4:01.033,86772,(,0,0,0
4:01.050,86778,p,0,0,0
4:01.111,86800,),0,0,0
4:01.200,86832,(,0,0,1
4:01.289,86864,N,0,0,0
4:01.411,86908,),0,0,1
4:01.478,86932,t,0,0,2
4:01.614,86981,),0,0,2
4:01.744,87028,(,0,0,0
4:01.814,87053,p,0,0,0
4:01.872,87074,),0,0,0
4:01.892,87081,(,0,0,1
4:01.947,87101,N,0,0,0
4:02.056,87140,),0,0,1
4:02.072,87146,(,0,0,2
4:02.119,87163,t,0,0,4
4:02.314,87233,t,0,0,4
4:02.342,87243,),0,0,2
4:02.403,87265,(,0,0,0
4:02.461,87286,p,0,0,0
4:02.531,87311,),0,0,0
4:02.561,87322,(,0,0,1
4:02.617,87342,N,0,0,0
4:02.731,87383,),0,0,1
4:02.831,87419,(,0,0,2
4:02.967,87468,t,0,0,0
4:03.028,87490,),0,0,2
4:03.086,87511,(,0,0,0
4:03.142,87531,p,0,0,0
4:03.222,87560,),0,0,0
4:03.247,87569,(,0,0,1
4:03.306,87590,N,0,0,0
4:03.419,87631,),0,0,1
4:03.511,87664,(,0,0,2
4:03.664,87719,t,0,0,0
4:03.700,87732,),0,0,2
4:03.767,87756,(,0,0,0
4:03.828,87778,p,0,0,0
4:03.864,87791,),0,0,0
4:03.939,87818,(,0,0,1
4:03.997,87839,N,0,0,0
4:04.108,87879,),0,0,1
4:04.125,87885,(,0,0,2
4:04.178,87904,t,0,0,4
4:04.353,87967,t,0,0,4
4:04.392,87981,),0,0,2
4:04.450,88002,(,0,0,0
4:04.506,88022,p,0,0,0
4:04.592,88053,),0,0,0
4:04.617,88062,(,0,0,1
4:04.675,88083,N,0,0,0
4:04.792,88125,),0,0,1
4:04.856,88148,t,0,0,2
4:05.003,88201,),0,0,2
4:05.119,88243,(,0,0,0
4:05.175,88263,p,0,0,0
4:05.247,88289,),0,0,0
4:05.272,88298,(,0,0,1
4:05.331,88319,N,0,0,0
4:05.444,88360,),0,0,1
4:05.517,88386,t,0,0,2
4:05.667,88440,),0,0,2
4:05.761,88474,(,0,0,0
4:05.825,88497,p,0,0,0
4:05.892,88521,),0,0,0
4:05.914,88529,(,0,0,1
4:05.967,88548,N,0,0,0
4:06.075,88587,),0,0,1
4:06.097,88595,(,0,0,2
4:06.139,88610,t,0,0,1
4:06.292,88665,),0,0,2
4:06.386,88699,(,0,0,0
4:06.450,88722,p,0,0,0
4:06.511,88744,),0,0,0
4:06.533,88752,(,0,0,1
4:06.594,88774,N,0,0,0
4:06.708,88815,),0,0,1
4:06.728,88822,(,0,0,2
4:06.778,88840,t,0,0,4
4:06.947,88901,t,0,0,4
4:06.994,88918,),0,0,2
4:07.058,88941,(,0,0,0
4:07.111,88960,p,0,0,0
4:07.169,88981,),0,0,0
4:07.214,88997,(,0,0,1
4:07.272,89018,N,0,0,0
4:07.383,89058,),0,0,1
4:07.397,89063,(,0,0,2
4:07.447,89081,t,0,0,4
4:07.614,89141,t,0,0,4
4:07.658,89157,),0,0,2
4:07.708,89175,(,0,0,0
4:07.756,89192,p,0,0,0
4:07.786,89203,),0,0,0
4:07.864,89231,(,0,0,1
4:07.925,89253,N,0,0,0
4:08.039,89294,),0,0,1
4:08.061,89302,(,0,0,2
4:08.108,89319,t,0,0,4
4:08.278,89380,t,0,0,4
4:08.314,89393,),0,0,2
4:08.372,89414,(,0,0,0
4:08.444,89440,p,0,0,0
4:08.500,89460,),0,0,0
4:08.522,89468,(,0,0,1
4:08.581,89489,N,0,0,0
4:08.700,89532,),0,0,1
4:08.808,89571,(,0,0,2
4:08.947,89621,t,0,0,0
4:08.981,89633,),0,0,2
4:09.042,89655,(,0,0,0
4:09.125,89685,p,0,0,0
4:09.172,89702,),0,0,0
4:09.192,89709,(,0,0,1
4:09.250,89730,N,0,0,0
4:09.372,89774,),0,0,1
4:09.475,89811,(,0,0,2
4:09.639,89870,t,0,0,0
4:09.678,89884,),0,0,2
4:09.733,89904,(,0,0,0
4:09.792,89925,p,0,0,0
4:09.853,89947,),0,0,0
4:09.883,89958,(,0,0,1
4:09.939,89978,N,0,0,0
4:10.056,90020,),0,0,1
4:10.072,90026,(,0,0,2
4:10.122,90044,t,0,0,4
4:10.300,90108,t,0,0,4
4:10.356,90128,),0,0,2
4:10.419,90151,(,0,0,0
4:10.472,90170,p,0,0,0
4:10.556,90200,),0,0,0
4:10.578,90208,(,0,0,1
4:10.633,90228,N,0,0,0
4:10.747,90269,),0,0,1
4:10.764,90275,(,0,0,2
4:10.811,90292,t,0,0,4
4:11.008,90363,t,0,0,4
4:11.042,90375,),0,0,2
4:11.108,90399,(,0,0,0
4:11.181,90425,p,0,0,0
4:11.242,90447,),0,0,0
4:11.267,90456,(,0,0,1
4:11.325,90477,N,0,0,0
4:11.433,90516,),0,0,1
4:11.453,90523,(,0,0,2
4:11.503,90541,t,0,0,4
4:11.661,90598,t,0,0,4
4:11.711,90616,),0,0,2
4:11.753,90631,(,0,0,0
4:11.819,90655,p,0,0,0
4:11.878,90676,),0,0,0
4:11.906,90686,(,0,0,1
4:11.958,90705,N,0,0,0
4:12.072,90746,),0,0,1
4:12.089,90752,(,0,0,2
4:12.131,90767,t,0,0,4
4:12.283,90822,t,0,0,4
4:12.333,90840,),0,0,2
4:12.344,90844,(,0,0,0
4:12.369,90853,p,0,0,0
4:12.422,90872,),0,0,0
4:12.539,90914,(,0,0,1
4:12.592,90933,N,0,0,0
4:12.697,90971,),0,0,1
4:12.717,90978,(,0,0,2
4:12.758,90993,t,0,0,4
4:12.917,91050,t,0,0,4
4:12.983,91074,),0,0,2
4:13.044,91096,(,0,0,0
4:13.131,91127,p,0,0,0
4:13.175,91143,),0,0,0
4:13.197,91151,(,0,0,1
4:13.258,91173,N,0,0,0
4:13.372,91214,),0,0,1
4:13.397,91223,(,0,0,2
4:13.447,91241,t,0,0,4
4:13.606,91298,t,0,0,4
4:13.681,91325,),0,0,2
4:13.742,91347,(,0,0,0
4:13.794,91366,p,0,0,0
4:13.858,91389,),0,0,0
4:13.897,91403,(,0,0,1
4:13.950,91422,N,0,0,0
4:14.058,91461,),0,0,1
4:14.075,91467,(,0,0,2
4:14.128,91486,t,0,0,4
4:14.283,91542,t,0,0,4
4:14.356,91568,),0,0,2
4:14.419,91591,(,0,0,0
4:14.492,91617,p,0,0,0
4:14.556,91640,),0,0,0
4:14.581,91649,(,0,0,1
4:14.642,91671,N,0,0,0
4:14.753,91711,),0,0,1
4:14.769,91717,(,0,0,2
4:14.822,91736,t,0,0,4
4:14.969,91789,t,0,0,4
4:15.044,91816,),0,0,2
4:15.100,91836,(,0,0,0
4:15.172,91862,p,0,0,0
4:15.219,91879,),0,0,0
4:15.239,91886,(,0,0,1
4:15.328,91918,N,0,0,0
4:15.442,91959,),0,0,1
4:15.464,91967,(,0,0,2
4:15.511,91984,t,0,0,4
4:15.661,92038,t,0,0,4
4:15.731,92063,),0,0,2
4:15.803,92089,(,0,0,0
4:15.861,92110,p,0,0,0
4:15.906,92126,),0,0,0
4:15.972,92150,(,0,0,1
4:16.031,92171,N,0,0,0
4:16.147,92213,),0,0,1
4:16.253,92251,(,0,0,2
4:16.356,92288,t,0,0,0
4:16.397,92303,),0,0,2
4:16.503,92341,(,0,0,0
4:16.567,92364,p,0,0,0
4:16.644,92392,),0,0,0
4:16.664,92399,(,0,0,1
4:16.728,92422,N,0,0,0
4:16.847,92465,),0,0,1
4:16.875,92475,(,0,0,2
4:16.922,92492,t,0,0,4
4:17.072,92546,t,0,0,4
4:17.122,92564,),0,0,2
4:17.211,92596,(,0,0,0
4:17.264,92615,p,0,0,0
4:17.342,92643,),0,0,0
4:17.367,92652,(,0,0,1
4:17.428,92674,N,0,0,0
4:17.542,92715,),0,0,1
4:17.564,92723,(,0,0,2
4:17.611,92740,t,0,0,4
4:17.767,92796,t,0,0,4
4:17.808,92811,),0,0,2
4:17.903,92845,(,0,0,0
4:17.964,92867,p,0,0,0
4:18.031,92891,),0,0,0
4:18.050,92898,(,0,0,1
4:18.106,92918,N,0,0,0
4:18.214,92957,),0,0,1
4:18.239,92966,(,0,0,2
4:18.286,92983,t,0,0,4
4:18.431,93035,t,0,0,4
4:18.486,93055,),0,0,2
4:18.514,93065,(,0,0,0
4:18.544,93076,p,0,0,0
4:18.603,93097,),0,0,0
4:18.719,93139,(,0,0,1
4:18.772,93158,N,0,0,0
4:18.875,93195,),0,0,1
4:18.972,93230,(,0,0,2
4:19.081,93269,t,0,0,0
4:19.136,93289,),0,0,2
4:19.239,93326,(,0,0,0
4:19.294,93346,p,0,0,0
4:19.367,93372,),0,0,0
4:19.397,93383,(,0,0,1
4:19.453,93403,N,0,0,0
4:19.569,93445,),0,0,1
4:19.586,93451,(,0,0,2
4:19.642,93471,t,0,0,4
4:19.797,93527,t,0,0,4
4:19.853,93547,),0,0,2
4:19.961,93586,(,0,0,0
4:20.031,93611,p,0,0,0
4:20.106,93638,),0,0,0
4:20.131,93647,(,0,0,1
4:20.192,93669,N,0,0,0
4:20.308,93711,),0,0,1
4:20.325,93717,(,0,0,2
4:20.378,93736,t,0,0,4
4:20.531,93791,t,0,0,4
4:20.594,93814,),0,0,2
4:20.689,93848,(,0,0,0
4:20.739,93866,p,0,0,0
4:20.789,93884,),0,0,0
4:20.861,93910,(,0,0,1
4:20.919,93931,N,0,0,0
4:21.031,93971,),0,0,1
4:21.050,93978,(,0,0,2
4:21.108,93999,t,0,0,4
4:21.256,94052,t,0,0,4
4:21.314,94073,),0,0,2
4:21.411,94108,(,0,0,0
4:21.469,94129,p,0,0,0
4:21.544,94156,),0,0,0
4:21.569,94165,(,0,0,1
4:21.633,94188,N,0,0,0
4:21.753,94231,),0,0,1
4:21.772,94238,(,0,0,2
4:21.825,94257,t,0,0,4
4:21.981,94313,t,0,0,4
4:22.039,94334,),0,0,2
4:22.142,94371,(,0,0,0
4:22.211,94396,p,0,0,0
4:22.283,94422,),0,0,0
4:22.311,94432,(,0,0,1
4:22.369,94453,N,0,0,0
4:22.486,94495,),0,0,1
4:22.508,94503,(,0,0,2
4:22.572,94526,t,0,0,4
4:22.719,94579,t,0,0,4
4:22.781,94601,),0,0,2
4:22.794,94606,(,0,0,0
4:22.844,94624,p,0,0,0
4:22.900,94644,),0,0,0
4:23.028,94690,(,0,0,1
4:23.086,94711,N,0,0,0
4:23.197,94751,),0,0,1
4:23.214,94757,(,0,0,2
4:23.278,94780,t,0,0,4
4:23.428,94834,t,0,0,4
4:23.489,94856,),0,0,2
4:23.586,94891,(,0,0,0
4:23.636,94909,p,0,0,0
4:23.700,94932,),0,0,0
4:23.744,94948,(,0,0,1
4:23.800,94968,N,0,0,0
4:23.911,95008,),0,0,1
4:23.928,95014,(,0,0,2
4:23.981,95033,t,0,0,4
4:24.139,95090,t,0,0,4
4:24.203,95113,),0,0,2
4:24.217,95118,(,0,0,0
4:24.269,95137,p,0,0,0
4:24.331,95159,),0,0,0
4:24.450,95202,(,0,0,1
4:24.503,95221,N,0,0,0
4:24.611,95260,),0,0,1
4:24.631,95267,(,0,0,2
4:24.681,95285,t,0,0,4
4:24.836,95341,t,0,0,4
4:24.897,95363,),0,0,2
4:24.992,95397,(,0,0,0
4:25.042,95415,p,0,0,0
4:25.125,95445,),0,0,0
4:25.150,95454,(,0,0,1
4:25.200,95472,N,0,0,0
4:25.308,95511,),0,0,1
4:25.325,95517,(,0,0,2
4:25.381,95537,t,0,0,4
4:25.531,95591,t,0,0,4
4:25.586,95611,),0,0,2
4:25.600,95616,(,0,0,0
4:25.653,95635,p,0,0,0
4:25.711,95656,),0,0,0
4:25.844,95704,(,0,0,1
4:25.900,95724,N,0,0,0
4:26.014,95765,),0,0,1
4:26.033,95772,(,0,0,2
4:26.103,95797,t,0,0,4
4:26.256,95852,t,0,0,4
4:26.331,95879,),0,0,2
4:26.431,95915,(,0,0,0
4:26.483,95934,p,0,0,0
4:26.539,95954,),0,0,0
4:26.611,95980,(,0,0,1
4:26.672,96002,N,0,0,0
4:26.786,96043,),0,0,1
4:26.803,96049,(,0,0,2
4:26.858,96069,t,0,0,4
4:27.019,96127,t,0,0,4
4:27.089,96152,),0,0,2
4:27.194,96190,(,0,0,0
4:27.250,96210,p,0,0,0
4:27.325,96237,),0,0,0
4:27.369,96253,(,0,0,1
4:27.428,96274,N,0,0,0
4:27.547,96317,),0,0,1
4:27.561,96322,(,0,0,2
4:27.625,96345,t,0,0,4
4:27.775,96399,t,0,0,4
4:27.836,96421,),0,0,2
4:27.936,96457,(,0,0,0
4:28.006,96482,p,0,0,0
4:28.069,96505,),0,0,0
4:28.103,96517,(,0,0,1
4:28.161,96538,N,0,0,0
4:28.278,96580,),0,0,1
4:28.300,96588,(,0,0,2
4:28.356,96608,t,0,0,4
4:28.508,96663,t,0,0,4
4:28.567,96684,),0,0,2
4:28.667,96720,(,0,0,0
4:28.719,96739,p,0,0,0
4:28.817,96774,),0,0,0
4:28.839,96782,(,0,0,1
4:28.897,96803,N,0,0,0
4:29.011,96844,),0,0,1
4:29.119,96883,(,0,0,2
4:29.239,96926,t,0,0,0
4:29.300,96948,),0,0,2
4:29.314,96953,(,0,0,0
4:29.369,96973,p,0,0,0
4:29.422,96992,),0,0,0
4:29.556,97040,(,0,0,1
4:29.611,97060,N,0,0,0
4:29.722,97100,),0,0,1
4:29.742,97107,(,0,0,2
4:29.806,97130,t,0,0,4
4:29.953,97183,t,0,0,4
4:30.014,97205,),0,0,2
4:30.033,97212,(,0,0,0
4:30.086,97231,p,0,0,0
4:30.139,97250,),0,0,0
4:30.272,97298,(,0,0,1
4:30.328,97318,N,0,0,0
4:30.436,97357,),0,0,1
4:30.544,97396,(,0,0,2
4:30.672,97442,t,0,0,0
4:30.736,97465,),0,0,2
4:30.767,97476,(,0,0,0
4:30.808,97491,p,0,0,0
4:30.861,97510,),0,0,0
4:30.986,97555,(,0,0,1
4:31.039,97574,N,0,0,0
4:31.144,97612,),0,0,1
4:31.167,97620,(,0,0,2
4:31.222,97640,t,0,0,4
4:31.375,97695,t,0,0,4
4:31.439,97718,),0,0,2
4:31.536,97753,(,0,0,0
4:31.589,97772,p,0,0,0
4:31.664,97799,),0,0,0
4:31.694,97810,(,0,0,1
4:31.747,97829,N,0,0,0
4:31.853,97867,),0,0,1
4:31.869,97873,(,0,0,2
4:31.931,97895,t,0,0,4
4:32.078,97948,t,0,0,4
4:32.139,97970,),0,0,2
4:32.244,98008,(,0,0,0
4:32.300,98028,p,0,0,0
4:32.386,98059,),0,0,0
4:32.414,98069,(,0,0,1
4:32.469,98089,N,0,0,0
4:32.586,98131,),0,0,1
4:32.606,98138,(,0,0,2
4:32.672,98162,t,0,0,4
4:32.833,98220,t,0,0,4
4:32.900,98244,),0,0,2
4:33.008,98283,(,0,0,0
4:33.067,98304,p,0,0,0
4:33.164,98339,),0,0,0
4:33.192,98349,(,0,0,1
4:33.250,98370,N,0,0,0
4:33.367,98412,),0,0,1
4:33.389,98420,(,0,0,2
4:33.447,98441,t,0,0,4
4:33.606,98498,t,0,0,4
4:33.667,98520,),0,0,2
4:33.769,98557,(,0,0,0
4:33.828,98578,p,0,0,0
4:33.919,98611,),0,0,0
4:33.950,98622,(,0,0,1
4:34.008,98643,N,0,0,0
4:34.125,98685,),0,0,1
4:34.144,98692,(,0,0,2
4:34.206,98714,t,0,0,4
4:34.356,98768,t,0,0,4
4:34.406,98786,),0,0,2
4:34.497,98819,(,0,0,0
4:34.547,98837,p,0,0,0
4:34.633,98868,),0,0,0
4:34.664,98879,(,0,0,1
4:34.722,98900,N,0,0,0
4:34.836,98941,),0,0,1
4:34.853,98947,(,0,0,2
4:34.914,98969,t,0,0,4
4:35.053,99019,t,0,0,4
4:35.108,99039,),0,0,2
4:36.072,99386,(,0,0,1
4:36.125,99405,N,0,0,0
4:36.244,99448,),0,0,1
4:36.258,99453,(,0,0,2
4:36.314,99473,t,0,0,4
4:36.469,99529,t,0,0,4
4:36.522,99548,),0,0,2
4:36.786,99643,(,0,0,1
4:36.842,99663,N,0,0,0
4:36.961,99706,),0,0,1
4:36.972,99710,(,0,0,2
4:37.031,99731,t,0,0,4
4:37.189,99788,t,0,0,4
4:37.247,99809,),0,0,2
4:37.494,99898,(,0,0,1
4:37.547,99917,N,0,0,0
4:37.658,99957,),0,0,1
4:37.669,99961,(,0,0,2
4:37.733,99984,t,0,0,4
4:37.883,100038,t,0,0,4
4:37.939,100058,),0,0,2
4:38.208,100155,(,0,0,1
4:38.264,100175,N,0,0,0
4:38.381,100217,),0,0,1
4:38.386,100219,(,0,0,2
4:38.444,100240,t,0,0,4
4:38.600,100296,t,0,0,4
4:38.650,100314,),0,0,2
4:38.939,100418,(,0,0,1
4:38.997,100439,N,0,0,0
4:39.125,100485,),0,0,1
4:39.136,100489,(,0,0,2
4:39.206,100514,t,0,0,4
4:39.369,100573,t,0,0,4
4:39.425,100593,),0,0,2
4:39.719,100699,(,0,0,1
4:39.778,100720,N,0,0,0
4:39.900,100764,),0,0,1
4:39.908,100767,(,0,0,2
4:39.975,100791,t,0,0,4
4:40.125,100845,t,0,0,4
4:40.167,100860,),0,0,2
4:40.444,100960,(,0,0,1
4:40.503,100981,N,0,0,0
4:40.628,101026,),0,0,1
4:40.639,101030,(,0,0,2
4:40.697,101051,t,0,0,4
4:40.842,101103,t,0,0,4
4:40.894,101122,),0,0,2
4:41.144,101212,(,0,0,1
4:41.200,101232,N,0,0,0
4:41.322,101276,),0,0,1
4:41.336,101281,(,0,0,2
4:41.389,101300,t,0,0,4
4:41.536,101353,t,0,0,4
4:41.581,101369,),0,0,2
4:41.836,101461,(,0,0,1
4:41.892,101481,N,0,0,0
4:42.011,101524,),0,0,1
4:42.025,101529,(,0,0,2
4:42.083,101550,t,0,0,4
4:42.228,101602,t,0,0,4
4:42.269,101617,),0,0,2
4:42.514,101705,(,0,0,1
4:42.569,101725,N,0,0,0
4:42.686,101767,),0,0,1
4:42.697,101771,(,0,0,2
4:42.761,101794,t,0,0,4
4:42.911,101848,t,0,0,4
4:42.956,101864,),0,0,2
4:43.214,101957,(,0,0,1
4:43.272,101978,N,0,0,0
4:43.392,102021,),0,0,1
4:43.403,102025,(,0,0,2
4:43.464,102047,t,0,0,4
4:43.619,102103,t,0,0,4
4:43.669,102121,),0,0,2
4:43.900,102204,(,0,0,1
4:43.983,102234,N,0,0,0
4:44.100,102276,),0,0,1
4:44.200,102312,(,0,0,2
4:44.319,102355,t,0,0,0
4:44.369,102373,),0,0,2
4:44.642,102471,(,0,0,1
4:44.697,102491,N,0,0,0
4:44.817,102534,),0,0,1
4:44.919,102571,(,0,0,2
4:45.031,102611,t,0,0,0
4:45.072,102626,),0,0,2
4:45.358,102729,(,0,0,1
4:45.417,102750,N,0,0,0
4:45.542,102795,),0,0,1
4:45.553,102799,(,0,0,2
4:45.614,102821,t,0,0,4
4:45.778,102880,t,0,0,4
4:45.822,102896,),0,0,2
4:46.114,103001,(,0,0,1
4:46.172,103022,N,0,0,0
4:46.303,103069,),0,0,1
4:46.311,103072,(,0,0,2
4:46.378,103096,t,0,0,4
4:46.531,103151,t,0,0,4
4:46.572,103166,),0,0,2
4:46.839,103262,(,0,0,1
4:46.894,103282,N,0,0,0
4:47.014,103325,),0,0,1
4:47.022,103328,(,0,0,2
4:47.078,103348,t,0,0,4
4:47.236,103405,t,0,0,4
4:47.283,103422,),0,0,2
4:47.528,103510,(,0,0,1
4:47.581,103529,N,0,0,0
4:47.697,103571,),0,0,1
4:47.708,103575,(,0,0,2
4:47.764,103595,t,0,0,4
4:47.908,103647,t,0,0,4
4:47.964,103667,),0,0,2
4:48.217,103758,(,0,0,1
4:48.272,103778,N,0,0,0
4:48.389,103820,),0,0,1
4:48.489,103856,(,0,0,2
4:48.606,103898,t,0,0,0
4:48.653,103915,),0,0,2
4:48.908,104007,(,0,0,1
4:48.958,104025,N,0,0,0
4:49.072,104066,),0,0,1
4:49.167,104100,(,0,0,2
4:49.292,104145,t,0,0,0
4:49.344,104164,),0,0,2
4:49.614,104261,(,0,0,1
4:49.667,104280,N,0,0,0
4:49.786,104323,),0,0,1
4:49.797,104327,(,0,0,2
4:49.858,104349,t,0,0,4
4:50.017,104406,t,0,0,4
4:50.075,104427,),0,0,2
4:50.300,104508,(,0,0,1
4:50.381,104537,N,0,0,0
4:50.461,104566,),0,0,1
4:50.500,104580,(,0,0,2
4:50.550,104598,t,0,0,4
4:50.703,104653,t,0,0,4
4:50.786,104683,),0,0,2
4:51.094,104794,(,0,0,1
4:51.153,104815,N,0,0,0
4:51.278,104860,),0,0,1
4:51.286,104863,(,0,0,2
4:51.342,104883,t,0,0,4
4:51.497,104939,t,0,0,4
4:51.547,104957,),0,0,2
4:51.817,105054,(,0,0,1
4:51.872,105074,N,0,0,0
4:52.000,105120,),0,0,1
4:52.103,105157,(,0,0,2
4:52.225,105201,t,0,0,0
4:52.275,105219,),0,0,2
4:52.564,105323,(,0,0,1
4:52.622,105344,N,0,0,0
4:52.747,105389,),0,0,1
4:52.761,105394,(,0,0,2
4:52.828,105418,t,0,0,4
4:52.983,105474,t,0,0,4
4:53.031,105491,),0,0,2
4:53.292,105585,(,0,0,1
4:53.344,105604,N,0,0,0
4:53.461,105646,),0,0,1
4:53.475,105651,(,0,0,2
4:53.525,105669,t,0,0,4
4:53.683,105726,t,0,0,4
4:53.722,105740,),0,0,2
4:53.983,105834,(,0,0,1
4:54.033,105852,N,0,0,0
4:54.142,105891,),0,0,1
4:54.153,105895,(,0,0,2
4:54.208,105915,t,0,0,4
4:54.353,105967,t,0,0,4
4:54.403,105985,),0,0,2
4:54.658,106077,(,0,0,1
4:54.711,106096,N,0,0,0
4:54.822,106136,),0,0,1
4:54.831,106139,(,0,0,2
4:54.889,106160,t,0,0,4
4:55.036,106213,t,0,0,4
4:55.086,106231,),0,0,2
4:55.356,106328,(,0,0,1
4:55.408,106347,N,0,0,0
4:55.519,106387,),0,0,1
4:55.533,106392,(,0,0,2
4:55.589,106412,t,0,0,4
4:55.731,106463,t,0,0,4
4:55.781,106481,),0,0,2
4:56.064,106583,(,0,0,1
4:56.119,106603,N,0,0,0
4:56.239,106646,),0,0,1
4:56.250,106650,(,0,0,2
4:56.306,106670,t,0,0,4
4:56.464,106727,t,0,0,4
4:56.511,106744,),0,0,2
4:56.803,106849,(,0,0,1
4:56.861,106870,N,0,0,0
4:56.992,106917,),0,0,1
4:57.003,106921,(,0,0,2
4:57.069,106945,t,0,0,4
4:57.222,107000,t,0,0,4
4:57.269,107017,),0,0,2
4:57.539,107114,(,0,0,1
4:57.597,107135,N,0,0,0
4:57.719,107179,),0,0,1
4:57.731,107183,(,0,0,2
4:57.792,107205,t,0,0,4
4:57.950,107262,t,0,0,4
4:57.997,107279,),0,0,2
4:58.264,107375,(,0,0,1
4:58.317,107394,N,0,0,0
4:58.436,107437,),0,0,1
4:58.444,107440,(,0,0,2
4:58.508,107463,t,0,0,4
4:58.661,107518,t,0,0,4
4:58.714,107537,),0,0,2
4:58.983,107634,(,0,0,1
4:59.042,107655,N,0,0,0
4:59.164,107699,),0,0,1
4:59.175,107703,(,0,0,2
4:59.231,107723,t,0,0,4
4:59.389,107780,t,0,0,4
4:59.450,107802,),0,0,2
4:59.722,107900,(,0,0,1
4:59.772,107918,N,0,0,0
4:59.886,107959,),0,0,1
4:59.894,107962,(,0,0,2
4:59.956,107984,t,0,0,4
5:00.100,108036,t,0,0,4
5:00.142,108051,),0,0,2
5:00.414,108149,(,0,0,1
5:00.467,108168,N,0,0,0
5:00.578,108208,),0,0,1
5:00.586,108211,(,0,0,2
5:00.642,108231,t,0,0,4
5:00.781,108281,t,0,0,4
5:00.828,108298,),0,0,2
5:01.089,108392,(,0,0,1
5:01.142,108411,N,0,0,0
5:01.256,108452,),0,0,1
5:01.264,108455,(,0,0,2
5:01.325,108477,t,0,0,4
5:01.469,108529,t,0,0,4
5:01.525,108549,),0,0,2
5:01.797,108647,(,0,0,1
5:01.853,108667,N,0,0,0
5:01.975,108711,),0,0,1
5:01.983,108714,(,0,0,2
5:02.039,108734,t,0,0,4
5:02.186,108787,t,0,0,4
5:02.242,108807,),0,0,2
5:02.525,108909,(,0,0,1
5:02.586,108931,N,0,0,0
5:02.711,108976,),0,0,1
5:02.725,108981,(,0,0,2
5:02.783,109002,t,0,0,4
5:02.942,109059,t,0,0,4
5:02.994,109078,),0,0,2
5:03.281,109181,(,0,0,1
5:03.339,109202,N,0,0,0
5:03.464,109247,),0,0,1
5:03.475,109251,(,0,0,2
5:03.544,109276,t,0,0,4
5:03.700,109332,t,0,0,4
5:03.756,109352,),0,0,2
5:04.025,109449,(,0,0,1
5:04.081,109469,N,0,0,0
5:04.206,109514,),0,0,1
5:04.214,109517,(,0,0,2
5:04.275,109539,t,0,0,4
5:04.436,109597,t,0,0,4
5:04.489,109616,),0,0,2
5:04.756,109712,(,0,0,1
5:04.811,109732,N,0,0,0
5:04.925,109773,),0,0,1
5:04.936,109777,(,0,0,2
5:04.997,109799,t,0,0,4
5:05.144,109852,t,0,0,4
5:05.197,109871,),0,0,2
5:05.467,109968,(,0,0,1
5:05.522,109988,N,0,0,0
5:05.642,110031,),0,0,1
5:05.653,110035,(,0,0,2
5:05.714,110057,t,0,0,4
5:05.867,110112,t,0,0,4
5:05.914,110129,),0,0,2
5:06.192,110229,(,0,0,1
5:06.244,110248,N,0,0,0
5:06.350,110286,),0,0,1
5:06.361,110290,(,0,0,2
5:06.417,110310,t,0,0,4
5:06.564,110363,t,0,0,4
5:06.614,110381,),0,0,2
5:06.883,110478,(,0,0,1
5:06.936,110497,N,0,0,0
5:07.050,110538,),0,0,1
5:07.061,110542,(,0,0,2
5:07.114,110561,t,0,0,4
5:07.261,110614,t,0,0,4
5:07.303,110629,),0,0,2
5:07.564,110723,(,0,0,1
5:07.619,110743,N,0,0,0
5:07.736,110785,),0,0,1
5:07.747,110789,(,0,0,2
5:07.806,110810,t,0,0,4
5:07.953,110863,t,0,0,4
5:07.997,110879,),0,0,2
5:08.278,110980,(,0,0,1
5:08.333,111000,N,0,0,0
5:08.458,111045,),0,0,1
5:08.469,111049,(,0,0,2
5:08.533,111072,t,0,0,4
5:08.683,111126,t,0,0,4
5:08.722,111140,),0,0,2
5:09.003,111241,(,0,0,1
5:09.061,111262,N,0,0,0
5:09.192,111309,),0,0,1
5:09.203,111313,(,0,0,2
5:09.269,111337,t,0,0,4
5:09.436,111397,t,0,0,4
5:09.483,111414,),0,0,2
5:09.761,111514,(,0,0,1
5:09.819,111535,N,0,0,0
5:09.944,111580,),0,0,1
5:09.958,111585,(,0,0,2
5:10.025,111609,t,0,0,4
5:10.186,111667,t,0,0,4
5:10.236,111685,),0,0,2
5:10.503,111781,(,0,0,1
5:10.558,111801,N,0,0,0
5:10.678,111844,),0,0,1
5:10.686,111847,(,0,0,2
5:10.750,111870,t,0,0,4
5:10.906,111926,t,0,0,4
5:10.953,111943,),0,0,2
5:11.214,112037,(,0,0,1
5:11.267,112056,N,0,0,0
5:11.378,112096,),0,0,1
5:11.386,112099,(,0,0,2
5:11.447,112121,t,0,0,4
5:11.592,112173,t,0,0,4
5:11.644,112192,),0,0,2
5:11.908,112287,(,0,0,1
5:11.964,112307,N,0,0,0
5:12.081,112349,),0,0,1
5:12.089,112352,(,0,0,2
5:12.153,112375,t,0,0,4
5:12.306,112430,t,0,0,4
5:12.361,112450,),0,0,2
5:12.636,112549,(,0,0,1
5:12.692,112569,N,0,0,0
5:12.806,112610,),0,0,1
5:12.817,112614,(,0,0,2
5:12.872,112634,t,0,0,4
5:13.019,112687,t,0,0,4
5:13.067,112704,),0,0,2
5:13.333,112800,(,0,0,1
5:13.389,112820,N,0,0,0
5:13.508,112863,),0,0,1
5:13.519,112867,(,0,0,2
5:13.578,112888,t,0,0,4
5:13.731,112943,t,0,0,4
5:13.781,112961,),0,0,2
5:14.036,113053,(,0,0,1
5:14.092,113073,N,0,0,0
5:14.211,113116,),0,0,1
5:14.222,113120,(,0,0,2
5:14.289,113144,t,0,0,4
5:14.444,113200,t,0,0,4
5:14.492,113217,),0,0,2
5:14.769,113317,(,0,0,1
5:14.828,113338,N,0,0,0
5:14.956,113384,),0,0,1
5:14.964,113387,(,0,0,2
5:15.031,113411,t,0,0,4
5:15.189,113468,t,0,0,4
5:15.242,113487,),0,0,2
5:15.508,113583,(,0,0,1
5:15.569,113605,N,0,0,0
5:15.692,113649,),0,0,1
5:15.706,113654,(,0,0,2
5:15.775,113679,t,0,0,4
5:15.936,113737,t,0,0,4
5:15.997,113759,),0,0,2
5:16.278,113860,(,0,0,1
5:16.333,113880,N,0,0,0
5:16.456,113924,),0,0,1
5:16.467,113928,(,0,0,2
5:16.533,113952,t,0,0,4
5:16.700,114012,t,0,0,4
5:16.756,114032,),0,0,2
5:17.017,114126,(,0,0,1
5:17.069,114145,N,0,0,0
5:17.183,114186,),0,0,1
5:17.192,114189,(,0,0,2
5:17.250,114210,t,0,0,4
5:17.411,114268,t,0,0,4
5:17.458,114285,),0,0,2
5:17.717,114378,(,0,0,1
5:17.767,114396,N,0,0,0
5:17.872,114434,),0,0,1
5:17.883,114438,(,0,0,2
5:17.947,114461,t,0,0,4
5:18.086,114511,t,0,0,4
5:18.136,114529,),0,0,2
5:18.394,114622,(,0,0,1
5:18.447,114641,N,0,0,0
5:18.564,114683,),0,0,1
5:18.575,114687,(,0,0,2
5:18.636,114709,t,0,0,4
5:18.789,114764,t,0,0,4
5:18.844,114784,),0,0,2
5:19.122,114884,(,0,0,1
5:19.178,114904,N,0,0,0
5:19.300,114948,),0,0,1
5:19.308,114951,(,0,0,2
5:19.369,114973,t,0,0,4
5:19.519,115027,t,0,0,4
5:19.558,115041,),0,0,2
5:19.831,115139,(,0,0,1
5:19.886,115159,N,0,0,0
5:20.006,115202,),0,0,1
5:20.017,115206,(,0,0,2
5:20.083,115230,t,0,0,4
5:20.236,115285,t,0,0,4
5:20.281,115301,),0,0,2
5:20.536,115393,(,0,0,1
5:20.592,115413,N,0,0,0
5:20.717,115458,),0,0,1
5:20.728,115462,(,0,0,2
5:20.794,115486,t,0,0,4
5:20.953,115543,t,0,0,4
5:21.000,115560,),0,0,2
5:21.278,115660,(,0,0,1
5:21.339,115682,N,0,0,0
5:21.467,115728,),0,0,1
5:21.475,115731,(,0,0,2
5:21.547,115757,t,0,0,4
5:21.703,115813,t,0,0,4
5:21.747,115829,),0,0,2
5:22.017,115926,(,0,0,1
5:22.072,115946,N,0,0,0
5:22.197,115991,),0,0,1
5:22.208,115995,(,0,0,2
5:22.283,116022,t,0,0,4
5:22.439,116078,t,0,0,4
5:22.492,116097,),0,0,2
5:22.764,116195,(,0,0,1
5:22.819,116215,N,0,0,0
5:22.942,116259,),0,0,1
5:22.950,116262,(,0,0,2
5:23.019,116287,t,0,0,4
5:23.175,116343,t,0,0,4
5:23.236,116365,),0,0,2
5:23.497,116459,(,0,0,1
5:23.550,116478,N,0,0,0
5:23.664,116519,),0,0,1
5:23.678,116524,(,0,0,2
5:23.733,116544,t,0,0,4
5:23.883,116598,t,0,0,4
5:23.936,116617,),0,0,2
5:24.194,116710,(,0,0,1
5:24.244,116728,N,0,0,0
5:24.353,116767,),0,0,1
5:24.358,116769,(,0,0,2
5:24.419,116791,t,0,0,4
5:24.561,116842,t,0,0,4
5:24.608,116859,),0,0,2
5:24.867,116952,(,0,0,1
5:24.922,116972,N,0,0,0
5:25.036,117013,),0,0,1
5:25.050,117018,(,0,0,2
5:25.114,117041,t,0,0,4
5:25.272,117098,t,0,0,4
5:25.325,117117,),0,0,2
5:25.606,117218,(,0,0,1
5:25.664,117239,N,0,0,0
5:25.786,117283,),0,0,1
5:25.792,117285,(,0,0,2
5:25.858,117309,t,0,0,4
5:26.011,117364,t,0,0,4
5:26.061,117382,),0,0,2
5:26.331,117479,(,0,0,1
5:26.386,117499,N,0,0,0
5:26.511,117544,),0,0,1
5:26.617,117582,(,0,0,2
5:26.739,117626,t,0,0,0
5:26.792,117645,),0,0,2
5:27.050,117738,(,0,0,1
5:27.108,117759,N,0,0,0
5:27.233,117804,),0,0,1
5:27.247,117809,(,0,0,2
5:27.311,117832,t,0,0,4
5:27.472,117890,t,0,0,4
5:27.514,117905,),0,0,2
5:27.786,118003,(,0,0,1
5:27.847,118025,N,0,0,0
5:27.972,118070,),0,0,1
5:27.986,118075,(,0,0,2
5:28.047,118097,t,0,0,4
5:28.206,118154,t,0,0,4
5:28.261,118174,),0,0,2
5:28.486,118255,(,0,0,1
5:28.572,118286,N,0,0,0
5:28.700,118332,),0,0,1
5:28.803,118369,(,0,0,2
5:28.925,118413,t,0,0,0
5:28.978,118432,),0,0,2
5:29.217,118518,(,0,0,1
5:29.286,118543,N,0,0,0
5:29.408,118587,),0,0,1
5:29.514,118625,(,0,0,2
5:29.628,118666,t,0,0,0
5:29.672,118682,),0,0,2
5:29.889,118760,(,0,0,1
5:29.981,118793,N,0,0,0
5:30.097,118835,),0,0,1
5:30.214,118877,(,0,0,2
5:30.306,118910,t,0,0,0
5:30.333,118920,),0,0,2
5:30.581,119009,(,0,0,1
5:30.650,119034,N,0,0,0
5:30.747,119069,),0,0,1
5:30.803,119089,(,0,0,2
5:30.825,119097,t,0,0,4
5:30.947,119141,t,0,0,4
5:31.006,119162,),0,0,2
5:31.219,119239,(,0,0,1
5:31.311,119272,N,0,0,0
5:31.433,119316,),0,0,1
5:31.528,119350,(,0,0,2
5:31.650,119394,t,0,0,0
5:31.692,119409,),0,0,2
5:31.939,119498,(,0,0,1
5:32.025,119529,N,0,0,0
5:32.144,119572,),0,0,1
5:32.186,119587,(,0,0,2
5:32.206,119594,t,0,0,4
5:32.375,119655,t,0,0,4
5:32.403,119665,),0,0,2
5:32.647,119753,(,0,0,1
5:32.733,119784,N,0,0,0
5:32.861,119830,),0,0,1
5:32.944,119860,(,0,0,2
5:33.100,119916,t,0,0,0
5:33.139,119930,),0,0,2
5:33.378,120016,(,0,0,1
5:33.442,120039,N,0,0,0
5:33.550,120078,),0,0,1
5:33.711,120136,(,0,0,2
5:33.794,120166,t,0,0,0
5:33.817,120174,),0,0,2
5:34.058,120261,(,0,0,1
5:34.136,120289,N,0,0,0
5:34.253,120331,),0,0,1
5:34.281,120341,(,0,0,2
5:34.317,120354,t,0,0,4
5:34.536,120433,t,0,0,4
5:34.561,120442,),0,0,2
5:34.619,120463,(,0,0,0
5:34.683,120486,p,0,0,0
5:34.706,120494,),0,0,0
5:34.736,120505,(,0,0,1
5:34.819,120535,N,0,0,0
5:34.914,120569,),0,0,1
5:35.033,120612,(,0,0,2
5:35.153,120655,t,0,0,0
5:35.183,120666,),0,0,2
5:35.431,120755,(,0,0,1
5:35.497,120779,N,0,0,0
5:35.614,120821,),0,0,1
5:35.692,120849,t,0,0,2
5:35.803,120889,),0,0,2
5:36.058,120981,(,0,0,1
5:36.147,121013,N,0,0,0
5:36.275,121059,),0,0,1
5:36.308,121071,t,0,0,2
5:36.442,121119,),0,0,2
5:36.675,121203,(,0,0,1
5:36.775,121239,N,0,0,0
5:36.875,121275,),0,0,1
5:36.967,121308,t,0,0,2
5:37.097,121355,),0,0,2
5:37.339,121442,(,0,0,1
5:37.408,121467,N,0,0,0
5:37.533,121512,),0,0,1
5:37.567,121524,(,0,0,2
5:37.592,121533,t,0,0,1
5:37.706,121574,),0,0,2
5:37.958,121665,(,0,0,1
5:38.050,121698,N,0,0,0
5:38.189,121748,),0,0,1
5:38.311,121792,(,0,0,2
5:38.439,121838,t,0,0,0
5:38.519,121867,),0,0,2
5:38.658,121917,(,0,0,1
5:38.753,121951,N,0,0,0
5:38.881,121997,),0,0,1
5:38.958,122025,t,0,0,2
5:39.058,122061,),0,0,2
5:39.303,122149,(,0,0,1
5:39.411,122188,N,0,0,0
5:39.542,122235,),0,0,1
5:39.633,122268,(,0,0,2
5:39.792,122325,t,0,0,0
5:39.819,122335,),0,0,2
5:39.992,122397,(,0,0,1
5:40.078,122428,N,0,0,0
5:40.200,122472,),0,0,1
5:40.289,122504,(,0,0,2
5:40.442,122559,t,0,0,0
5:40.469,122569,),0,0,2
5:40.636,122629,(,0,0,1
5:40.722,122660,N,0,0,0
5:40.847,122705,),0,0,1
5:40.908,122727,t,0,0,2
5:41.058,122781,),0,0,2
5:41.306,122870,(,0,0,1
5:41.358,122889,N,0,0,0
5:41.483,122934,),0,0,1
5:41.561,122962,(,0,0,2
5:41.703,123013,t,0,0,0
5:41.725,123021,),0,0,2
5:41.933,123096,(,0,0,1
5:41.989,123116,N,0,0,0
5:42.108,123159,),0,0,1
5:42.150,123174,t,0,0,2
5:42.331,123239,),0,0,2
5:42.589,123332,(,0,0,1
5:42.642,123351,N,0,0,0
5:42.767,123396,),0,0,1
5:42.817,123414,t,0,0,2
5:42.964,123467,),0,0,2
5:43.203,123553,(,0,0,1
5:43.258,123573,N,0,0,0
5:43.375,123615,),0,0,1
5:43.467,123648,(,0,0,2
5:43.603,123697,t,0,0,0
5:43.625,123705,),0,0,2
5:43.808,123771,(,0,0,1
5:43.883,123798,N,0,0,0
5:44.003,123841,),0,0,1
5:44.011,123844,(,0,0,2
5:44.058,123861,t,0,0,4
5:44.236,123925,t,0,0,4
5:44.264,123935,),0,0,2
5:44.481,124013,(,0,0,1
5:44.542,124035,N,0,0,0
5:44.675,124083,),0,0,1
5:44.683,124086,(,0,0,2
5:44.731,124103,t,0,0,4
5:44.928,124174,t,0,0,4
5:44.956,124184,),0,0,2
5:45.147,124253,(,0,0,1
5:45.242,124287,N,0,0,0
5:45.369,124333,),0,0,1
5:45.431,124355,t,0,0,2
5:45.583,124410,),0,0,2
5:45.808,124491,(,0,0,1
5:45.903,124525,N,0,0,0
5:46.039,124574,),0,0,1
5:46.097,124595,t,0,0,2
5:46.236,124645,),0,0,2
5:46.486,124735,(,0,0,1
5:46.544,124756,N,0,0,0
5:46.650,124794,),0,0,1
5:46.731,124823,(,0,0,2
5:46.756,124832,t,0,0,4
5:46.878,124876,t,0,0,4
5:46.897,124883,),0,0,2
5:47.114,124961,(,0,0,1
5:47.192,124989,N,0,0,0
5:47.314,125033,),0,0,1
5:47.389,125060,t,0,0,2
5:47.503,125101,),0,0,2
5:47.778,125200,(,0,0,1
5:47.831,125219,N,0,0,0
5:47.947,125261,),0,0,1
5:47.997,125279,t,0,0,2
5:48.139,125330,),0,0,2
5:48.394,125422,(,0,0,1
5:48.472,125450,N,0,0,0
5:48.589,125492,),0,0,1
5:48.683,125526,(,0,0,2
5:48.828,125578,t,0,0,0
5:48.850,125586,),0,0,2
5:49.069,125665,(,0,0,1
5:49.125,125685,N,0,0,0
5:49.242,125727,),0,0,1
5:49.322,125756,(,0,0,2
5:49.467,125808,t,0,0,0
5:49.492,125817,),0,0,2
5:49.708,125895,(,0,0,1
5:49.764,125915,N,0,0,0
5:49.883,125958,),0,0,1
5:49.981,125993,(,0,0,2
5:50.131,126047,t,0,0,0
5:50.150,126054,),0,0,2
5:50.358,126129,(,0,0,1
5:50.414,126149,N,0,0,0
5:50.542,126195,),0,0,1
5:50.633,126228,(,0,0,2
5:50.764,126275,t,0,0,0
5:50.817,126294,),0,0,2
5:51.039,126374,(,0,0,1
5:51.097,126395,N,0,0,0
5:51.225,126441,),0,0,1
5:51.239,126446,(,0,0,2
5:51.289,126464,t,0,0,4
5:51.489,126536,t,0,0,4
5:51.514,126545,),0,0,2
5:51.747,126629,(,0,0,1
5:51.803,126649,N,0,0,0
5:51.925,126693,),0,0,1
5:52.017,126726,(,0,0,2
5:52.164,126779,t,0,0,0
5:52.189,126788,),0,0,2
5:52.414,126869,(,0,0,1
5:52.472,126890,N,0,0,0
5:52.594,126934,),0,0,1
5:52.644,126952,t,0,0,2
5:52.786,127003,),0,0,2
5:53.053,127099,(,0,0,1
5:53.108,127119,N,0,0,0
5:53.228,127162,),0,0,1
5:53.317,127194,(,0,0,2
5:53.464,127247,t,0,0,0
5:53.483,127254,),0,0,2
5:53.697,127331,(,0,0,1
5:53.753,127351,N,0,0,0
5:53.869,127393,),0,0,1
5:53.925,127413,t,0,0,2
5:54.072,127466,),0,0,2
5:54.331,127559,(,0,0,1
5:54.383,127578,N,0,0,0
5:54.503,127621,),0,0,1
5:54.558,127641,t,0,0,2
5:54.708,127695,),0,0,2
5:54.956,127784,(,0,0,1
5:55.039,127814,N,0,0,0
5:55.158,127857,),0,0,1
5:55.253,127891,(,0,0,2
5:55.403,127945,t,0,0,0
5:55.431,127955,),0,0,2
5:55.653,128035,(,0,0,1
5:55.708,128055,N,0,0,0
5:55.819,128095,),0,0,1
5:55.917,128130,(,0,0,2
5:56.061,128182,t,0,0,0
5:56.092,128193,),0,0,2
5:56.314,128273,(,0,0,1
5:56.372,128294,N,0,0,0
5:56.494,128338,),0,0,1
5:56.556,128360,t,0,0,2
5:56.692,128409,),0,0,2
5:56.989,128516,(,0,0,1
5:57.044,128536,N,0,0,0
5:57.167,128580,),0,0,1
5:57.222,128600,t,0,0,2
5:57.372,128654,),0,0,2
5:57.664,128759,(,0,0,1
5:57.753,128791,N,0,0,0
5:57.881,128837,),0,0,1
5:57.947,128861,t,0,0,2
5:58.097,128915,),0,0,2
5:58.406,129026,(,0,0,1
5:58.461,129046,N,0,0,0
5:58.581,129089,),0,0,1
5:58.594,129094,(,0,0,2
5:58.642,129111,t,0,0,1
5:58.783,129162,),0,0,2
5:59.092,129273,(,0,0,1
5:59.144,129292,N,0,0,0
5:59.258,129333,),0,0,1
5:59.319,129355,t,0,0,2
5:59.442,129399,),0,0,2
5:59.733,129504,(,0,0,1
5:59.786,129523,N,0,0,0
5:59.897,129563,),0,0,1
5:59.906,129566,(,0,0,2
5:59.958,129585,t,0,0,1
6:00.086,129631,),0,0,2
6:00.383,129738,(,0,0,1
6:00.439,129758,N,0,0,0
6:00.553,129799,),0,0,1
6:00.567,129804,(,0,0,2
6:00.614,129821,t,0,0,1
6:00.739,129866,),0,0,2
6:01.033,129972,(,0,0,1
6:01.089,129992,N,0,0,0
6:01.211,130036,),0,0,1
6:01.219,130039,(,0,0,2
6:01.275,130059,t,0,0,1
6:01.414,130109,),0,0,2
6:01.714,130217,(,0,0,1
6:01.772,130238,N,0,0,0
6:01.894,130282,),0,0,1
6:01.900,130284,(,0,0,2
6:01.958,130305,t,0,0,4
6:02.125,130365,t,0,0,4
6:02.181,130385,),0,0,2
6:02.408,130467,(,0,0,1
6:02.464,130487,N,0,0,0
6:02.581,130529,),0,0,1
6:02.589,130532,(,0,0,2
6:02.650,130554,t,0,0,4
6:02.806,130610,t,0,0,4
6:02.836,130621,),0,0,2
6:03.111,130720,(,0,0,1
6:03.167,130740,N,0,0,0
6:03.289,130784,),0,0,1
6:03.300,130788,(,0,0,2
6:03.347,130805,t,0,0,4
6:03.497,130859,t,0,0,4
6:03.528,130870,),0,0,2
6:03.808,130971,(,0,0,1
6:03.864,130991,N,0,0,0
6:03.992,131037,),0,0,1
6:04.003,131041,(,0,0,2
6:04.061,131062,t,0,0,4
6:04.219,131119,t,0,0,4
6:04.253,131131,),0,0,2
6:04.536,131233,(,0,0,1
6:04.594,131254,N,0,0,0
6:04.722,131300,),0,0,1
6:04.736,131305,(,0,0,2
6:04.789,131324,t,0,0,4
6:04.942,131379,t,0,0,4
6:04.972,131390,),0,0,2
6:05.233,131484,(,0,0,1
6:05.289,131504,N,0,0,0
6:05.411,131548,),0,0,1
6:05.417,131550,(,0,0,2
6:05.475,131571,t,0,0,4
6:05.628,131626,t,0,0,4
6:05.656,131636,),0,0,2
6:05.900,131724,(,0,0,1
6:05.953,131743,N,0,0,0
6:06.064,131783,),0,0,1
6:06.072,131786,(,0,0,2
6:06.128,131806,t,0,0,4
6:06.275,131859,t,0,0,4
6:06.308,131871,),0,0,2
6:06.556,131960,(,0,0,1
6:06.608,131979,N,0,0,0
6:06.728,132022,),0,0,1
6:06.742,132027,(,0,0,2
6:06.794,132046,t,0,0,4
6:06.947,132101,t,0,0,4
6:06.981,132113,),0,0,2
6:07.228,132202,(,0,0,1
6:07.281,132221,N,0,0,0
6:07.394,132262,),0,0,1
6:07.414,132269,(,0,0,2
6:07.464,132287,t,0,0,4
6:07.617,132342,t,0,0,4
6:07.658,132357,),0,0,2
6:07.928,132454,(,0,0,1
6:07.983,132474,N,0,0,0
6:08.103,132517,),0,0,1
6:08.114,132521,(,0,0,2
6:08.175,132543,t,0,0,4
6:08.336,132601,t,0,0,4
6:08.378,132616,),0,0,2
6:08.661,132718,(,0,0,1
6:08.722,132740,N,0,0,0
6:08.836,132781,),0,0,1
6:08.844,132784,(,0,0,2
6:08.903,132805,t,0,0,4
6:09.050,132858,t,0,0,4
6:09.089,132872,),0,0,2
6:09.372,132974,(,0,0,1
6:09.431,132995,N,0,0,0
6:09.550,133038,),0,0,1
6:09.564,133043,(,0,0,2
6:09.617,133062,t,0,0,4
6:09.769,133117,t,0,0,4
6:09.806,133130,),0,0,2
6:10.075,133227,(,0,0,1
6:10.133,133248,N,0,0,0
6:10.256,133292,),0,0,1
6:10.267,133296,(,0,0,2
6:10.328,133318,t,0,0,4
6:10.486,133375,t,0,0,4
6:10.528,133390,),0,0,2
6:10.811,133492,(,0,0,1
6:10.872,133514,N,0,0,0
6:10.994,133558,),0,0,1
6:11.003,133561,(,0,0,2
6:11.061,133582,t,0,0,4
6:11.225,133641,t,0,0,4
6:11.269,133657,),0,0,2
6:11.533,133752,(,0,0,1
6:11.586,133771,N,0,0,0
6:11.697,133811,),0,0,1
6:11.794,133846,(,0,0,2
6:11.911,133888,t,0,0,0
6:11.958,133905,),0,0,2
6:12.183,133986,(,0,0,1
6:12.267,134016,N,0,0,0
6:12.372,134054,),0,0,1
6:12.386,134059,(,0,0,2
6:12.436,134077,t,0,0,4
6:12.578,134128,t,0,0,4
6:12.619,134143,),0,0,2
6:12.883,134238,(,0,0,1
6:12.936,134257,N,0,0,0
6:13.047,134297,),0,0,1
6:13.056,134300,(,0,0,2
6:13.106,134318,t,0,0,4
6:13.264,134375,t,0,0,4
6:13.308,134391,),0,0,2
6:13.581,134489,(,0,0,1
6:13.631,134507,N,0,0,0
6:13.742,134547,),0,0,1
6:13.836,134581,(,0,0,2
6:13.950,134622,t,0,0,0
6:14.003,134641,),0,0,2
6:14.286,134743,(,0,0,1
6:14.342,134763,N,0,0,0
6:14.461,134806,),0,0,1
6:14.475,134811,(,0,0,2
6:14.533,134832,t,0,0,4
6:14.689,134888,t,0,0,4
6:14.747,134909,),0,0,2
6:15.028,135010,(,0,0,1
6:15.089,135032,N,0,0,0
6:15.214,135077,),0,0,1
6:15.228,135082,(,0,0,2
6:15.283,135102,t,0,0,4
6:15.439,135158,t,0,0,4
6:15.492,135177,),0,0,2
6:15.764,135275,(,0,0,1
6:15.819,135295,N,0,0,0
6:15.944,135340,),0,0,1
6:15.956,135344,(,0,0,2
6:16.014,135365,t,0,0,4
6:16.169,135421,t,0,0,4
6:16.219,135439,),0,0,2
6:16.478,135532,(,0,0,1
6:16.533,135552,N,0,0,0
6:16.650,135594,),0,0,1
6:16.747,135629,(,0,0,2
6:16.878,135676,t,0,0,0
6:16.928,135694,),0,0,2
6:17.197,135791,(,0,0,1
6:17.253,135811,N,0,0,0
6:17.375,135855,),0,0,1
6:17.383,135858,(,0,0,2
6:17.450,135882,t,0,0,4
6:17.600,135936,t,0,0,4
6:17.653,135955,),0,0,2
6:17.922,136052,(,0,0,1
6:17.975,136071,N,0,0,0
6:18.086,136111,),0,0,1
6:18.097,136115,(,0,0,2
6:18.150,136134,t,0,0,4
6:18.300,136188,t,0,0,4
6:18.347,136205,),0,0,2
6:18.608,136299,(,0,0,1
6:18.661,136318,N,0,0,0
6:18.772,136358,),0,0,1
6:18.861,136390,(,0,0,2
6:18.969,136429,t,0,0,0
6:19.008,136443,),0,0,2
6:19.281,136541,(,0,0,1
6:19.336,136561,N,0,0,0
6:19.447,136601,),0,0,1
6:19.458,136605,(,0,0,2
6:19.517,136626,t,0,0,4
6:19.661,136678,t,0,0,4
6:19.708,136695,),0,0,2
6:19.983,136794,(,0,0,1
6:20.039,136814,N,0,0,0
6:20.161,136858,),0,0,1
6:20.172,136862,(,0,0,2
6:20.228,136882,t,0,0,4
6:20.375,136935,t,0,0,4
6:20.422,136952,),0,0,2
6:20.697,137051,(,0,0,1
6:20.758,137073,N,0,0,0
6:20.886,137119,),0,0,1
6:20.897,137123,(,0,0,2
6:20.953,137143,t,0,0,4
6:21.108,137199,t,0,0,4
6:21.161,137218,),0,0,2
6:21.450,137322,(,0,0,1
6:21.508,137343,N,0,0,0
6:21.639,137390,),0,0,1
6:21.650,137394,(,0,0,2
6:21.711,137416,t,0,0,4
6:21.872,137474,t,0,0,4
6:21.919,137491,),0,0,2
6:22.189,137588,(,0,0,1
6:22.244,137608,N,0,0,0
6:22.367,137652,),0,0,1
6:22.375,137655,(,0,0,2
6:22.436,137677,t,0,0,4
6:22.597,137735,t,0,0,4
6:22.647,137753,),0,0,2
6:22.911,137848,(,0,0,1
6:22.964,137867,N,0,0,0
6:23.075,137907,),0,0,1
6:23.083,137910,(,0,0,2
6:23.136,137929,t,0,0,4
6:23.286,137983,t,0,0,4
6:23.328,137998,),0,0,2
6:23.594,138094,(,0,0,1
6:23.647,138113,N,0,0,0
6:23.767,138156,),0,0,1
6:23.778,138160,(,0,0,2
6:23.836,138181,t,0,0,4
6:23.983,138234,t,0,0,4
6:24.031,138251,),0,0,2
6:24.308,138351,(,0,0,1
6:24.364,138371,N,0,0,0
6:24.481,138413,),0,0,1
6:24.489,138416,(,0,0,2
6:24.544,138436,t,0,0,4
6:24.686,138487,t,0,0,4
6:24.722,138500,),0,0,2
6:24.992,138597,(,0,0,1
6:25.047,138617,N,0,0,0
6:25.167,138660,),0,0,1
6:25.258,138693,(,0,0,2
6:25.378,138736,t,0,0,0
6:25.411,138748,),0,0,2
6:25.667,138840,(,0,0,1
6:25.719,138859,N,0,0,0
6:25.839,138902,),0,0,1
6:25.847,138905,(,0,0,2
6:25.908,138927,t,0,0,4
6:26.058,138981,t,0,0,4
6:26.086,138991,),0,0,2
6:26.364,139091,(,0,0,1
6:26.422,139112,N,0,0,0
6:26.547,139157,),0,0,1
6:26.556,139160,(,0,0,2
6:26.625,139185,t,0,0,4
6:26.783,139242,t,0,0,4
6:26.819,139255,),0,0,2
6:27.089,139352,(,0,0,1
6:27.147,139373,N,0,0,0
6:27.269,139417,),0,0,1
6:27.286,139423,(,0,0,2
6:27.344,139444,t,0,0,4
6:27.514,139505,t,0,0,4
6:27.564,139523,),0,0,2
6:27.836,139621,(,0,0,1
6:27.894,139642,N,0,0,0
6:28.017,139686,),0,0,1
6:28.028,139690,(,0,0,2
6:28.089,139712,t,0,0,4
6:28.253,139771,t,0,0,4
6:28.300,139788,),0,0,2
6:28.583,139890,(,0,0,1
6:28.642,139911,N,0,0,0
6:28.758,139953,),0,0,1
6:28.769,139957,(,0,0,2
6:28.831,139979,t,0,0,4
6:28.978,140032,t,0,0,4
6:29.006,140042,),0,0,2
6:29.292,140145,(,0,0,1
6:29.344,140164,N,0,0,0
6:29.458,140205,),0,0,1
6:29.469,140209,(,0,0,2
6:29.522,140228,t,0,0,4
6:29.661,140278,t,0,0,4
6:29.700,140292,),0,0,2
6:29.961,140386,(,0,0,1
6:30.014,140405,N,0,0,0
6:30.133,140448,),0,0,1
6:30.147,140453,(,0,0,2
6:30.200,140472,t,0,0,1
6:30.333,140520,),0,0,2
6:30.658,140637,(,0,0,1
6:30.714,140657,N,0,0,0
6:30.836,140701,),0,0,1
6:30.847,140705,(,0,0,2
6:30.908,140727,t,0,0,4
6:31.064,140783,t,0,0,4
6:31.094,140794,),0,0,2
6:31.356,140888,(,0,0,1
6:31.411,140908,N,0,0,0
6:31.525,140949,),0,0,1
6:31.636,140989,(,0,0,2
6:31.744,141028,t,0,0,0
6:31.792,141045,),0,0,2
6:32.056,141140,(,0,0,1
6:32.111,141160,N,0,0,0
6:32.225,141201,),0,0,1
6:32.239,141206,(,0,0,2
6:32.289,141224,t,0,0,4
6:32.447,141281,t,0,0,4
6:32.483,141294,),0,0,2
6:32.756,141392,(,0,0,1
6:32.811,141412,N,0,0,0
6:32.933,141456,),0,0,1
6:32.942,141459,(,0,0,2
6:33.000,141480,t,0,0,4
6:33.167,141540,t,0,0,4
6:33.206,141554,),0,0,2
6:33.461,141646,(,0,0,1
6:33.544,141676,N,0,0,0
6:33.658,141717,),0,0,1
6:33.764,141755,(,0,0,2
6:33.886,141799,t,0,0,0
6:33.922,141812,),0,0,2
6:34.222,141920,(,0,0,1
6:34.281,141941,N,0,0,0
6:34.400,141984,),0,0,1
6:34.408,141987,(,0,0,2
6:34.469,142009,t,0,0,4
6:34.628,142066,t,0,0,4
6:34.669,142081,),0,0,2
6:34.950,142182,(,0,0,1
6:35.006,142202,N,0,0,0
6:35.125,142245,),0,0,1
6:35.225,142281,(,0,0,2
6:35.328,142318,t,0,0,0
6:35.361,142330,),0,0,2
6:35.631,142427,(,0,0,1
6:35.683,142446,N,0,0,0
6:35.806,142490,),0,0,1
6:35.903,142525,(,0,0,2
6:36.014,142565,t,0,0,0
6:36.044,142576,),0,0,2
6:36.300,142668,(,0,0,1
6:36.353,142687,N,0,0,0
6:36.467,142728,),0,0,1
6:36.558,142761,(,0,0,2
6:36.681,142805,t,0,0,0
6:36.714,142817,),0,0,2
6:36.983,142914,(,0,0,1
6:37.039,142934,N,0,0,0
6:37.158,142977,),0,0,1
6:37.261,143014,(,0,0,2
6:37.383,143058,t,0,0,0
6:37.417,143070,),0,0,2
6:37.692,143169,(,0,0,1
6:37.744,143188,N,0,0,0
6:37.856,143228,),0,0,1
6:37.875,143235,(,0,0,2
6:37.925,143253,t,0,0,1
6:38.061,143302,),0,0,2
6:38.392,143421,(,0,0,1
6:38.447,143441,N,0,0,0
6:38.567,143484,),0,0,1
6:38.572,143486,(,0,0,2
6:38.631,143507,t,0,0,4
6:38.778,143560,t,0,0,4
6:38.844,143584,),0,0,2
6:39.092,143673,(,0,0,1
6:39.150,143694,N,0,0,0
6:39.272,143738,),0,0,1
6:39.378,143776,(,0,0,2
6:39.494,143818,t,0,0,0
6:39.525,143829,),0,0,2
6:39.817,143934,(,0,0,1
6:39.875,143955,N,0,0,0
6:40.003,144001,),0,0,1
6:40.017,144006,(,0,0,2
6:40.072,144026,t,0,0,1
6:40.203,144073,),0,0,2
6:40.522,144188,(,0,0,1
6:40.578,144208,N,0,0,0
6:40.706,144254,),0,0,1
6:40.711,144256,(,0,0,2
6:40.772,144278,t,0,0,4
6:40.933,144336,t,0,0,4
6:40.967,144348,),0,0,2
6:41.236,144445,(,0,0,1
6:41.292,144465,N,0,0,0
6:41.414,144509,),0,0,1
6:41.419,144511,(,0,0,2
6:41.489,144536,t,0,0,4
6:41.639,144590,t,0,0,4
6:41.667,144600,),0,0,2
6:41.922,144692,(,0,0,1
6:41.975,144711,N,0,0,0
6:42.092,144753,),0,0,1
6:42.100,144756,(,0,0,2
6:42.153,144775,t,0,0,4
6:42.303,144829,t,0,0,4
6:42.350,144846,),0,0,2
6:42.558,144921,(,0,0,1
6:42.644,144952,N,0,0,0
6:42.756,144992,),0,0,1
6:42.850,145026,(,0,0,2
6:42.958,145065,t,0,0,0
6:42.992,145077,),0,0,2
6:43.228,145162,(,0,0,1
6:43.314,145193,N,0,0,0
6:43.436,145237,),0,0,1
6:43.450,145242,(,0,0,2
6:43.508,145263,t,0,0,4
6:43.658,145317,t,0,0,4
6:43.694,145330,),0,0,2
6:43.981,145433,(,0,0,1
6:44.039,145454,N,0,0,0
6:44.164,145499,),0,0,1
6:44.172,145502,(,0,0,2
6:44.228,145522,t,0,0,4
6:44.383,145578,t,0,0,4
6:44.419,145591,),0,0,2
6:44.694,145690,(,0,0,1
6:44.750,145710,N,0,0,0
6:44.872,145754,),0,0,1
6:44.883,145758,(,0,0,2
6:44.942,145779,t,0,0,4
6:45.106,145838,t,0,0,4
6:45.147,145853,),0,0,2
6:45.411,145948,(,0,0,1
6:45.467,145968,N,0,0,0
6:45.589,146012,),0,0,1
6:45.600,146016,(,0,0,2
6:45.667,146040,t,0,0,4
6:45.819,146095,t,0,0,4
6:45.856,146108,),0,0,2
6:46.133,146208,(,0,0,1
6:46.192,146229,N,0,0,0
6:46.317,146274,),0,0,1
6:46.331,146279,(,0,0,2
6:46.383,146298,t,0,0,4
6:46.550,146358,t,0,0,4
6:46.594,146374,),0,0,2
6:46.850,146466,(,0,0,1
6:46.906,146486,N,0,0,0
6:47.017,146526,),0,0,1
6:47.028,146530,(,0,0,2
6:47.089,146552,t,0,0,4
6:47.242,146607,t,0,0,4
6:47.289,146624,),0,0,2
6:47.525,146709,(,0,0,1
6:47.611,146740,N,0,0,0
6:47.728,146782,),0,0,1
6:47.739,146786,(,0,0,2
6:47.803,146809,t,0,0,4
6:47.950,146862,t,0,0,4
6:47.994,146878,),0,0,2
6:48.267,146976,(,0,0,1
6:48.319,146995,N,0,0,0
6:48.428,147034,),0,0,1
6:48.433,147036,(,0,0,2
6:48.489,147056,t,0,0,4
6:48.636,147109,t,0,0,4
6:48.681,147125,),0,0,2
6:48.950,147222,(,0,0,1
6:49.003,147241,N,0,0,0
6:49.114,147281,),0,0,1
6:49.125,147285,(,0,0,2
6:49.183,147306,t,0,0,4
6:49.322,147356,t,0,0,4
6:49.361,147370,),0,0,2
6:49.622,147464,(,0,0,1
6:49.675,147483,N,0,0,0
6:49.792,147525,),0,0,1
6:49.806,147530,(,0,0,2
6:49.858,147549,t,0,0,4
6:50.019,147607,t,0,0,4
6:50.067,147624,),0,0,2
6:50.353,147727,(,0,0,1
6:50.414,147749,N,0,0,0
6:50.544,147796,),0,0,1
6:50.658,147837,(,0,0,2
6:50.783,147882,t,0,0,0
6:50.828,147898,),0,0,2
6:51.108,147999,(,0,0,1
6:51.164,148019,N,0,0,0
6:51.292,148065,),0,0,1
6:51.303,148069,(,0,0,2
6:51.367,148092,t,0,0,4
6:51.531,148151,t,0,0,4
6:51.575,148167,),0,0,2
6:51.839,148262,(,0,0,1
6:51.892,148281,N,0,0,0
6:52.003,148321,),0,0,1
6:52.011,148324,(,0,0,2
6:52.069,148345,t,0,0,4
6:52.228,148402,t,0,0,4
6:52.275,148419,),0,0,2
6:52.544,148516,(,0,0,1
6:52.600,148536,N,0,0,0
6:52.722,148580,),0,0,1
6:52.736,148585,(,0,0,2
6:52.800,148608,t,0,0,4
6:52.953,148663,t,0,0,4
6:52.997,148679,),0,0,2
6:53.258,148773,(,0,0,1
6:53.311,148792,N,0,0,0
6:53.422,148832,),0,0,1
6:53.431,148835,(,0,0,2
6:53.486,148855,t,0,0,4
6:53.642,148911,t,0,0,4
6:53.686,148927,),0,0,2
6:53.956,149024,(,0,0,1
6:54.011,149044,N,0,0,0
6:54.125,149085,),0,0,1
6:54.225,149121,(,0,0,2
6:54.339,149162,t,0,0,0
6:54.372,149174,),0,0,2
6:54.656,149276,(,0,0,1
6:54.711,149296,N,0,0,0
6:54.828,149338,),0,0,1
6:54.836,149341,(,0,0,2
6:54.889,149360,t,0,0,4
6:55.033,149412,t,0,0,4
6:55.075,149427,),0,0,2
6:55.331,149519,(,0,0,1
6:55.386,149539,N,0,0,0
6:55.500,149580,),0,0,1
6:55.511,149584,(,0,0,2
6:55.569,149605,t,0,0,4
6:55.714,149657,t,0,0,4
6:55.747,149669,),0,0,2
6:55.981,149753,(,0,0,1
6:56.069,149785,N,0,0,0
6:56.189,149828,),0,0,1
6:56.294,149866,(,0,0,2
6:56.417,149910,t,0,0,0
6:56.453,149923,),0,0,2
6:56.750,150030,(,0,0,1
6:56.811,150052,N,0,0,0
6:56.939,150098,),0,0,1
6:56.953,150103,(,0,0,2
6:57.014,150125,t,0,0,4
6:57.186,150187,t,0,0,4
6:57.231,150203,),0,0,2
6:57.508,150303,(,0,0,1
6:57.564,150323,N,0,0,0
6:57.683,150366,),0,0,1
6:57.694,150370,(,0,0,2
6:57.750,150390,t,0,0,4
6:57.917,150450,t,0,0,4
6:57.958,150465,),0,0,2
6:58.242,150567,(,0,0,1
6:58.294,150586,N,0,0,0
6:58.406,150626,),0,0,1
6:58.419,150631,(,0,0,2
6:58.469,150649,t,0,0,4
6:58.625,150705,t,0,0,4
6:58.667,150720,),0,0,2
6:58.933,150816,(,0,0,1
6:58.986,150835,N,0,0,0
6:59.097,150875,),0,0,1
6:59.106,150878,(,0,0,2
6:59.158,150897,t,0,0,4
6:59.317,150954,t,0,0,4
6:59.364,150971,),0,0,2
6:59.633,151068,(,0,0,1
6:59.686,151087,N,0,0,0
