Elapsedtime,sample,Type,Sub,Chan,Num
0:00.267, 96,(,0,0,0
0:00.308,111,p,0,0,0
0:00.383,138,),0,0,0
0:00.464,167,(,0,0,1
0:00.544,196,N,0,0,0
0:00.606,218,),0,0,1
0:00.678,244,(,0,0,2
0:00.772,278,t,0,0,0
0:00.853,307,),0,0,2
0:01.053,379,(,0,0,0
0:01.103,397,p,0,0,0
0:01.167,420,),0,0,0
0:01.256,452,(,0,0,1
0:01.353,487,N,0,0,0
0:01.419,511,),0,0,1
0:01.500,540,(,0,0,2
0:01.614,581,t,0,0,5
0:01.892,681,t,0,0,5
0:01.967,708,),0,0,2
0:02.131,767,(,0,0,1
0:02.225,801,N,0,0,0
0:02.297,827,),0,0,1
0:02.375,855,(,0,0,2
0:02.494,898,t,0,0,5
0:02.783,1002,t,0,0,5
0:02.847,1025,),0,0,2
0:03.017,1086,(,0,0,1
0:03.125,1125,N,0,0,0
0:03.197,1151,),0,0,1
0:03.289,1184,(,0,0,2
0:03.392,1221,t,0,0,0
0:03.483,1254,),0,0,2
0:03.683,1326,(,0,0,0
0:03.731,1343,p,0,0,0
0:03.794,1366,),0,0,0
0:03.847,1385,(,0,0,1
0:03.967,1428,N,0,0,0
0:04.031,1451,),0,0,1
0:04.136,1489,(,0,0,2
0:04.233,1524,t,0,0,0
0:04.300,1548,),0,0,2
0:04.539,1634,(,0,0,0
0:04.581,1649,p,0,0,0
0:04.664,1679,),0,0,0
0:04.731,1703,(,0,0,1
0:04.825,1737,N,0,0,0
0:04.889,1760,),0,0,1
0:04.986,1795,(,0,0,2
0:05.078,1828,t,0,0,0
0:05.156,1856,),0,0,2
0:05.378,1936,(,0,0,0
0:05.422,1952,p,0,0,0
0:05.506,1982,),0,0,0
0:05.581,2009,(,0,0,1
0:05.661,2038,N,0,0,0
0:05.722,2060,),0,0,1
0:05.808,2091,(,0,0,2
0:05.906,2126,t,0,0,0
0:05.978,2152,),0,0,2
0:06.211,2236,(,0,0,0
0:06.261,2254,p,0,0,0
0:06.328,2278,),0,0,0
0:06.422,2312,(,0,0,1
0:06.506,2342,N,0,0,0
0:06.567,2364,),0,0,1
0:06.644,2392,(,0,0,2
0:06.736,2425,t,0,0,5
0:06.994,2518,t,0,0,5
0:07.067,2544,),0,0,2
0:07.236,2605,(,0,0,1
0:07.331,2639,N,0,0,0
0:07.397,2663,),0,0,1
0:07.492,2697,(,0,0,2
0:07.597,2735,t,0,0,5
0:07.889,2840,t,0,0,5
0:07.953,2863,),0,0,2
0:08.133,2928,(,0,0,1
0:08.219,2959,N,0,0,0
0:08.289,2984,),0,0,1
0:08.392,3021,(,0,0,2
0:08.492,3057,t,0,0,5
0:08.775,3159,t,0,0,5
0:08.844,3184,),0,0,2
0:09.011,3244,(,0,0,1
0:09.100,3276,N,0,0,0
0:09.169,3301,),0,0,1
0:09.267,3336,(,0,0,2
0:09.367,3372,t,0,0,0
0:09.453,3403,),0,0,2
0:09.667,3480,(,0,0,0
0:09.719,3499,p,0,0,0
0:09.775,3519,),0,0,0
0:09.847,3545,(,0,0,1
0:09.936,3577,N,0,0,0
0:10.003,3601,),0,0,1
0:10.089,3632,(,0,0,2
0:10.194,3670,t,0,0,5
0:10.481,3773,t,0,0,5
0:10.539,3794,),0,0,2
0:10.708,3855,(,0,0,1
0:10.792,3885,N,0,0,0
0:10.856,3908,),0,0,1
0:10.925,3933,(,0,0,2
0:11.047,3977,t,0,0,5
0:11.325,4077,t,0,0,5
0:11.394,4102,),0,0,2
0:11.553,4159,(,0,0,1
0:11.647,4193,N,0,0,0
0:11.711,4216,),0,0,1
0:11.792,4245,(,0,0,2
0:11.894,4282,t,0,0,0
0:11.978,4312,),0,0,2
0:12.200,4392,(,0,0,0
0:12.233,4404,p,0,0,0
0:12.311,4432,),0,0,0
0:12.389,4460,(,0,0,1
0:12.478,4492,N,0,0,0
0:12.544,4516,),0,0,1
0:12.606,4538,(,0,0,2
0:12.717,4578,t,0,0,5
0:12.942,4659,t,0,0,5
0:13.036,4693,),0,0,2
0:13.200,4752,(,0,0,1
0:13.289,4784,N,0,0,0
0:13.358,4809,),0,0,1
0:13.456,4844,(,0,0,2
0:13.556,4880,t,0,0,5
0:13.844,4984,t,0,0,5
0:13.906,5006,),0,0,2
0:14.078,5068,(,0,0,1
0:14.164,5099,N,0,0,0
0:14.231,5123,),0,0,1
0:14.317,5154,(,0,0,2
0:14.431,5195,t,0,0,5
0:14.736,5305,t,0,0,5
0:14.792,5325,),0,0,2
0:14.953,5383,(,0,0,1
0:15.044,5416,N,0,0,0
0:15.114,5441,),0,0,1
0:15.197,5471,(,0,0,2
0:15.311,5512,t,0,0,0
0:15.394,5542,),0,0,2
0:15.622,5624,(,0,0,0
0:15.667,5640,p,0,0,0
0:15.742,5667,),0,0,0
0:15.814,5693,(,0,0,1
0:15.897,5723,N,0,0,0
0:15.967,5748,),0,0,1
0:16.042,5775,(,0,0,2
0:16.161,5818,t,0,0,5
0:16.442,5919,t,0,0,5
0:16.522,5948,),0,0,2
0:16.700,6012,(,0,0,1
0:16.783,6042,N,0,0,0
0:16.850,6066,),0,0,1
0:16.933,6096,(,0,0,2
0:17.033,6132,t,0,0,5
0:17.294,6226,t,0,0,5
0:17.358,6249,),0,0,2
0:17.508,6303,(,0,0,1
0:17.614,6341,N,0,0,0
0:17.678,6364,),0,0,1
0:17.750,6390,(,0,0,2
0:17.853,6427,t,0,0,0
0:17.931,6455,),0,0,2
0:18.144,6532,(,0,0,0
0:18.192,6549,p,0,0,0
0:18.264,6575,),0,0,0
0:18.347,6605,(,0,0,1
0:18.433,6636,N,0,0,0
0:18.494,6658,),0,0,1
0:18.569,6685,(,0,0,2
0:18.669,6721,t,0,0,5
0:18.928,6814,t,0,0,5
0:18.994,6838,),0,0,2
0:19.172,6902,(,0,0,1
0:19.256,6932,N,0,0,0
0:19.322,6956,),0,0,1
0:19.422,6992,(,0,0,2
0:19.519,7027,t,0,0,5
0:19.825,7137,t,0,0,5
0:19.889,7160,),0,0,2
0:20.067,7224,(,0,0,1
0:20.164,7259,N,0,0,0
0:20.233,7284,),0,0,1
0:20.311,7312,(,0,0,2
0:20.428,7354,t,0,0,5
0:20.711,7456,t,0,0,5
0:20.783,7482,),0,0,2
0:20.950,7542,(,0,0,1
0:21.044,7576,N,0,0,0
0:21.117,7602,),0,0,1
0:21.200,7632,(,0,0,2
0:21.317,7674,t,0,0,0
0:21.403,7705,),0,0,2
0:21.628,7786,(,0,0,0
0:21.672,7802,p,0,0,0
0:21.736,7825,),0,0,0
0:21.819,7855,(,0,0,1
0:21.894,7882,N,0,0,0
0:21.964,7907,),0,0,1
0:22.053,7939,(,0,0,2
0:22.156,7976,t,0,0,0
0:22.242,8007,),0,0,2
0:22.453,8083,(,0,0,0
0:22.506,8102,p,0,0,0
0:22.569,8125,),0,0,0
0:22.669,8161,(,0,0,1
0:22.758,8193,N,0,0,0
0:22.825,8217,),0,0,1
0:22.903,8245,(,0,0,2
0:23.011,8284,t,0,0,0
0:23.083,8310,),0,0,2
0:23.314,8393,(,0,0,0
0:23.358,8409,p,0,0,0
0:23.436,8437,),0,0,0
0:23.519,8467,(,0,0,1
0:23.603,8497,N,0,0,0
0:23.667,8520,),0,0,1
0:23.753,8551,(,0,0,2
0:23.847,8585,t,0,0,5
0:24.108,8679,t,0,0,5
0:24.192,8709,),0,0,2
0:24.353,8767,(,0,0,1
0:24.444,8800,N,0,0,0
0:24.508,8823,),0,0,1
0:24.594,8854,(,0,0,2
0:24.683,8886,t,0,0,5
0:24.950,8982,t,0,0,5
0:25.019,9007,),0,0,2
0:25.183,9066,(,0,0,1
0:25.283,9102,N,0,0,0
0:25.353,9127,),0,0,1
0:25.442,9159,(,0,0,2
0:25.544,9196,t,0,0,5
0:25.833,9300,t,0,0,5
0:25.908,9327,),0,0,2
0:26.081,9389,(,0,0,1
0:26.169,9421,N,0,0,0
0:26.239,9446,),0,0,1
0:26.322,9476,(,0,0,2
0:26.431,9515,t,0,0,5
0:26.714,9617,t,0,0,5
0:26.775,9639,),0,0,2
0:26.906,9686,(,0,0,1
0:27.031,9731,N,0,0,0
0:27.100,9756,),0,0,1
0:27.181,9785,(,0,0,2
0:27.292,9825,t,0,0,0
0:27.372,9854,),0,0,2
0:27.611,9940,(,0,0,0
0:27.658,9957,p,0,0,0
0:27.725,9981,),0,0,0
0:27.811,10012,(,0,0,1
0:27.889,10040,N,0,0,0
0:27.958,10065,),0,0,1
0:28.044,10096,(,0,0,2
0:28.156,10136,t,0,0,5
0:28.453,10243,t,0,0,5
0:28.519,10267,),0,0,2
0:28.692,10329,(,0,0,1
0:28.778,10360,N,0,0,0
0:28.842,10383,),0,0,1
0:28.931,10415,(,0,0,2
0:29.025,10449,t,0,0,5
0:29.306,10550,t,0,0,5
0:29.369,10573,),0,0,2
0:29.539,10634,(,0,0,1
0:29.633,10668,N,0,0,0
0:29.694,10690,),0,0,1
0:29.783,10722,(,0,0,2
0:29.872,10754,t,0,0,0
0:29.953,10783,),0,0,2
0:30.161,10858,(,0,0,0
0:30.206,10874,p,0,0,0
0:30.275,10899,),0,0,0
0:30.367,10932,(,0,0,1
0:30.467,10968,N,0,0,0
0:30.531,10991,),0,0,1
0:30.625,11025,(,0,0,2
0:30.708,11055,t,0,0,5
0:30.967,11148,t,0,0,5
0:31.031,11171,),0,0,2
0:31.047,11177,(,0,0,0
0:31.161,11218,p,0,0,0
0:31.203,11233,),0,0,0
0:31.225,11241,(,0,0,1
0:31.314,11273,N,0,0,0
0:31.381,11297,),0,0,1
0:31.478,11332,(,0,0,2
0:31.583,11370,t,0,0,5
0:31.864,11471,t,0,0,5
0:31.947,11501,),0,0,2
0:32.133,11568,(,0,0,1
0:32.225,11601,N,0,0,0
0:32.297,11627,),0,0,1
0:32.389,11660,(,0,0,2
0:32.497,11699,t,0,0,5
0:32.797,11807,t,0,0,5
0:32.867,11832,),0,0,2
0:33.050,11898,(,0,0,1
0:33.147,11933,N,0,0,0
0:33.217,11958,),0,0,1
0:33.317,11994,(,0,0,2
0:33.419,12031,t,0,0,0
0:33.503,12061,),0,0,2
0:33.736,12145,(,0,0,0
0:33.786,12163,p,0,0,0
0:33.853,12187,),0,0,0
0:33.939,12218,(,0,0,1
0:34.031,12251,N,0,0,0
0:34.097,12275,),0,0,1
0:34.189,12308,(,0,0,2
0:34.292,12345,t,0,0,5
0:34.597,12455,t,0,0,5
0:34.650,12474,),0,0,2
0:34.836,12541,(,0,0,1
0:34.919,12571,N,0,0,0
0:34.986,12595,),0,0,1
0:35.069,12625,(,0,0,2
0:35.167,12660,t,0,0,5
0:35.475,12771,t,0,0,5
0:35.528,12790,),0,0,2
0:35.708,12855,(,0,0,1
0:35.794,12886,N,0,0,0
0:35.861,12910,),0,0,1
0:35.931,12935,(,0,0,2
0:36.044,12976,t,0,0,5
0:36.319,13075,t,0,0,5
0:36.386,13099,),0,0,2
0:36.544,13156,(,0,0,1
0:36.650,13194,N,0,0,0
0:36.714,13217,),0,0,1
0:36.786,13243,(,0,0,2
0:36.892,13281,t,0,0,5
0:37.186,13387,t,0,0,5
0:37.258,13413,),0,0,2
0:37.442,13479,(,0,0,1
0:37.528,13510,N,0,0,0
0:37.600,13536,),0,0,1
0:37.689,13568,(,0,0,2
0:37.803,13609,t,0,0,5
0:38.072,13706,t,0,0,5
0:38.183,13746,),0,0,2
0:38.367,13812,(,0,0,1
0:38.453,13843,N,0,0,0
0:38.519,13867,),0,0,1
0:38.603,13897,(,0,0,2
0:38.711,13936,t,0,0,5
0:38.992,14037,t,0,0,5
0:39.075,14067,),0,0,2
0:39.231,14123,(,0,0,1
0:39.347,14165,N,0,0,0
0:39.414,14189,),0,0,1
0:39.489,14216,(,0,0,2
0:39.608,14259,t,0,0,5
0:39.883,14358,t,0,0,5
0:39.953,14383,),0,0,2
0:40.131,14447,(,0,0,1
0:40.217,14478,N,0,0,0
0:40.283,14502,),0,0,1
0:40.353,14527,(,0,0,2
0:40.469,14569,t,0,0,0
0:40.556,14600,),0,0,2
0:40.792,14685,(,0,0,0
0:40.842,14703,p,0,0,0
0:40.908,14727,),0,0,0
0:41.017,14766,(,0,0,1
0:41.103,14797,N,0,0,0
0:41.169,14821,),0,0,1
0:41.244,14848,(,0,0,2
0:41.353,14887,t,0,0,0
0:41.433,14916,),0,0,2
0:41.633,14988,(,0,0,0
0:41.686,15007,p,0,0,0
0:41.744,15028,),0,0,0
0:41.847,15065,(,0,0,1
0:41.944,15100,N,0,0,0
0:42.011,15124,),0,0,1
0:42.092,15153,(,0,0,2
0:42.197,15191,t,0,0,0
0:42.281,15221,),0,0,2
0:42.506,15302,(,0,0,0
0:42.544,15316,p,0,0,0
0:42.619,15343,),0,0,0
0:42.703,15373,(,0,0,1
0:42.781,15401,N,0,0,0
0:42.839,15422,),0,0,1
0:42.928,15454,(,0,0,2
0:43.028,15490,t,0,0,0
0:43.103,15517,),0,0,2
0:43.350,15606,(,0,0,0
0:43.394,15622,p,0,0,0
0:43.475,15651,),0,0,0
0:43.567,15684,(,0,0,1
0:43.656,15716,N,0,0,0
0:43.728,15742,),0,0,1
0:43.825,15777,(,0,0,2
0:43.919,15811,t,0,0,5
0:44.017,15846,t,0,0,5
0:44.264,15935,),0,0,2
0:44.442,15999,(,0,0,1
0:44.531,16031,N,0,0,0
0:44.600,16056,),0,0,1
0:44.708,16095,(,0,0,2
0:44.806,16130,t,0,0,5
0:45.106,16238,t,0,0,5
0:45.169,16261,),0,0,2
0:45.331,16319,(,0,0,1
0:45.439,16358,N,0,0,0
0:45.508,16383,),0,0,1
0:45.603,16417,(,0,0,2
0:45.694,16450,t,0,0,5
0:45.942,16539,t,0,0,5
0:46.017,16566,),0,0,2
0:46.189,16628,(,0,0,1
0:46.281,16661,N,0,0,0
0:46.350,16686,),0,0,1
0:46.442,16719,(,0,0,2
0:46.547,16757,t,0,0,5
0:46.817,16854,t,0,0,5
0:46.881,16877,),0,0,2
0:47.056,16940,(,0,0,1
0:47.142,16971,N,0,0,0
0:47.208,16995,),0,0,1
0:47.303,17029,(,0,0,2
0:47.400,17064,t,0,0,5
0:47.658,17157,t,0,0,5
0:47.714,17177,),0,0,2
0:47.842,17223,(,0,0,1
0:47.975,17271,N,0,0,0
0:48.042,17295,),0,0,1
0:48.144,17332,(,0,0,2
0:48.233,17364,t,0,0,0
0:48.311,17392,),0,0,2
0:48.522,17468,(,0,0,0
0:48.558,17481,p,0,0,0
0:48.664,17519,),0,0,0
0:48.678,17524,(,0,0,1
0:48.789,17564,N,0,0,0
0:48.844,17584,),0,0,1
0:48.931,17615,(,0,0,2
0:49.036,17653,t,0,0,5
0:49.325,17757,t,0,0,5
0:49.392,17781,),0,0,2
0:49.600,17856,(,0,0,1
0:49.681,17885,N,0,0,0
0:49.742,17907,),0,0,1
0:49.811,17932,(,0,0,2
0:49.928,17974,t,0,0,5
0:50.194,18070,t,0,0,5
0:50.286,18103,),0,0,2
0:50.306,18110,(,0,0,0
0:50.364,18131,p,0,0,0
0:50.442,18159,),0,0,0
0:50.464,18167,(,0,0,1
0:50.614,18221,N,0,0,0
0:50.642,18231,),0,0,1
0:50.678,18244,(,0,0,2
0:50.808,18291,t,0,0,0
0:50.889,18320,),0,0,2
0:51.108,18399,(,0,0,0
0:51.164,18419,p,0,0,0
0:51.222,18440,),0,0,0
0:51.339,18482,(,0,0,1
0:51.428,18514,N,0,0,0
0:51.497,18539,),0,0,1
0:51.572,18566,(,0,0,2
0:51.678,18604,t,0,0,5
0:51.950,18702,t,0,0,5
0:52.014,18725,),0,0,2
0:52.189,18788,(,0,0,1
0:52.275,18819,N,0,0,0
0:52.342,18843,),0,0,1
0:52.419,18871,(,0,0,2
0:52.522,18908,t,0,0,0
0:52.625,18945,),0,0,2
0:52.842,19023,(,0,0,0
0:52.900,19044,p,0,0,0
0:52.967,19068,),0,0,0
0:53.050,19098,(,0,0,1
0:53.169,19141,N,0,0,0
0:53.233,19164,),0,0,1
0:53.317,19194,(,0,0,2
0:53.422,19232,t,0,0,0
0:53.503,19261,),0,0,2
0:53.728,19342,(,0,0,0
0:53.772,19358,p,0,0,0
0:53.847,19385,),0,0,0
0:53.936,19417,(,0,0,1
0:54.022,19448,N,0,0,0
0:54.086,19471,),0,0,1
0:54.178,19504,(,0,0,2
0:54.275,19539,t,0,0,0
0:54.350,19566,),0,0,2
0:54.575,19647,(,0,0,0
0:54.622,19664,p,0,0,0
0:54.672,19682,),0,0,0
0:54.778,19720,(,0,0,1
0:54.856,19748,N,0,0,0
0:54.919,19771,),0,0,1
0:55.014,19805,(,0,0,2
0:55.111,19840,t,0,0,5
0:55.406,19946,t,0,0,5
0:55.472,19970,),0,0,2
0:55.633,20028,(,0,0,1
0:55.744,20068,N,0,0,0
0:55.814,20093,),0,0,1
0:55.892,20121,(,0,0,2
0:56.011,20164,t,0,0,5
0:56.308,20271,t,0,0,5
0:56.372,20294,),0,0,2
0:56.553,20359,(,0,0,1
0:56.647,20393,N,0,0,0
0:56.717,20418,),0,0,1
0:56.797,20447,(,0,0,2
0:56.908,20487,t,0,0,5
0:57.219,20599,t,0,0,5
0:57.286,20623,),0,0,2
0:57.458,20685,(,0,0,1
0:57.550,20718,N,0,0,0
0:57.622,20744,),0,0,1
0:57.669,20761,(,0,0,2
0:57.800,20808,t,0,0,0
0:57.872,20834,),0,0,2
0:58.117,20922,(,0,0,0
0:58.164,20939,p,0,0,0
0:58.247,20969,),0,0,0
0:58.328,20998,(,0,0,1
0:58.419,21031,N,0,0,0
0:58.486,21055,),0,0,1
0:58.575,21087,(,0,0,2
0:58.678,21124,t,0,0,0
0:58.767,21156,),0,0,2
0:58.989,21236,(,0,0,0
0:59.050,21258,p,0,0,0
0:59.114,21281,),0,0,0
0:59.175,21303,(,0,0,1
0:59.292,21345,N,0,0,0
0:59.358,21369,),0,0,1
0:59.431,21395,(,0,0,2
0:59.539,21434,t,0,0,0
0:59.622,21464,),0,0,2
0:59.847,21545,(,0,0,0
0:59.889,21560,p,0,0,0
0:59.961,21586,),0,0,0
1:00.064,21623,(,0,0,1
1:00.142,21651,N,0,0,0
1:00.206,21674,),0,0,1
1:00.314,21713,(,0,0,2
1:00.392,21741,t,0,0,5
1:00.667,21840,t,0,0,5
1:00.725,21861,),0,0,2
1:00.889,21920,(,0,0,1
1:00.978,21952,N,0,0,0
1:01.044,21976,),0,0,1
1:01.167,22020,(,0,0,2
1:01.247,22049,t,0,0,0
1:01.322,22076,),0,0,2
1:01.567,22164,(,0,0,0
1:01.622,22184,p,0,0,0
1:01.700,22212,),0,0,0
1:01.800,22248,(,0,0,1
1:01.897,22283,N,0,0,0
1:01.967,22308,),0,0,1
1:02.081,22349,(,0,0,2
1:02.178,22384,t,0,0,0
1:02.267,22416,),0,0,2
1:02.497,22499,(,0,0,0
1:02.550,22518,p,0,0,0
1:02.611,22540,),0,0,0
1:02.719,22579,(,0,0,1
1:02.814,22613,N,0,0,0
1:02.881,22637,),0,0,1
1:02.975,22671,(,0,0,2
1:03.086,22711,t,0,0,5
1:03.389,22820,t,0,0,5
1:03.467,22848,),0,0,2
1:03.481,22853,(,0,0,0
1:03.581,22889,p,0,0,0
1:03.611,22900,),0,0,0
1:03.631,22907,(,0,0,1
1:03.722,22940,N,0,0,0
1:03.789,22964,),0,0,1
1:03.847,22985,(,0,0,2
1:03.953,23023,t,0,0,0
1:04.042,23055,),0,0,2
1:04.289,23144,(,0,0,0
1:04.333,23160,p,0,0,0
1:04.400,23184,),0,0,0
1:04.492,23217,(,0,0,1
1:04.586,23251,N,0,0,0
1:04.656,23276,),0,0,1
1:04.728,23302,(,0,0,2
1:04.842,23343,t,0,0,0
1:04.914,23369,),0,0,2
1:05.153,23455,(,0,0,0
1:05.203,23473,p,0,0,0
1:05.283,23502,),0,0,0
1:05.378,23536,(,0,0,1
1:05.458,23565,N,0,0,0
1:05.522,23588,),0,0,1
1:05.592,23613,(,0,0,2
1:05.697,23651,t,0,0,5
1:05.969,23749,t,0,0,5
1:06.053,23779,),0,0,2
1:06.228,23842,(,0,0,1
1:06.317,23874,N,0,0,0
1:06.383,23898,),0,0,1
1:06.458,23925,(,0,0,2
1:06.561,23962,t,0,0,5
1:06.844,24064,t,0,0,5
1:06.900,24084,),0,0,2
1:07.078,24148,(,0,0,1
1:07.167,24180,N,0,0,0
1:07.239,24206,),0,0,1
1:07.311,24232,(,0,0,2
1:07.433,24276,t,0,0,5
1:07.736,24385,t,0,0,5
1:07.800,24408,),0,0,2
1:07.964,24467,(,0,0,1
1:08.056,24500,N,0,0,0
1:08.128,24526,),0,0,1
1:08.194,24550,(,0,0,2
1:08.325,24597,t,0,0,0
1:08.414,24629,),0,0,2
1:08.669,24721,(,0,0,0
1:08.714,24737,p,0,0,0
1:08.783,24762,),0,0,0
1:08.875,24795,(,0,0,1
1:08.964,24827,N,0,0,0
1:09.028,24850,),0,0,1
1:09.114,24881,(,0,0,2
1:09.225,24921,t,0,0,0
1:09.306,24950,),0,0,2
1:09.528,25030,(,0,0,0
1:09.583,25050,p,0,0,0
1:09.636,25069,),0,0,0
1:09.744,25108,(,0,0,1
1:09.819,25135,N,0,0,0
1:09.878,25156,),0,0,1
1:09.986,25195,(,0,0,2
1:10.072,25226,t,0,0,5
1:10.369,25333,t,0,0,5
1:10.436,25357,),0,0,2
1:10.600,25416,(,0,0,1
1:10.700,25452,N,0,0,0
1:10.769,25477,),0,0,1
1:10.853,25507,(,0,0,2
1:10.956,25544,t,0,0,5
1:11.250,25650,t,0,0,5
1:11.306,25670,),0,0,2
1:11.483,25734,(,0,0,1
1:11.567,25764,N,0,0,0
1:11.633,25788,),0,0,1
1:11.708,25815,(,0,0,2
1:11.811,25852,t,0,0,5
1:11.911,25888,t,0,0,5
1:12.142,25971,),0,0,2
1:12.317,26034,(,0,0,1
1:12.397,26063,N,0,0,0
1:12.464,26087,),0,0,1
1:12.550,26118,(,0,0,2
1:12.642,26151,t,0,0,5
1:12.872,26234,t,0,0,5
1:12.975,26271,),0,0,2
1:13.147,26333,(,0,0,1
1:13.244,26368,N,0,0,0
1:13.311,26392,),0,0,1
1:13.417,26430,(,0,0,2
1:13.511,26464,t,0,0,0
1:13.594,26494,),0,0,2
1:13.828,26578,(,0,0,0
1:13.883,26598,p,0,0,0
1:13.956,26624,),0,0,0
1:14.056,26660,(,0,0,1
1:14.147,26693,N,0,0,0
1:14.217,26718,),0,0,1
1:14.300,26748,(,0,0,2
1:14.411,26788,t,0,0,5
1:14.731,26903,t,0,0,5
1:14.808,26931,),0,0,2
1:14.958,26985,(,0,0,1
1:15.081,27029,N,0,0,0
1:15.150,27054,),0,0,1
1:15.228,27082,(,0,0,2
1:15.342,27123,t,0,0,0
1:15.444,27160,),0,0,2
1:15.686,27247,(,0,0,0
1:15.728,27262,p,0,0,0
1:15.792,27285,),0,0,0
1:15.836,27301,(,0,0,1
1:15.981,27353,N,0,0,0
1:16.044,27376,),0,0,1
1:16.117,27402,(,0,0,2
1:16.236,27445,t,0,0,0
1:16.331,27479,),0,0,2
1:16.569,27565,(,0,0,0
1:16.608,27579,p,0,0,0
1:16.683,27606,),0,0,0
1:16.781,27641,(,0,0,1
1:16.867,27672,N,0,0,0
1:16.931,27695,),0,0,1
1:17.019,27727,(,0,0,2
1:17.119,27763,t,0,0,0
1:17.197,27791,),0,0,2
1:17.436,27877,(,0,0,0
1:17.486,27895,p,0,0,0
1:17.539,27914,),0,0,0
1:17.647,27953,(,0,0,1
1:17.725,27981,N,0,0,0
1:17.789,28004,),0,0,1
1:17.864,28031,(,0,0,2
1:17.972,28070,t,0,0,5
1:18.289,28184,t,0,0,5
1:18.353,28207,),0,0,2
1:18.522,28268,(,0,0,1
1:18.606,28298,N,0,0,0
1:18.669,28321,),0,0,1
1:18.736,28345,(,0,0,2
1:18.842,28383,t,0,0,0
1:18.925,28413,),0,0,2
1:19.183,28506,(,0,0,0
1:19.233,28524,p,0,0,0
1:19.308,28551,),0,0,0
1:19.403,28585,(,0,0,1
1:19.497,28619,N,0,0,0
1:19.564,28643,),0,0,1
1:19.633,28668,(,0,0,2
1:19.756,28712,t,0,0,5
1:20.075,28827,t,0,0,5
1:20.150,28854,),0,0,2
1:20.336,28921,(,0,0,1
1:20.422,28952,N,0,0,0
1:20.492,28977,),0,0,1
1:20.564,29003,(,0,0,2
1:20.675,29043,t,0,0,0
1:20.767,29076,),0,0,2
1:21.006,29162,(,0,0,0
1:21.058,29181,p,0,0,0
1:21.125,29205,),0,0,0
1:21.222,29240,(,0,0,1
1:21.336,29281,N,0,0,0
1:21.403,29305,),0,0,1
1:21.483,29334,(,0,0,2
1:21.586,29371,t,0,0,5
1:21.819,29455,t,0,0,5
1:21.906,29486,),0,0,2
1:22.089,29552,(,0,0,1
1:22.186,29587,N,0,0,0
1:22.253,29611,),0,0,1
1:22.322,29636,(,0,0,2
1:22.442,29679,t,0,0,5
1:22.717,29778,t,0,0,5
1:22.797,29807,),0,0,2
1:22.967,29868,(,0,0,1
1:23.058,29901,N,0,0,0
1:23.122,29924,),0,0,1
1:23.222,29960,(,0,0,2
1:23.314,29993,t,0,0,5
1:23.578,30088,t,0,0,5
1:23.664,30119,),0,0,2
1:23.825,30177,(,0,0,1
1:23.919,30211,N,0,0,0
1:23.986,30235,),0,0,1
1:24.067,30264,(,0,0,2
1:24.175,30303,t,0,0,0
1:24.267,30336,),0,0,2
1:24.500,30420,(,0,0,0
1:24.539,30434,p,0,0,0
1:24.603,30457,),0,0,0
1:24.703,30493,(,0,0,1
1:24.783,30522,N,0,0,0
1:24.842,30543,),0,0,1
1:24.914,30569,(,0,0,2
1:25.022,30608,t,0,0,5
1:25.275,30699,t,0,0,5
1:25.372,30734,),0,0,2
1:25.533,30792,(,0,0,1
1:25.647,30833,N,0,0,0
1:25.714,30857,),0,0,1
1:25.800,30888,(,0,0,2
1:25.911,30928,t,0,0,5
1:26.178,31024,t,0,0,5
1:26.267,31056,),0,0,2
1:26.456,31124,(,0,0,1
1:26.547,31157,N,0,0,0
1:26.617,31182,),0,0,1
1:26.694,31210,(,0,0,2
1:26.814,31253,t,0,0,5
1:27.131,31367,t,0,0,5
1:27.192,31389,),0,0,2
1:27.386,31459,(,0,0,1
1:27.483,31494,N,0,0,0
1:27.553,31519,),0,0,1
1:27.631,31547,(,0,0,2
1:27.733,31584,t,0,0,0
1:27.822,31616,),0,0,2
1:28.058,31701,(,0,0,0
1:28.097,31715,p,0,0,0
1:28.156,31736,),0,0,0
1:28.253,31771,(,0,0,1
1:28.364,31811,N,0,0,0
1:28.431,31835,),0,0,1
1:28.489,31856,(,0,0,2
1:28.617,31902,t,0,0,5
1:28.928,32014,t,0,0,5
1:28.986,32035,),0,0,2
1:29.158,32097,(,0,0,1
1:29.244,32128,N,0,0,0
1:29.306,32150,),0,0,1
1:29.375,32175,(,0,0,2
1:29.478,32212,t,0,0,5
1:29.753,32311,t,0,0,5
1:29.850,32346,),0,0,2
1:30.003,32401,(,0,0,1
1:30.103,32437,N,0,0,0
1:30.172,32462,),0,0,1
1:30.236,32485,(,0,0,2
1:30.350,32526,t,0,0,0
1:30.442,32559,),0,0,2
1:30.661,32638,(,0,0,0
1:30.711,32656,p,0,0,0
1:30.764,32675,),0,0,0
1:30.844,32704,(,0,0,1
1:30.947,32741,N,0,0,0
1:31.011,32764,),0,0,1
1:31.081,32789,(,0,0,2
1:31.197,32831,t,0,0,5
1:31.514,32945,t,0,0,5
1:31.581,32969,),0,0,2
1:31.772,33038,(,0,0,1
1:31.861,33070,N,0,0,0
1:31.933,33096,),0,0,1
1:32.003,33121,(,0,0,2
1:32.125,33165,t,0,0,5
1:32.403,33265,t,0,0,5
1:32.503,33301,),0,0,2
1:32.517,33306,(,0,0,0
1:32.631,33347,p,0,0,0
1:32.647,33353,),0,0,0
1:32.683,33366,(,0,0,1
1:32.783,33402,N,0,0,0
1:32.850,33426,),0,0,1
1:32.922,33452,(,0,0,2
1:33.050,33498,t,0,0,5
1:33.353,33607,t,0,0,5
1:33.408,33627,),0,0,2
1:33.589,33692,(,0,0,1
1:33.678,33724,N,0,0,0
1:33.742,33747,),0,0,1
1:33.839,33782,(,0,0,2
1:33.914,33809,t,0,0,5
1:34.019,33847,t,0,0,5
1:34.258,33933,),0,0,2
1:34.425,33993,(,0,0,1
1:34.522,34028,N,0,0,0
1:34.586,34051,),0,0,1
1:34.706,34094,(,0,0,2
1:34.778,34120,t,0,0,0
1:34.861,34150,),0,0,2
1:35.067,34224,(,0,0,0
1:35.117,34242,p,0,0,0
1:35.178,34264,),0,0,0
1:35.289,34304,(,0,0,1
1:35.372,34334,N,0,0,0
1:35.439,34358,),0,0,1
1:35.550,34398,(,0,0,2
1:35.631,34427,t,0,0,0
1:35.717,34458,),0,0,2
1:35.931,34535,(,0,0,0
1:35.978,34552,p,0,0,0
1:36.058,34581,),0,0,0
1:36.144,34612,(,0,0,1
1:36.239,34646,N,0,0,0
1:36.306,34670,),0,0,1
1:36.394,34702,(,0,0,2
1:36.494,34738,t,0,0,5
1:36.764,34835,t,0,0,5
1:36.819,34855,),0,0,2
1:36.992,34917,(,0,0,1
1:37.083,34950,N,0,0,0
1:37.150,34974,),0,0,1
1:37.247,35009,(,0,0,2
1:37.350,35046,t,0,0,5
1:37.653,35155,t,0,0,5
1:37.714,35177,),0,0,2
1:37.906,35246,(,0,0,1
1:37.986,35275,N,0,0,0
1:38.053,35299,),0,0,1
1:38.133,35328,(,0,0,2
1:38.247,35369,t,0,0,0
1:38.336,35401,),0,0,2
1:38.586,35491,(,0,0,0
1:38.636,35509,p,0,0,0
1:38.703,35533,),0,0,0
1:38.811,35572,(,0,0,1
1:38.897,35603,N,0,0,0
1:38.967,35628,),0,0,1
1:39.044,35656,(,0,0,2
1:39.164,35699,t,0,0,0
1:39.239,35726,),0,0,2
1:39.486,35815,(,0,0,0
1:39.536,35833,p,0,0,0
1:39.606,35858,),0,0,0
1:39.667,35880,(,0,0,1
1:39.786,35923,N,0,0,0
1:39.853,35947,),0,0,1
1:39.908,35967,(,0,0,2
1:40.031,36011,t,0,0,5
1:40.319,36115,t,0,0,5
1:40.406,36146,),0,0,2
1:40.575,36207,(,0,0,1
1:40.667,36240,N,0,0,0
1:40.733,36264,),0,0,1
1:40.806,36290,(,0,0,2
1:40.919,36331,t,0,0,5
1:41.197,36431,t,0,0,5
1:41.289,36464,),0,0,2
1:41.464,36527,(,0,0,1
1:41.553,36559,N,0,0,0
1:41.619,36583,),0,0,1
1:41.686,36607,(,0,0,2
1:41.794,36646,t,0,0,0
1:41.886,36679,),0,0,2
1:42.108,36759,(,0,0,0
1:42.156,36776,p,0,0,0
1:42.214,36797,),0,0,0
1:42.319,36835,(,0,0,1
1:42.403,36865,N,0,0,0
1:42.481,36893,),0,0,1
1:42.550,36918,(,0,0,2
1:42.650,36954,t,0,0,0
1:42.733,36984,),0,0,2
1:42.961,37066,(,0,0,0
1:43.000,37080,p,0,0,0
1:43.078,37108,),0,0,0
1:43.133,37128,(,0,0,1
1:43.244,37168,N,0,0,0
1:43.317,37194,),0,0,1
1:43.381,37217,(,0,0,2
1:43.511,37264,t,0,0,5
1:43.828,37378,t,0,0,5
1:43.886,37399,),0,0,2
1:44.058,37461,(,0,0,1
1:44.156,37496,N,0,0,0
1:44.194,37510,),0,0,1
1:44.289,37544,(,0,0,2
1:44.422,37592,t,0,0,0
1:44.508,37623,),0,0,2
1:44.772,37718,(,0,0,0
1:44.814,37733,p,0,0,0
1:44.892,37761,),0,0,0
1:44.978,37792,(,0,0,1
1:45.067,37824,N,0,0,0
1:45.133,37848,),0,0,1
1:45.200,37872,(,0,0,2
1:45.328,37918,t,0,0,0
1:45.417,37950,),0,0,2
1:45.647,38033,(,0,0,0
1:45.697,38051,p,0,0,0
1:45.775,38079,),0,0,0
1:45.853,38107,(,0,0,1
1:45.925,38133,N,0,0,0
1:45.997,38159,),0,0,1
1:46.081,38189,(,0,0,2
1:46.183,38226,t,0,0,0
1:46.275,38259,),0,0,2
1:46.469,38329,(,0,0,0
1:46.517,38346,p,0,0,0
1:46.614,38381,),0,0,0
1:46.664,38399,(,0,0,1
1:46.756,38432,N,0,0,0
1:46.825,38457,),0,0,1
1:46.906,38486,(,0,0,2
1:47.014,38525,t,0,0,0
1:47.092,38553,),0,0,2
1:47.314,38633,(,0,0,0
1:47.350,38646,p,0,0,0
1:47.431,38675,),0,0,0
1:47.500,38700,(,0,0,1
1:47.589,38732,N,0,0,0
1:47.658,38757,),0,0,1
1:47.739,38786,(,0,0,2
1:47.842,38823,t,0,0,0
1:47.931,38855,),0,0,2
1:48.142,38931,(,0,0,0
1:48.186,38947,p,0,0,0
1:48.250,38970,),0,0,0
1:48.336,39001,(,0,0,1
1:48.428,39034,N,0,0,0
1:48.492,39057,),0,0,1
1:48.575,39087,(,0,0,2
1:48.672,39122,t,0,0,0
1:48.733,39144,),0,0,2
1:48.958,39225,(,0,0,0
1:49.000,39240,p,0,0,0
1:49.075,39267,),0,0,0
1:49.161,39298,(,0,0,1
1:49.264,39335,N,0,0,0
1:49.333,39360,),0,0,1
1:49.433,39396,(,0,0,2
1:49.533,39432,t,0,0,5
1:49.833,39540,t,0,0,5
1:49.903,39565,),0,0,2
1:50.075,39627,(,0,0,1
1:50.181,39665,N,0,0,0
1:50.250,39690,),0,0,1
1:50.347,39725,(,0,0,2
1:50.439,39758,t,0,0,0
1:50.519,39787,),0,0,2
1:50.747,39869,(,0,0,0
1:50.806,39890,p,0,0,0
1:50.900,39924,),0,0,0
1:50.956,39944,(,0,0,1
1:51.069,39985,N,0,0,0
1:51.142,40011,),0,0,1
1:51.231,40043,(,0,0,2
1:51.336,40081,t,0,0,0
1:51.422,40112,),0,0,2
1:51.664,40199,(,0,0,0
1:51.706,40214,p,0,0,0
1:51.769,40237,),0,0,0
1:51.839,40262,(,0,0,1
1:51.933,40296,N,0,0,0
1:52.006,40322,),0,0,1
1:52.089,40352,(,0,0,2
1:52.189,40388,t,0,0,0
1:52.283,40422,),0,0,2
1:52.506,40502,(,0,0,0
1:52.558,40521,p,0,0,0
1:52.625,40545,),0,0,0
1:52.725,40581,(,0,0,1
1:52.819,40615,N,0,0,0
1:52.886,40639,),0,0,1
1:52.964,40667,(,0,0,2
1:53.072,40706,t,0,0,0
1:53.169,40741,),0,0,2
1:53.403,40825,(,0,0,0
1:53.450,40842,p,0,0,0
1:53.514,40865,),0,0,0
1:53.597,40895,(,0,0,1
1:53.692,40929,N,0,0,0
1:53.758,40953,),0,0,1
1:53.842,40983,(,0,0,2
1:53.936,41017,t,0,0,0
1:54.017,41046,),0,0,2
1:54.261,41134,(,0,0,0
1:54.314,41153,p,0,0,0
1:54.378,41176,),0,0,0
1:54.461,41206,(,0,0,1
1:54.556,41240,N,0,0,0
1:54.619,41263,),0,0,1
1:54.697,41291,(,0,0,2
1:54.789,41324,t,0,0,0
1:54.878,41356,),0,0,2
1:55.106,41438,(,0,0,0
1:55.147,41453,p,0,0,0
1:55.206,41474,),0,0,0
1:55.275,41499,(,0,0,1
1:55.414,41549,N,0,0,0
1:55.489,41576,),0,0,1
1:55.553,41599,(,0,0,2
1:55.678,41644,t,0,0,5
1:55.975,41751,t,0,0,5
1:56.044,41776,),0,0,2
1:56.211,41836,(,0,0,1
1:56.314,41873,N,0,0,0
1:56.383,41898,),0,0,1
1:56.486,41935,(,0,0,2
1:56.583,41970,t,0,0,5
1:56.872,42074,t,0,0,5
1:56.956,42104,),0,0,2
1:57.053,42139,(,0,0,0
1:57.086,42151,p,0,0,0
1:57.114,42161,),0,0,0
1:57.131,42167,(,0,0,1
1:57.228,42202,N,0,0,0
1:57.308,42231,),0,0,1
1:57.367,42252,(,0,0,2
1:57.497,42299,t,0,0,5
1:57.808,42411,t,0,0,5
1:57.858,42429,),0,0,2
1:57.975,42471,(,0,0,1
1:58.114,42521,N,0,0,0
1:58.183,42546,),0,0,1
1:58.244,42568,(,0,0,2
1:58.375,42615,t,0,0,0
1:58.475,42651,),0,0,2
1:58.708,42735,(,0,0,0
1:58.764,42755,p,0,0,0
1:58.836,42781,),0,0,0
1:58.928,42814,(,0,0,1
1:59.003,42841,N,0,0,0
1:59.069,42865,),0,0,1
1:59.131,42887,(,0,0,2
1:59.242,42927,t,0,0,0
1:59.336,42961,),0,0,2
1:59.547,43037,(,0,0,0
1:59.592,43053,p,0,0,0
1:59.658,43077,),0,0,0
1:59.717,43098,(,0,0,1
1:59.836,43141,N,0,0,0
1:59.900,43164,),0,0,1
1:59.961,43186,(,0,0,2
2:00.072,43226,t,0,0,0
2:00.167,43260,),0,0,2
2:00.389,43340,(,0,0,0
2:00.439,43358,p,0,0,0
2:00.508,43383,),0,0,0
2:00.569,43405,(,0,0,1
2:00.669,43441,N,0,0,0
2:00.733,43464,),0,0,1
2:00.794,43486,(,0,0,2
2:00.903,43525,t,0,0,0
2:00.981,43553,),0,0,2
2:01.233,43644,(,0,0,0
2:01.286,43663,p,0,0,0
2:01.358,43689,),0,0,0
2:01.456,43724,(,0,0,1
2:01.550,43758,N,0,0,0
2:01.619,43783,),0,0,1
2:01.697,43811,(,0,0,2
2:01.819,43855,t,0,0,5
2:02.139,43970,t,0,0,5
2:02.194,43990,),0,0,2
2:02.361,44050,(,0,0,1
2:02.461,44086,N,0,0,0
2:02.531,44111,),0,0,1
2:02.614,44141,(,0,0,2
2:02.725,44181,t,0,0,0
2:02.811,44212,),0,0,2
2:03.050,44298,(,0,0,0
2:03.089,44312,p,0,0,0
2:03.156,44336,),0,0,0
2:03.256,44372,(,0,0,1
2:03.358,44409,N,0,0,0
2:03.397,44423,),0,0,1
2:03.508,44463,(,0,0,2
2:03.608,44499,t,0,0,5
2:03.872,44594,t,0,0,5
2:03.942,44619,),0,0,2
2:04.119,44683,(,0,0,1
2:04.206,44714,N,0,0,0
2:04.269,44737,),0,0,1
2:04.364,44771,(,0,0,2
2:04.464,44807,t,0,0,5
2:04.756,44912,t,0,0,5
2:04.817,44934,),0,0,2
2:04.994,44998,(,0,0,1
2:05.083,45030,N,0,0,0
2:05.147,45053,),0,0,1
2:05.239,45086,(,0,0,2
2:05.331,45119,t,0,0,5
2:05.622,45224,t,0,0,5
2:05.681,45245,),0,0,2
2:05.844,45304,(,0,0,1
2:05.947,45341,N,0,0,0
2:06.014,45365,),0,0,1
2:06.106,45398,(,0,0,2
2:06.194,45430,t,0,0,5
2:06.450,45522,t,0,0,5
2:06.544,45556,),0,0,2
2:06.728,45622,(,0,0,1
2:06.800,45648,N,0,0,0
2:06.861,45670,),0,0,1
2:06.953,45703,(,0,0,2
2:07.050,45738,t,0,0,5
2:07.369,45853,t,0,0,5
2:07.406,45866,),0,0,2
2:07.583,45930,(,0,0,1
2:07.683,45966,N,0,0,0
2:07.789,46004,),0,0,1
2:07.836,46021,(,0,0,2
2:07.953,46063,t,0,0,5
2:08.264,46175,t,0,0,5
2:08.342,46203,),0,0,2
2:08.483,46254,(,0,0,1
2:08.608,46299,N,0,0,0
2:08.678,46324,),0,0,1
2:08.753,46351,(,0,0,2
2:08.869,46393,t,0,0,0
2:08.964,46427,),0,0,2
2:09.214,46517,(,0,0,0
2:09.261,46534,p,0,0,0
2:09.369,46573,),0,0,0
2:09.444,46600,(,0,0,1
2:09.525,46629,N,0,0,0
2:09.592,46653,),0,0,1
2:09.681,46685,(,0,0,2
2:09.781,46721,t,0,0,0
2:09.867,46752,),0,0,2
2:10.083,46830,(,0,0,0
2:10.142,46851,p,0,0,0
2:10.203,46873,),0,0,0
2:10.314,46913,(,0,0,1
2:10.397,46943,N,0,0,0
2:10.461,46966,),0,0,1
2:10.553,46999,(,0,0,2
2:10.658,47037,t,0,0,0
2:10.736,47065,),0,0,2
2:10.997,47159,(,0,0,0
2:11.022,47168,p,0,0,0
2:11.078,47188,),0,0,0
2:11.183,47226,(,0,0,1
2:11.267,47256,N,0,0,0
2:11.342,47283,),0,0,1
2:11.425,47313,(,0,0,2
2:11.519,47347,t,0,0,5
2:11.633,47388,t,0,0,5
2:11.675,47403,),0,0,2
2:11.814,47453,(,0,0,0
2:11.864,47471,p,0,0,0
2:11.911,47488,),0,0,0
2:11.967,47508,(,0,0,1
2:12.111,47560,N,0,0,0
2:12.183,47586,),0,0,1
2:12.261,47614,(,0,0,2
2:12.367,47652,t,0,0,0
2:12.442,47679,),0,0,2
2:12.669,47761,(,0,0,0
2:12.708,47775,p,0,0,0
2:12.775,47799,),0,0,0
2:12.850,47826,(,0,0,1
2:12.942,47859,N,0,0,0
2:13.014,47885,),0,0,1
2:13.167,47940,(,0,0,2
2:13.206,47954,t,0,0,0
2:13.317,47994,),0,0,2
2:13.533,48072,(,0,0,0
2:13.594,48094,p,0,0,0
2:13.647,48113,),0,0,0
2:13.753,48151,(,0,0,1
2:13.850,48186,N,0,0,0
2:13.917,48210,),0,0,1
2:14.011,48244,(,0,0,2
2:14.119,48283,t,0,0,0
2:14.194,48310,),0,0,2
2:14.458,48405,(,0,0,0
2:14.508,48423,p,0,0,0
2:14.586,48451,),0,0,0
2:14.675,48483,(,0,0,1
2:14.764,48515,N,0,0,0
2:14.833,48540,),0,0,1
2:14.903,48565,(,0,0,2
2:15.028,48610,t,0,0,0
2:15.119,48643,),0,0,2
2:15.381,48737,(,0,0,0
2:15.425,48753,p,0,0,0
2:15.494,48778,),0,0,0
2:15.600,48816,(,0,0,1
2:15.683,48846,N,0,0,0
2:15.747,48869,),0,0,1
2:15.825,48897,(,0,0,2
2:15.908,48927,t,0,0,0
2:15.989,48956,),0,0,2
2:16.228,49042,(,0,0,0
2:16.267,49056,p,0,0,0
2:16.344,49084,),0,0,0
2:16.431,49115,(,0,0,1
2:16.519,49147,N,0,0,0
2:16.589,49172,),0,0,1
2:16.683,49206,(,0,0,2
2:16.781,49241,t,0,0,0
2:16.856,49268,),0,0,2
2:17.086,49351,(,0,0,0
2:17.133,49368,p,0,0,0
2:17.192,49389,),0,0,0
2:17.289,49424,(,0,0,1
2:17.369,49453,N,0,0,0
2:17.436,49477,),0,0,1
2:17.519,49507,(,0,0,2
2:17.625,49545,t,0,0,5
2:17.906,49646,t,0,0,5
2:17.967,49668,),0,0,2
2:18.142,49731,(,0,0,1
2:18.225,49761,N,0,0,0
2:18.292,49785,),0,0,1
2:18.361,49810,(,0,0,2
2:18.483,49854,t,0,0,0
2:18.567,49884,),0,0,2
2:18.781,49961,(,0,0,0
2:18.825,49977,p,0,0,0
2:18.883,49998,),0,0,0
2:18.961,50026,(,0,0,1
2:19.069,50065,N,0,0,0
2:19.133,50088,),0,0,1
2:19.206,50114,(,0,0,2
2:19.322,50156,t,0,0,0
2:19.408,50187,),0,0,2
2:19.656,50276,(,0,0,0
2:19.703,50293,p,0,0,0
2:19.772,50318,),0,0,0
2:19.867,50352,(,0,0,1
2:19.967,50388,N,0,0,0
2:20.033,50412,),0,0,1
2:20.117,50442,(,0,0,2
2:20.225,50481,t,0,0,5
2:20.328,50518,t,0,0,5
2:20.561,50602,),0,0,2
2:20.731,50663,(,0,0,1
2:20.819,50695,N,0,0,0
2:20.889,50720,),0,0,1
2:21.011,50764,(,0,0,2
2:21.089,50792,t,0,0,0
2:21.164,50819,),0,0,2
2:21.414,50909,(,0,0,0
2:21.456,50924,p,0,0,0
2:21.528,50950,),0,0,0
2:21.619,50983,(,0,0,1
2:21.706,51014,N,0,0,0
2:21.772,51038,),0,0,1
2:21.844,51064,(,0,0,2
2:21.950,51102,t,0,0,5
2:22.225,51201,t,0,0,5
2:22.292,51225,),0,0,2
2:22.469,51289,(,0,0,1
2:22.553,51319,N,0,0,0
2:22.622,51344,),0,0,1
2:22.714,51377,(,0,0,2
2:22.814,51413,t,0,0,5
2:23.086,51511,t,0,0,5
2:23.164,51539,),0,0,2
2:23.319,51595,(,0,0,1
2:23.419,51631,N,0,0,0
2:23.483,51654,),0,0,1
2:23.558,51681,(,0,0,2
2:23.672,51722,t,0,0,0
2:23.753,51751,),0,0,2
2:23.983,51834,(,0,0,0
2:24.019,51847,p,0,0,0
2:24.081,51869,),0,0,0
2:24.192,51909,(,0,0,1
2:24.275,51939,N,0,0,0
2:24.336,51961,),0,0,1
2:24.425,51993,(,0,0,2
2:24.522,52028,t,0,0,0
2:24.594,52054,),0,0,2
2:24.800,52128,(,0,0,0
2:24.839,52142,p,0,0,0
2:24.906,52166,),0,0,0
2:25.011,52204,(,0,0,1
2:25.097,52235,N,0,0,0
2:25.161,52258,),0,0,1
2:25.261,52294,(,0,0,2
2:25.358,52329,t,0,0,5
2:25.644,52432,t,0,0,5
2:25.711,52456,),0,0,2
2:25.883,52518,(,0,0,1
2:25.983,52554,N,0,0,0
2:26.050,52578,),0,0,1
2:26.156,52616,(,0,0,2
2:26.253,52651,t,0,0,0
2:26.339,52682,),0,0,2
2:26.572,52766,(,0,0,0
2:26.644,52792,p,0,0,0
2:26.686,52807,),0,0,0
2:26.831,52859,(,0,0,1
2:26.906,52886,N,0,0,0
2:26.981,52913,),0,0,1
2:27.069,52945,(,0,0,2
2:27.178,52984,t,0,0,0
2:27.281,53021,),0,0,2
2:27.506,53102,(,0,0,0
2:27.558,53121,p,0,0,0
2:27.628,53146,),0,0,0
2:27.681,53165,(,0,0,1
2:27.797,53207,N,0,0,0
2:27.867,53232,),0,0,1
2:27.914,53249,(,0,0,2
2:28.036,53293,t,0,0,5
2:28.333,53400,t,0,0,5
2:28.414,53429,),0,0,2
2:28.583,53490,(,0,0,1
2:28.697,53531,N,0,0,0
2:28.731,53543,),0,0,1
2:28.794,53566,(,0,0,2
2:28.906,53606,t,0,0,0
2:28.992,53637,),0,0,2
2:29.222,53720,(,0,0,0
2:29.253,53731,p,0,0,0
2:29.314,53753,),0,0,0
2:29.383,53778,(,0,0,1
2:29.494,53818,N,0,0,0
2:29.558,53841,),0,0,1
2:29.642,53871,(,0,0,2
2:29.739,53906,t,0,0,0
2:29.825,53937,),0,0,2
2:30.044,54016,(,0,0,0
2:30.067,54024,p,0,0,0
2:30.108,54039,),0,0,0
2:30.200,54072,(,0,0,1
2:30.283,54102,N,0,0,0
2:30.350,54126,),0,0,1
2:30.433,54156,(,0,0,2
2:30.531,54191,t,0,0,5
2:30.831,54299,t,0,0,5
2:30.925,54333,),0,0,2
2:31.100,54396,(,0,0,1
2:31.189,54428,N,0,0,0
2:31.258,54453,),0,0,1
2:31.350,54486,(,0,0,2
2:31.453,54523,t,0,0,5
2:31.747,54629,t,0,0,5
2:31.814,54653,),0,0,2
2:32.008,54723,(,0,0,1
2:32.103,54757,N,0,0,0
2:32.172,54782,),0,0,1
2:32.264,54815,(,0,0,2
2:32.369,54853,t,0,0,5
2:32.678,54964,t,0,0,5
2:32.728,54982,),0,0,2
2:32.886,55039,(,0,0,1
2:32.994,55078,N,0,0,0
2:33.072,55106,),0,0,1
2:33.144,55132,(,0,0,2
2:33.267,55176,t,0,0,0
2:33.353,55207,),0,0,2
2:33.583,55290,(,0,0,0
2:33.633,55308,p,0,0,0
2:33.706,55334,),0,0,0
2:33.783,55362,(,0,0,1
2:33.861,55390,N,0,0,0
2:33.917,55410,),0,0,1
2:34.011,55444,(,0,0,2
2:34.114,55481,t,0,0,5
2:34.406,55586,t,0,0,5
2:34.464,55607,),0,0,2
2:34.633,55668,(,0,0,1
2:34.725,55701,N,0,0,0
2:34.794,55726,),0,0,1
2:34.872,55754,(,0,0,2
2:34.983,55794,t,0,0,5
2:35.281,55901,t,0,0,5
2:35.336,55921,),0,0,2
2:35.494,55978,(,0,0,1
2:35.589,56012,N,0,0,0
2:35.653,56035,),0,0,1
2:35.725,56061,(,0,0,2
2:35.833,56100,t,0,0,0
2:35.911,56128,),0,0,2
2:36.136,56209,(,0,0,0
2:36.178,56224,p,0,0,0
2:36.244,56248,),0,0,0
2:36.350,56286,(,0,0,1
2:36.431,56315,N,0,0,0
2:36.497,56339,),0,0,1
2:36.581,56369,(,0,0,2
2:36.675,56403,t,0,0,0
2:36.744,56428,),0,0,2
2:36.933,56496,(,0,0,0
2:36.981,56513,p,0,0,0
2:37.047,56537,),0,0,0
2:37.139,56570,(,0,0,1
2:37.228,56602,N,0,0,0
2:37.294,56626,),0,0,1
2:37.378,56656,(,0,0,2
2:37.497,56699,t,0,0,5
2:37.775,56799,t,0,0,5
2:37.850,56826,),0,0,2
2:38.003,56881,(,0,0,1
2:38.108,56919,N,0,0,0
2:38.178,56944,),0,0,1
2:38.261,56974,(,0,0,2
2:38.372,57014,t,0,0,0
2:38.456,57044,),0,0,2
2:38.692,57129,(,0,0,0
2:38.742,57147,p,0,0,0
2:38.811,57172,),0,0,0
2:38.867,57192,(,0,0,1
2:38.989,57236,N,0,0,0
2:39.056,57260,),0,0,1
2:39.133,57288,(,0,0,2
2:39.256,57332,t,0,0,0
2:39.358,57369,),0,0,2
2:39.572,57446,(,0,0,0
2:39.625,57465,p,0,0,0
2:39.689,57488,),0,0,0
2:39.783,57522,(,0,0,1
2:39.858,57549,N,0,0,0
2:39.917,57570,),0,0,1
2:40.006,57602,(,0,0,2
2:40.114,57641,t,0,0,5
2:40.406,57746,t,0,0,5
2:40.478,57772,),0,0,2
2:40.636,57829,(,0,0,1
2:40.739,57866,N,0,0,0
2:40.806,57890,),0,0,1
2:40.875,57915,(,0,0,2
2:40.986,57955,t,0,0,5
2:41.247,58049,t,0,0,5
2:41.328,58078,),0,0,2
2:41.483,58134,(,0,0,1
2:41.581,58169,N,0,0,0
2:41.644,58192,),0,0,1
2:41.708,58215,(,0,0,2
2:41.822,58256,t,0,0,0
2:41.906,58286,),0,0,2
2:42.122,58364,(,0,0,0
2:42.172,58382,p,0,0,0
2:42.242,58407,),0,0,0
2:42.331,58439,(,0,0,1
2:42.411,58468,N,0,0,0
2:42.475,58491,),0,0,1
2:42.536,58513,(,0,0,2
2:42.647,58553,t,0,0,5
2:42.906,58646,t,0,0,5
2:42.989,58676,),0,0,2
2:43.164,58739,(,0,0,1
2:43.253,58771,N,0,0,0
2:43.319,58795,),0,0,1
2:43.397,58823,(,0,0,2
2:43.514,58865,t,0,0,5
2:43.767,58956,t,0,0,5
2:43.886,58999,),0,0,2
2:44.031,59051,(,0,0,1
2:44.153,59095,N,0,0,0
2:44.219,59119,),0,0,1
2:44.283,59142,(,0,0,2
2:44.408,59187,t,0,0,5
2:44.719,59299,t,0,0,5
2:44.781,59321,),0,0,2
2:44.944,59380,(,0,0,1
2:45.039,59414,N,0,0,0
2:45.111,59440,),0,0,1
2:45.181,59465,(,0,0,2
2:45.303,59509,t,0,0,0
2:45.400,59544,),0,0,2
2:45.681,59645,(,0,0,0
2:45.778,59680,p,0,0,0
2:45.786,59683,),0,0,0
2:45.819,59695,(,0,0,1
2:45.892,59721,N,0,0,0
2:45.961,59746,),0,0,1
2:46.019,59767,(,0,0,2
2:46.153,59815,t,0,0,5
2:46.419,59911,t,0,0,5
2:46.503,59941,),0,0,2
2:46.669,60001,(,0,0,1
2:46.761,60034,N,0,0,0
2:46.836,60061,),0,0,1
2:46.911,60088,(,0,0,2
2:47.017,60126,t,0,0,0
2:47.092,60153,),0,0,2
2:47.325,60237,(,0,0,0
2:47.364,60251,p,0,0,0
2:47.433,60276,),0,0,0
2:47.506,60302,(,0,0,1
2:47.597,60335,N,0,0,0
2:47.661,60358,),0,0,1
2:47.725,60381,(,0,0,2
2:47.842,60423,t,0,0,5
2:48.119,60523,t,0,0,5
2:48.189,60548,),0,0,2
2:48.331,60599,(,0,0,1
2:48.442,60639,N,0,0,0
2:48.508,60663,),0,0,1
2:48.581,60689,(,0,0,2
2:48.681,60725,t,0,0,0
2:48.758,60753,),0,0,2
2:49.003,60841,(,0,0,0
2:49.031,60851,p,0,0,0
2:49.086,60871,),0,0,0
2:49.133,60888,(,0,0,1
2:49.267,60936,N,0,0,0
2:49.339,60962,),0,0,1
2:49.422,60992,(,0,0,2
2:49.525,61029,t,0,0,0
2:49.600,61056,),0,0,2
2:49.869,61153,(,0,0,0
2:49.892,61161,p,0,0,0
2:49.961,61186,),0,0,0
2:50.017,61206,(,0,0,1
2:50.139,61250,N,0,0,0
2:50.208,61275,),0,0,1
2:50.281,61301,(,0,0,2
2:50.397,61343,t,0,0,0
2:50.483,61374,),0,0,2
2:50.747,61469,(,0,0,0
2:50.775,61479,p,0,0,0
2:50.853,61507,),0,0,0
2:50.917,61530,(,0,0,1
2:51.014,61565,N,0,0,0
2:51.075,61587,),0,0,1
2:51.161,61618,(,0,0,2
2:51.283,61662,t,0,0,0
2:51.344,61684,),0,0,2
2:51.597,61775,(,0,0,0
2:51.639,61790,p,0,0,0
2:51.672,61802,),0,0,0
2:51.781,61841,(,0,0,1
2:51.869,61873,N,0,0,0
2:51.933,61896,),0,0,1
2:52.039,61934,(,0,0,2
2:52.133,61968,t,0,0,0
2:52.225,62001,),0,0,2
2:52.461,62086,(,0,0,0
2:52.497,62099,p,0,0,0
2:52.542,62115,),0,0,0
2:52.636,62149,(,0,0,1
2:52.742,62187,N,0,0,0
2:52.808,62211,),0,0,1
2:52.881,62237,(,0,0,2
2:52.989,62276,t,0,0,0
2:53.081,62309,),0,0,2
2:53.292,62385,(,0,0,0
2:53.331,62399,p,0,0,0
2:53.372,62414,),0,0,0
2:53.494,62458,(,0,0,1
2:53.575,62487,N,0,0,0
2:53.639,62510,),0,0,1
2:53.692,62529,(,0,0,2
2:53.806,62570,t,0,0,0
2:53.889,62600,),0,0,2
2:54.092,62673,(,0,0,0
2:54.142,62691,p,0,0,0
2:54.206,62714,),0,0,0
2:54.258,62733,(,0,0,1
2:54.386,62779,N,0,0,0
2:54.453,62803,),0,0,1
2:54.550,62838,(,0,0,2
2:54.625,62865,t,0,0,5
2:54.881,62957,t,0,0,5
2:54.939,62978,),0,0,2
2:54.958,62985,(,0,0,0
2:55.056,63020,p,0,0,0
2:55.083,63030,),0,0,0
2:55.106,63038,(,0,0,1
2:55.197,63071,N,0,0,0
2:55.275,63099,),0,0,1
2:55.342,63123,(,0,0,2
2:55.464,63167,t,0,0,5
2:55.739,63266,t,0,0,5
2:55.803,63289,),0,0,2
2:55.861,63310,(,0,0,0
2:55.897,63323,p,0,0,0
2:55.956,63344,),0,0,0
2:55.983,63354,(,0,0,1
2:56.072,63386,N,0,0,0
2:56.156,63416,),0,0,1
2:56.267,63456,(,0,0,2
2:56.339,63482,t,0,0,5
2:56.614,63581,t,0,0,5
2:56.706,63614,),0,0,2
2:56.722,63620,(,0,0,0
2:56.786,63643,p,0,0,0
2:56.831,63659,),0,0,0
2:56.864,63671,(,0,0,1
2:56.958,63705,N,0,0,0
2:57.025,63729,),0,0,1
2:57.111,63760,(,0,0,2
2:57.200,63792,t,0,0,5
2:57.550,63918,t,0,0,5
2:57.594,63934,),0,0,2
2:57.658,63957,(,0,0,0
2:57.706,63974,p,0,0,0
2:57.747,63989,),0,0,0
2:57.758,63993,(,0,0,1
2:57.864,64031,N,0,0,0
2:57.886,64039,),0,0,1
2:57.950,64062,(,0,0,2
2:58.064,64103,t,0,0,5
2:58.319,64195,t,0,0,5
2:58.397,64223,),0,0,2
2:58.561,64282,(,0,0,1
2:58.664,64319,N,0,0,0
2:58.731,64343,),0,0,1
2:58.819,64375,(,0,0,2
2:58.886,64399,t,0,0,5
2:59.042,64455,t,0,0,5
2:59.072,64466,),0,0,2
2:59.314,64553,(,0,0,0
2:59.339,64562,p,0,0,0
2:59.356,64568,),0,0,0
2:59.425,64593,(,0,0,1
2:59.492,64617,N,0,0,0
2:59.547,64637,),0,0,1
2:59.628,64666,(,0,0,2
2:59.722,64700,t,0,0,5
3:00.042,64815,t,0,0,5
3:00.069,64825,),0,0,2
3:00.125,64845,(,0,0,0
3:00.156,64856,p,0,0,0
3:00.175,64863,),0,0,0
3:00.211,64876,(,0,0,1
3:00.325,64917,N,0,0,0
3:00.392,64941,),0,0,1
3:00.436,64957,(,0,0,2
3:00.575,65007,t,0,0,0
3:00.664,65039,),0,0,2
3:00.872,65114,(,0,0,0
3:00.903,65125,p,0,0,0
3:00.975,65151,),0,0,0
3:01.067,65184,(,0,0,1
3:01.153,65215,N,0,0,0
3:01.219,65239,),0,0,1
3:01.292,65265,(,0,0,2
3:01.406,65306,t,0,0,0
3:01.494,65338,),0,0,2
3:01.719,65419,(,0,0,0
3:01.772,65438,p,0,0,0
3:01.856,65468,),0,0,0
3:01.950,65502,(,0,0,1
3:02.031,65531,N,0,0,0
3:02.100,65556,),0,0,1
3:02.153,65575,(,0,0,2
3:02.283,65622,t,0,0,5
3:02.564,65723,t,0,0,5
3:02.633,65748,),0,0,2
3:02.808,65811,(,0,0,1
3:02.894,65842,N,0,0,0
3:02.964,65867,),0,0,1
3:03.006,65882,(,0,0,2
3:03.144,65932,t,0,0,0
3:03.239,65966,),0,0,2
3:03.472,66050,(,0,0,0
3:03.508,66063,p,0,0,0
3:03.569,66085,),0,0,0
3:03.658,66117,(,0,0,1
3:03.753,66151,N,0,0,0
3:03.819,66175,),0,0,1
3:03.833,66180,(,0,0,2
3:03.983,66234,t,0,0,0
3:04.072,66266,),0,0,2
3:04.314,66353,(,0,0,0
3:04.350,66366,p,0,0,0
3:04.422,66392,),0,0,0
3:04.489,66416,(,0,0,1
3:04.583,66450,N,0,0,0
3:04.650,66474,),0,0,1
3:04.775,66519,(,0,0,2
3:04.839,66542,t,0,0,0
3:04.928,66574,),0,0,2
3:05.139,66650,(,0,0,0
3:05.186,66667,p,0,0,0
3:05.253,66691,),0,0,0
3:05.317,66714,(,0,0,1
3:05.419,66751,N,0,0,0
3:05.483,66774,),0,0,1
3:05.589,66812,(,0,0,2
3:05.675,66843,t,0,0,5
3:05.950,66942,t,0,0,5
3:05.986,66955,),0,0,2
3:06.117,67002,(,0,0,1
3:06.269,67057,N,0,0,0
3:06.294,67066,),0,0,1
3:06.353,67087,(,0,0,2
3:06.478,67132,t,0,0,0
3:06.561,67162,),0,0,2
3:06.747,67229,(,0,0,0
3:06.789,67244,p,0,0,0
3:06.808,67251,),0,0,0
3:06.836,67261,(,0,0,1
3:06.994,67318,N,0,0,0
3:07.089,67352,),0,0,1
3:07.211,67396,(,0,0,2
3:07.275,67419,t,0,0,0
3:07.333,67440,),0,0,2
3:07.547,67517,(,0,0,0
3:07.614,67541,p,0,0,0
3:07.656,67556,),0,0,0
3:07.747,67589,(,0,0,1
3:07.831,67619,N,0,0,0
3:07.925,67653,),0,0,1
3:07.972,67670,(,0,0,2
3:08.111,67720,t,0,0,5
3:08.403,67825,t,0,0,5
3:08.436,67837,),0,0,2
3:08.592,67893,(,0,0,1
3:08.747,67949,N,0,0,0
3:08.783,67962,),0,0,1
3:08.842,67983,(,0,0,2
3:08.967,68028,t,0,0,0
3:09.050,68058,),0,0,2
3:09.253,68131,(,0,0,0
3:09.306,68150,p,0,0,0
3:09.378,68176,),0,0,0
3:09.461,68206,(,0,0,1
3:09.544,68236,N,0,0,0
3:09.614,68261,),0,0,1
3:09.706,68294,(,0,0,2
3:09.797,68327,t,0,0,5
3:10.033,68412,t,0,0,5
3:10.086,68431,),0,0,2
3:10.089,68432,(,0,0,0
3:10.100,68436,p,0,0,0
3:10.178,68464,),0,0,0
3:10.250,68490,(,0,0,1
3:10.342,68523,N,0,0,0
3:10.408,68547,),0,0,1
3:10.483,68574,(,0,0,2
3:10.597,68615,t,0,0,0
3:10.675,68643,),0,0,2
3:10.858,68709,(,0,0,0
3:10.906,68726,p,0,0,0
3:10.969,68749,),0,0,0
3:11.042,68775,(,0,0,1
3:11.136,68809,N,0,0,0
3:11.203,68833,),0,0,1
3:11.278,68860,(,0,0,2
3:11.383,68898,t,0,0,0
3:11.475,68931,),0,0,2
3:11.661,68998,(,0,0,0
3:11.692,69009,p,0,0,0
3:11.764,69035,),0,0,0
3:11.833,69060,(,0,0,1
3:11.919,69091,N,0,0,0
3:11.986,69115,),0,0,1
3:12.056,69140,(,0,0,2
3:12.169,69181,t,0,0,0
3:12.250,69210,),0,0,2
3:12.431,69275,(,0,0,0
3:12.472,69290,p,0,0,0
3:12.533,69312,),0,0,0
3:12.600,69336,(,0,0,1
3:12.692,69369,N,0,0,0
3:12.750,69390,),0,0,1
3:12.808,69411,(,0,0,2
3:12.922,69452,t,0,0,0
3:12.994,69478,),0,0,2
3:13.203,69553,(,0,0,0
3:13.250,69570,p,0,0,0
3:13.350,69606,),0,0,0
3:13.383,69618,(,0,0,1
3:13.511,69664,N,0,0,0
3:13.586,69691,),0,0,1
3:13.694,69730,(,0,0,2
3:13.772,69758,t,0,0,5
3:14.053,69859,t,0,0,5
3:14.111,69880,),0,0,2
3:14.272,69938,(,0,0,1
3:14.375,69975,N,0,0,0
3:14.444,70000,),0,0,1
3:14.539,70034,(,0,0,2
3:14.642,70071,t,0,0,0
3:14.717,70098,),0,0,2
3:14.928,70174,(,0,0,0
3:14.981,70193,p,0,0,0
3:15.058,70221,),0,0,0
3:15.108,70239,(,0,0,1
3:15.228,70282,N,0,0,0
3:15.297,70307,),0,0,1
3:15.397,70343,(,0,0,2
3:15.489,70376,t,0,0,0
3:15.578,70408,),0,0,2
3:15.778,70480,(,0,0,0
3:15.822,70496,p,0,0,0
3:15.878,70516,),0,0,0
3:15.961,70546,(,0,0,1
3:16.044,70576,N,0,0,0
3:16.111,70600,),0,0,1
3:16.192,70629,(,0,0,2
3:16.297,70667,t,0,0,0
3:16.383,70698,),0,0,2
3:16.597,70775,(,0,0,0
3:16.647,70793,p,0,0,0
3:16.728,70822,),0,0,0
3:16.800,70848,(,0,0,1
3:16.883,70878,N,0,0,0
3:16.950,70902,),0,0,1
3:17.025,70929,(,0,0,2
3:17.128,70966,t,0,0,0
3:17.219,70999,),0,0,2
3:17.428,71074,(,0,0,0
3:17.475,71091,p,0,0,0
3:17.542,71115,),0,0,0
3:17.603,71137,(,0,0,1
3:17.717,71178,N,0,0,0
3:17.781,71201,),0,0,1
3:17.847,71225,(,0,0,2
3:17.950,71262,t,0,0,0
3:18.033,71292,),0,0,2
3:18.233,71364,(,0,0,0
3:18.275,71379,p,0,0,0
3:18.353,71407,),0,0,0
3:18.422,71432,(,0,0,1
3:18.511,71464,N,0,0,0
3:18.575,71487,),0,0,1
3:18.642,71511,(,0,0,2
3:18.750,71550,t,0,0,0
3:18.822,71576,),0,0,2
3:19.028,71650,(,0,0,0
3:19.075,71667,p,0,0,0
3:19.158,71697,),0,0,0
3:19.211,71716,(,0,0,1
3:19.311,71752,N,0,0,0
3:19.378,71776,),0,0,1
3:19.464,71807,(,0,0,2
3:19.569,71845,t,0,0,0
3:19.644,71872,),0,0,2
3:19.875,71955,(,0,0,0
3:19.925,71973,p,0,0,0
3:20.000,72000,),0,0,0
3:20.078,72028,(,0,0,1
3:20.172,72062,N,0,0,0
3:20.242,72087,),0,0,1
3:20.322,72116,(,0,0,2
3:20.431,72155,t,0,0,0
3:20.522,72188,),0,0,2
3:20.739,72266,(,0,0,0
3:20.789,72284,p,0,0,0
3:20.867,72312,),0,0,0
3:20.925,72333,(,0,0,1
3:21.033,72372,N,0,0,0
3:21.108,72399,),0,0,1
3:21.178,72424,(,0,0,2
3:21.289,72464,t,0,0,0
3:21.369,72493,),0,0,2
3:21.592,72573,(,0,0,0
3:21.650,72594,p,0,0,0
3:21.708,72615,),0,0,0
3:21.794,72646,(,0,0,1
3:21.872,72674,N,0,0,0
3:21.939,72698,),0,0,1
3:22.025,72729,(,0,0,2
3:22.125,72765,t,0,0,5
3:22.433,72876,t,0,0,5
3:22.458,72885,),0,0,2
3:22.633,72948,(,0,0,1
3:22.722,72980,N,0,0,0
3:22.797,73007,),0,0,1
3:22.864,73031,(,0,0,2
3:22.978,73072,t,0,0,0
3:23.075,73107,),0,0,2
3:23.297,73187,(,0,0,0
3:23.325,73197,p,0,0,0
3:23.369,73213,),0,0,0
3:23.472,73250,(,0,0,1
3:23.558,73281,N,0,0,0
3:23.636,73309,),0,0,1
3:23.692,73329,(,0,0,2
3:23.800,73368,t,0,0,0
3:23.903,73405,),0,0,2
3:24.117,73482,(,0,0,0
3:24.150,73494,p,0,0,0
3:24.214,73517,),0,0,0
3:24.275,73539,(,0,0,1
3:24.378,73576,N,0,0,0
3:24.444,73600,),0,0,1
3:24.519,73627,(,0,0,2
3:24.614,73661,t,0,0,0
3:24.678,73684,),0,0,2
3:24.886,73759,(,0,0,0
3:24.928,73774,p,0,0,0
3:25.017,73806,),0,0,0
3:25.069,73825,(,0,0,1
3:25.172,73862,N,0,0,0
3:25.244,73888,),0,0,1
3:25.333,73920,(,0,0,2
3:25.439,73958,t,0,0,0
3:25.525,73989,),0,0,2
3:25.747,74069,(,0,0,0
3:25.797,74087,p,0,0,0
3:25.897,74123,),0,0,0
3:25.958,74145,(,0,0,1
3:26.050,74178,N,0,0,0
3:26.119,74203,),0,0,1
3:26.219,74239,(,0,0,2
3:26.319,74275,t,0,0,0
3:26.419,74311,),0,0,2
3:26.617,74382,(,0,0,0
3:26.658,74397,p,0,0,0
3:26.758,74433,),0,0,0
3:26.828,74458,(,0,0,1
3:26.908,74487,N,0,0,0
3:26.972,74510,),0,0,1
3:27.064,74543,(,0,0,2
3:27.172,74582,t,0,0,0
3:27.258,74613,),0,0,2
3:27.481,74693,(,0,0,0
3:27.522,74708,p,0,0,0
3:27.578,74728,),0,0,0
3:27.653,74755,(,0,0,1
3:27.753,74791,N,0,0,0
3:27.822,74816,),0,0,1
3:27.875,74835,(,0,0,2
3:27.972,74870,t,0,0,0
3:28.058,74901,),0,0,2
3:28.258,74973,(,0,0,0
3:28.317,74994,p,0,0,0
3:28.389,75020,),0,0,0
3:28.453,75043,(,0,0,1
3:28.556,75080,N,0,0,0
3:28.622,75104,),0,0,1
3:28.692,75129,(,0,0,2
3:28.811,75172,t,0,0,0
3:28.892,75201,),0,0,2
3:29.103,75277,(,0,0,0
3:29.153,75295,p,0,0,0
3:29.208,75315,),0,0,0
3:29.297,75347,(,0,0,1
3:29.389,75380,N,0,0,0
3:29.464,75407,),0,0,1
3:29.525,75429,(,0,0,2
3:29.622,75464,t,0,0,0
3:29.722,75500,),0,0,2
3:29.906,75566,(,0,0,0
3:29.953,75583,p,0,0,0
3:29.989,75596,),0,0,0
3:30.058,75621,(,0,0,1
3:30.189,75668,N,0,0,0
3:30.256,75692,),0,0,1
3:30.339,75722,(,0,0,2
3:30.442,75759,t,0,0,0
3:30.519,75787,),0,0,2
3:30.725,75861,(,0,0,0
3:30.761,75874,p,0,0,0
3:30.822,75896,),0,0,0
3:30.875,75915,(,0,0,1
3:30.989,75956,N,0,0,0
3:31.053,75979,),0,0,1
3:31.144,76012,(,0,0,2
3:31.256,76052,t,0,0,0
3:31.322,76076,),0,0,2
3:31.589,76172,(,0,0,0
3:31.617,76182,p,0,0,0
3:31.650,76194,),0,0,0
3:31.739,76226,(,0,0,1
3:31.858,76269,N,0,0,0
3:31.922,76292,),0,0,1
3:32.006,76322,(,0,0,2
3:32.114,76361,t,0,0,0
3:32.203,76393,),0,0,2
3:32.458,76485,(,0,0,0
3:32.489,76496,p,0,0,0
3:32.564,76523,),0,0,0
3:32.639,76550,(,0,0,1
3:32.731,76583,N,0,0,0
3:32.806,76610,),0,0,1
3:32.881,76637,(,0,0,2
3:32.983,76674,t,0,0,5
3:33.261,76774,t,0,0,5
3:33.328,76798,),0,0,2
3:33.481,76853,(,0,0,1
3:33.583,76890,N,0,0,0
3:33.650,76914,),0,0,1
3:33.708,76935,(,0,0,2
3:33.822,76976,t,0,0,0
3:33.892,77001,),0,0,2
3:34.142,77091,(,0,0,0
3:34.172,77102,p,0,0,0
3:34.208,77115,),0,0,0
3:34.314,77153,(,0,0,1
3:34.417,77190,N,0,0,0
3:34.486,77215,),0,0,1
3:34.558,77241,(,0,0,2
3:34.672,77282,t,0,0,0
3:34.767,77316,),0,0,2
3:34.967,77388,(,0,0,0
3:35.011,77404,p,0,0,0
3:35.069,77425,),0,0,0
3:35.158,77457,(,0,0,1
3:35.244,77488,N,0,0,0
3:35.311,77512,),0,0,1
3:35.394,77542,(,0,0,2
3:35.492,77577,t,0,0,5
3:35.747,77669,t,0,0,5
3:35.786,77683,),0,0,2
3:35.919,77731,(,0,0,1
3:36.042,77775,N,0,0,0
3:36.106,77798,),0,0,1
3:36.200,77832,(,0,0,2
3:36.286,77863,t,0,0,0
3:36.364,77891,),0,0,2
3:36.569,77965,(,0,0,0
3:36.608,77979,p,0,0,0
3:36.678,78004,),0,0,0
3:36.756,78032,(,0,0,1
3:36.831,78059,N,0,0,0
3:36.886,78079,),0,0,1
3:37.003,78121,(,0,0,2
3:37.083,78150,t,0,0,0
3:37.175,78183,),0,0,2
3:37.383,78258,(,0,0,0
3:37.433,78276,p,0,0,0
3:37.506,78302,),0,0,0
3:37.589,78332,(,0,0,1
3:37.683,78366,N,0,0,0
3:37.753,78391,),0,0,1
3:37.867,78432,(,0,0,2
3:37.956,78464,t,0,0,5
3:38.203,78553,t,0,0,5
3:38.292,78585,),0,0,2
3:38.461,78646,(,0,0,1
3:38.547,78677,N,0,0,0
3:38.617,78702,),0,0,1
3:38.697,78731,(,0,0,2
3:38.811,78772,t,0,0,5
3:39.064,78863,t,0,0,5
3:39.147,78893,),0,0,2
3:39.297,78947,(,0,0,1
3:39.408,78987,N,0,0,0
3:39.478,79012,),0,0,1
3:39.575,79047,(,0,0,2
3:39.667,79080,t,0,0,0
3:39.747,79109,),0,0,2
3:39.950,79182,(,0,0,0
3:40.003,79201,p,0,0,0
3:40.078,79228,),0,0,0
3:40.167,79260,(,0,0,1
3:40.253,79291,N,0,0,0
3:40.319,79315,),0,0,1
3:40.419,79351,(,0,0,2
3:40.506,79382,t,0,0,5
3:40.797,79487,t,0,0,5
3:40.850,79506,),0,0,2
3:40.983,79554,(,0,0,1
3:41.103,79597,N,0,0,0
3:41.169,79621,),0,0,1
3:41.256,79652,(,0,0,2
3:41.347,79685,t,0,0,0
3:41.419,79711,),0,0,2
3:41.650,79794,(,0,0,0
3:41.689,79808,p,0,0,0
3:41.753,79831,),0,0,0
3:41.828,79858,(,0,0,1
3:41.928,79894,N,0,0,0
3:41.997,79919,),0,0,1
3:42.067,79944,(,0,0,2
3:42.181,79985,t,0,0,0
3:42.269,80017,),0,0,2
3:42.486,80095,(,0,0,0
3:42.528,80110,p,0,0,0
3:42.572,80126,),0,0,0
3:42.681,80165,(,0,0,1
3:42.767,80196,N,0,0,0
3:42.825,80217,),0,0,1
3:42.889,80240,(,0,0,2
3:43.008,80283,t,0,0,0
3:43.092,80313,),0,0,2
3:43.344,80404,(,0,0,0
3:43.386,80419,p,0,0,0
3:43.472,80450,),0,0,0
3:43.564,80483,(,0,0,1
3:43.644,80512,N,0,0,0
3:43.711,80536,),0,0,1
3:43.814,80573,(,0,0,2
3:43.903,80605,t,0,0,0
3:43.983,80634,),0,0,2
3:44.225,80721,(,0,0,0
3:44.264,80735,p,0,0,0
3:44.325,80757,),0,0,0
3:44.400,80784,(,0,0,1
3:44.522,80828,N,0,0,0
3:44.586,80851,),0,0,1
3:44.706,80894,(,0,0,2
3:44.775,80919,t,0,0,5
3:45.058,81021,t,0,0,5
3:45.136,81049,),0,0,2
3:45.286,81103,(,0,0,1
3:45.392,81141,N,0,0,0
3:45.461,81166,),0,0,1
3:45.544,81196,(,0,0,2
3:45.650,81234,t,0,0,5
3:45.886,81319,t,0,0,5
3:45.981,81353,),0,0,2
3:46.142,81411,(,0,0,1
3:46.239,81446,N,0,0,0
3:46.308,81471,),0,0,1
3:46.381,81497,(,0,0,2
3:46.497,81539,t,0,0,0
3:46.589,81572,),0,0,2
3:46.814,81653,(,0,0,0
3:46.861,81670,p,0,0,0
3:46.931,81695,),0,0,0
3:47.019,81727,(,0,0,1
3:47.097,81755,N,0,0,0
3:47.161,81778,),0,0,1
3:47.228,81802,(,0,0,2
3:47.347,81845,t,0,0,0
3:47.431,81875,),0,0,2
3:47.664,81959,(,0,0,0
3:47.706,81974,p,0,0,0
3:47.775,81999,),0,0,0
3:47.858,82029,(,0,0,1
3:47.942,82059,N,0,0,0
3:48.006,82082,),0,0,1
3:48.072,82106,(,0,0,2
3:48.186,82147,t,0,0,0
3:48.275,82179,),0,0,2
3:48.494,82258,(,0,0,0
3:48.547,82277,p,0,0,0
3:48.606,82298,),0,0,0
3:48.678,82324,(,0,0,1
3:48.781,82361,N,0,0,0
3:48.839,82382,),0,0,1
3:48.894,82402,(,0,0,2
3:49.011,82444,t,0,0,0
3:49.100,82476,),0,0,2
3:49.333,82560,(,0,0,0
3:49.378,82576,p,0,0,0
3:49.450,82602,),0,0,0
3:49.539,82634,(,0,0,1
3:49.633,82668,N,0,0,0
3:49.703,82693,),0,0,1
3:49.778,82720,(,0,0,2
3:49.892,82761,t,0,0,5
3:50.194,82870,t,0,0,5
3:50.258,82893,),0,0,2
3:50.408,82947,(,0,0,1
3:50.528,82990,N,0,0,0
3:50.594,83014,),0,0,1
3:50.669,83041,(,0,0,2
3:50.786,83083,t,0,0,5
3:51.075,83187,t,0,0,5
3:51.158,83217,),0,0,2
3:51.344,83284,(,0,0,1
3:51.433,83316,N,0,0,0
3:51.500,83340,),0,0,1
3:51.583,83370,(,0,0,2
3:51.689,83408,t,0,0,0
3:51.775,83439,),0,0,2
3:52.000,83520,(,0,0,0
3:52.053,83539,p,0,0,0
3:52.111,83560,),0,0,0
3:52.225,83601,(,0,0,1
3:52.314,83633,N,0,0,0
3:52.381,83657,),0,0,1
3:52.447,83681,(,0,0,2
3:52.558,83721,t,0,0,5
3:52.864,83831,t,0,0,5
3:52.928,83854,),0,0,2
3:53.111,83920,(,0,0,1
3:53.192,83949,N,0,0,0
3:53.258,83973,),0,0,1
3:53.314,83993,(,0,0,2
3:53.425,84033,t,0,0,0
3:53.514,84065,),0,0,2
3:53.744,84148,(,0,0,0
3:53.789,84164,p,0,0,0
3:53.856,84188,),0,0,0
3:53.958,84225,(,0,0,1
3:54.044,84256,N,0,0,0
3:54.111,84280,),0,0,1
3:54.178,84304,(,0,0,2
3:54.283,84342,t,0,0,0
3:54.378,84376,),0,0,2
3:54.597,84455,(,0,0,0
3:54.644,84472,p,0,0,0
3:54.708,84495,),0,0,0
3:54.786,84523,(,0,0,1
3:54.886,84559,N,0,0,0
3:54.958,84585,),0,0,1
3:55.025,84609,(,0,0,2
3:55.139,84650,t,0,0,0
3:55.231,84683,),0,0,2
3:55.469,84769,(,0,0,0
3:55.522,84788,p,0,0,0
3:55.569,84805,),0,0,0
3:55.689,84848,(,0,0,1
3:55.792,84885,N,0,0,0
3:55.864,84911,),0,0,1
3:55.936,84937,(,0,0,2
3:56.058,84981,t,0,0,5
3:56.358,85089,t,0,0,5
3:56.436,85117,),0,0,2
3:56.628,85186,(,0,0,1
3:56.717,85218,N,0,0,0
3:56.786,85243,),0,0,1
3:56.858,85269,(,0,0,2
3:56.972,85310,t,0,0,5
3:57.089,85352,t,0,0,5
3:57.342,85443,),0,0,2
3:57.519,85507,(,0,0,1
3:57.606,85538,N,0,0,0
3:57.669,85561,),0,0,1
3:57.736,85585,(,0,0,2
3:57.842,85623,t,0,0,5
3:58.119,85723,t,0,0,5
3:58.203,85753,),0,0,2
3:58.339,85802,(,0,0,1
3:58.458,85845,N,0,0,0
3:58.525,85869,),0,0,1
3:58.597,85895,(,0,0,2
3:58.706,85934,t,0,0,0
3:58.806,85970,),0,0,2
3:59.019,86047,(,0,0,0
3:59.069,86065,p,0,0,0
3:59.131,86087,),0,0,0
3:59.169,86101,(,0,0,1
3:59.322,86156,N,0,0,0
3:59.358,86169,),0,0,1
3:59.525,86229,(,0,0,2
3:59.569,86245,t,0,0,5
3:59.856,86348,t,0,0,5
3:59.892,86361,),0,0,2
3:59.944,86380,(,0,0,0
3:59.967,86388,p,0,0,0
4:00.014,86405,),0,0,0
4:00.067,86424,(,0,0,1
4:00.181,86465,N,0,0,0
4:00.247,86489,),0,0,1
4:00.353,86527,(,0,0,2
4:00.431,86555,t,0,0,0
4:00.494,86578,),0,0,2
4:00.764,86675,(,0,0,0
4:00.803,86689,p,0,0,0
4:00.844,86704,),0,0,0
4:00.922,86732,(,0,0,1
4:01.019,86767,N,0,0,0
4:01.083,86790,),0,0,1
4:01.164,86819,(,0,0,2
4:01.272,86858,t,0,0,5
4:01.608,86979,t,0,0,5
4:01.653,86995,),0,0,2
4:01.758,87033,(,0,0,1
4:01.917,87090,N,0,0,0
4:01.975,87111,),0,0,1
4:02.083,87150,(,0,0,2
4:02.161,87178,t,0,0,0
4:02.231,87203,),0,0,2
4:02.497,87299,(,0,0,0
4:02.542,87315,p,0,0,0
4:02.653,87355,),0,0,0
4:02.689,87368,(,0,0,1
4:02.847,87425,N,0,0,0
4:02.881,87437,),0,0,1
4:02.939,87458,(,0,0,2
4:03.056,87500,t,0,0,0
4:03.153,87535,),0,0,2
4:03.417,87630,(,0,0,0
4:03.464,87647,p,0,0,0
4:03.531,87671,),0,0,0
4:03.633,87708,(,0,0,1
4:03.747,87749,N,0,0,0
4:03.772,87758,),0,0,1
4:03.836,87781,(,0,0,2
4:03.928,87814,t,0,0,0
4:04.006,87842,),0,0,2
4:04.267,87936,(,0,0,0
4:04.303,87949,p,0,0,0
4:04.375,87975,),0,0,0
4:04.467,88008,(,0,0,1
4:04.553,88039,N,0,0,0
4:04.625,88065,),0,0,1
4:04.686,88087,(,0,0,2
4:04.803,88129,t,0,0,5
4:05.083,88230,t,0,0,5
4:05.164,88259,),0,0,2
4:05.300,88308,(,0,0,1
4:05.417,88350,N,0,0,0
4:05.486,88375,),0,0,1
4:05.542,88395,(,0,0,2
4:05.661,88438,t,0,0,5
4:05.947,88541,t,0,0,5
4:06.008,88563,),0,0,2
4:06.175,88623,(,0,0,1
4:06.289,88664,N,0,0,0
4:06.319,88675,),0,0,1
4:06.361,88690,(,0,0,2
4:06.494,88738,t,0,0,5
4:06.769,88837,t,0,0,5
4:06.839,88862,),0,0,2
4:07.000,88920,(,0,0,1
4:07.117,88962,N,0,0,0
4:07.150,88974,),0,0,1
4:07.189,88988,(,0,0,2
4:07.325,89037,t,0,0,0
4:07.419,89071,),0,0,2
4:07.644,89152,(,0,0,0
4:07.689,89168,p,0,0,0
4:07.761,89194,),0,0,0
4:07.806,89210,(,0,0,1
4:08.003,89281,N,0,0,0
4:08.033,89292,),0,0,1
4:08.089,89312,(,0,0,2
4:08.219,89359,t,0,0,5
4:08.531,89471,t,0,0,5
4:08.603,89497,),0,0,2
4:08.614,89501,(,0,0,0
4:08.719,89539,p,0,0,0
4:08.744,89548,),0,0,0
4:08.767,89556,(,0,0,1
4:08.864,89591,N,0,0,0
4:08.931,89615,),0,0,1
4:08.956,89624,(,0,0,2
4:09.111,89680,t,0,0,5
4:09.278,89740,t,0,0,5
4:09.322,89756,),0,0,2
4:09.450,89802,(,0,0,0
4:09.500,89820,p,0,0,0
4:09.544,89836,),0,0,0
4:09.667,89880,(,0,0,1
4:09.744,89908,N,0,0,0
4:09.811,89932,),0,0,1
4:09.850,89946,(,0,0,2
4:09.972,89990,t,0,0,5
4:10.275,90099,t,0,0,5
4:10.339,90122,),0,0,2
4:10.494,90178,(,0,0,1
4:10.622,90224,N,0,0,0
4:10.650,90234,),0,0,1
4:10.708,90255,(,0,0,2
4:10.828,90298,t,0,0,5
4:11.114,90401,t,0,0,5
4:11.186,90427,),0,0,2
4:11.339,90482,(,0,0,1
4:11.464,90527,N,0,0,0
4:11.494,90538,),0,0,1
4:11.550,90558,(,0,0,2
4:11.667,90600,t,0,0,5
4:11.964,90707,t,0,0,5
4:12.017,90726,),0,0,2
4:12.186,90787,(,0,0,1
4:12.294,90826,N,0,0,0
4:12.322,90836,),0,0,1
4:12.372,90854,(,0,0,2
4:12.494,90898,t,0,0,5
4:12.778,91000,t,0,0,5
4:12.836,91021,),0,0,2
4:13.008,91083,(,0,0,1
4:13.122,91124,N,0,0,0
4:13.156,91136,),0,0,1
4:13.208,91155,(,0,0,2
4:13.331,91199,t,0,0,0
4:13.444,91240,),0,0,2
4:13.661,91318,(,0,0,0
4:13.703,91333,p,0,0,0
4:13.764,91355,),0,0,0
4:13.853,91387,(,0,0,1
4:14.014,91445,N,0,0,0
4:14.044,91456,),0,0,1
4:14.108,91479,(,0,0,2
4:14.225,91521,t,0,0,0
4:14.319,91555,),0,0,2
4:14.544,91636,(,0,0,0
4:14.597,91655,p,0,0,0
4:14.711,91696,),0,0,0
4:14.767,91716,(,0,0,1
4:14.856,91748,N,0,0,0
4:14.922,91772,),0,0,1
4:14.994,91798,(,0,0,2
4:15.106,91838,t,0,0,0
4:15.206,91874,),0,0,2
4:15.492,91977,(,0,0,0
4:15.581,92009,p,0,0,0
4:15.617,92022,),0,0,0
4:15.650,92034,(,0,0,1
4:15.725,92061,N,0,0,0
4:15.789,92084,),0,0,1
4:15.828,92098,(,0,0,2
4:15.944,92140,t,0,0,5
4:16.244,92248,t,0,0,5
4:16.297,92267,),0,0,2
4:16.458,92325,(,0,0,1
4:16.558,92361,N,0,0,0
4:16.631,92387,),0,0,1
4:16.692,92409,(,0,0,2
4:16.814,92453,t,0,0,5
4:17.092,92553,t,0,0,5
4:17.178,92584,),0,0,2
4:17.331,92639,(,0,0,1
4:17.436,92677,N,0,0,0
4:17.503,92701,),0,0,1
4:17.553,92719,(,0,0,2
4:17.675,92763,t,0,0,5
4:17.942,92859,t,0,0,5
4:18.014,92885,),0,0,2
4:18.181,92945,(,0,0,1
4:18.267,92976,N,0,0,0
4:18.333,93000,),0,0,1
4:18.406,93026,(,0,0,2
4:18.511,93064,t,0,0,0
4:18.606,93098,),0,0,2
4:18.806,93170,(,0,0,0
4:18.844,93184,p,0,0,0
4:18.906,93206,),0,0,0
4:18.953,93223,(,0,0,1
4:19.078,93268,N,0,0,0
4:19.136,93289,),0,0,1
4:19.214,93317,(,0,0,2
4:19.339,93362,t,0,0,5
4:19.644,93472,t,0,0,5
4:19.697,93491,),0,0,2
4:19.878,93556,(,0,0,1
4:19.967,93588,N,0,0,0
4:20.033,93612,),0,0,1
4:20.097,93635,(,0,0,2
4:20.219,93679,t,0,0,5
4:20.536,93793,t,0,0,5
4:20.597,93815,),0,0,2
4:20.761,93874,(,0,0,1
4:20.889,93920,N,0,0,0
4:20.917,93930,),0,0,1
4:20.992,93957,(,0,0,2
4:21.106,93998,t,0,0,0
4:21.197,94031,),0,0,2
4:21.425,94113,(,0,0,0
4:21.469,94129,p,0,0,0
4:21.542,94155,),0,0,0
4:21.619,94183,(,0,0,1
4:21.756,94232,N,0,0,0
4:21.781,94241,),0,0,1
4:21.842,94263,(,0,0,2
4:21.950,94302,t,0,0,0
4:22.042,94335,),0,0,2
4:22.275,94419,(,0,0,0
4:22.322,94436,p,0,0,0
4:22.392,94461,),0,0,0
4:22.481,94493,(,0,0,1
4:22.569,94525,N,0,0,0
4:22.636,94549,),0,0,1
4:22.711,94576,(,0,0,2
4:22.819,94615,t,0,0,5
4:23.089,94712,t,0,0,5
4:23.158,94737,),0,0,2
4:23.325,94797,(,0,0,1
4:23.411,94828,N,0,0,0
4:23.478,94852,),0,0,1
4:23.553,94879,(,0,0,2
4:23.656,94916,t,0,0,0
4:23.747,94949,),0,0,2
4:23.939,95018,(,0,0,0
4:23.986,95035,p,0,0,0
4:24.044,95056,),0,0,0
4:24.142,95091,(,0,0,1
4:24.225,95121,N,0,0,0
4:24.292,95145,),0,0,1
4:24.378,95176,(,0,0,2
4:24.472,95210,t,0,0,0
4:24.544,95236,),0,0,2
4:24.756,95312,(,0,0,0
4:24.794,95326,p,0,0,0
4:24.858,95349,),0,0,0
4:24.942,95379,(,0,0,1
4:25.031,95411,N,0,0,0
4:25.097,95435,),0,0,1
4:25.208,95475,(,0,0,2
4:25.297,95507,t,0,0,0
4:25.386,95539,),0,0,2
4:25.614,95621,(,0,0,0
4:25.664,95639,p,0,0,0
4:25.728,95662,),0,0,0
4:25.825,95697,(,0,0,1
4:25.917,95730,N,0,0,0
4:25.986,95755,),0,0,1
4:26.067,95784,(,0,0,2
4:26.178,95824,t,0,0,5
4:26.469,95929,t,0,0,5
4:26.542,95955,),0,0,2
4:26.719,96019,(,0,0,1
4:26.803,96049,N,0,0,0
4:26.872,96074,),0,0,1
4:26.953,96103,(,0,0,2
4:27.061,96142,t,0,0,5
4:27.344,96244,t,0,0,5
4:27.411,96268,),0,0,2
4:27.581,96329,(,0,0,1
4:27.667,96360,N,0,0,0
4:27.733,96384,),0,0,1
4:27.817,96414,(,0,0,2
4:27.897,96443,t,0,0,0
4:27.983,96474,),0,0,2
4:28.206,96554,(,0,0,0
4:28.253,96571,p,0,0,0
4:28.322,96596,),0,0,0
4:28.428,96634,(,0,0,1
4:28.517,96666,N,0,0,0
4:28.581,96689,),0,0,1
4:28.667,96720,(,0,0,2
4:28.769,96757,t,0,0,0
4:28.844,96784,),0,0,2
4:29.056,96860,(,0,0,0
4:29.097,96875,p,0,0,0
4:29.156,96896,),0,0,0
4:29.250,96930,(,0,0,1
4:29.339,96962,N,0,0,0
4:29.403,96985,),0,0,1
4:29.483,97014,(,0,0,2
4:29.592,97053,t,0,0,5
4:29.869,97153,t,0,0,5
4:29.922,97172,),0,0,2
4:30.092,97233,(,0,0,1
4:30.178,97264,N,0,0,0
4:30.242,97287,),0,0,1
4:30.317,97314,(,0,0,2
4:30.428,97354,t,0,0,0
4:30.528,97390,),0,0,2
4:30.736,97465,(,0,0,0
4:30.772,97478,p,0,0,0
4:30.836,97501,),0,0,0
4:30.919,97531,(,0,0,1
4:31.006,97562,N,0,0,0
4:31.072,97586,),0,0,1
4:31.142,97611,(,0,0,2
4:31.256,97652,t,0,0,5
4:31.561,97762,t,0,0,5
4:31.631,97787,),0,0,2
4:31.794,97846,(,0,0,1
4:31.892,97881,N,0,0,0
4:31.961,97906,),0,0,1
4:32.031,97931,(,0,0,2
4:32.150,97974,t,0,0,5
4:32.436,98077,t,0,0,5
4:32.517,98106,),0,0,2
4:32.681,98165,(,0,0,1
4:32.775,98199,N,0,0,0
4:32.844,98224,),0,0,1
4:32.903,98245,(,0,0,2
4:33.028,98290,t,0,0,5
4:33.325,98397,t,0,0,5
4:33.400,98424,),0,0,2
4:33.556,98480,(,0,0,1
4:33.706,98534,N,0,0,0
4:33.733,98544,),0,0,1
4:33.806,98570,(,0,0,2
4:33.900,98604,t,0,0,0
4:33.986,98635,),0,0,2
4:34.231,98723,(,0,0,0
4:34.269,98737,p,0,0,0
4:34.347,98765,),0,0,0
4:34.431,98795,(,0,0,1
4:34.519,98827,N,0,0,0
4:34.586,98851,),0,0,1
4:34.658,98877,(,0,0,2
4:34.772,98918,t,0,0,0
4:34.856,98948,),0,0,2
4:35.086,99031,(,0,0,0
4:35.133,99048,p,0,0,0
4:35.217,99078,),0,0,0
4:35.289,99104,(,0,0,1
4:35.372,99134,N,0,0,0
4:35.439,99158,),0,0,1
4:35.514,99185,(,0,0,2
4:35.611,99220,t,0,0,0
4:35.697,99251,),0,0,2
4:37.831   100019,(,0,0,1
4:37.867   100032,N,0,0,0
4:37.914   100049,),0,0,1
4:38.033   100092,(,0,0,2
4:38.139   100130,t,0,0,5
4:38.444   100240,t,0,0,5
4:38.500   100260,),0,0,2
4:38.747   100349,(,0,0,1
4:38.783   100362,N,0,0,0
4:38.850   100386,),0,0,1
4:38.931   100415,(,0,0,2
4:39.047   100457,t,0,0,5
4:39.581   100649,t,0,0,5
4:39.667   100680,),0,0,2
4:40.481   100973,(,0,0,1
4:40.517   100986,N,0,0,0
4:40.583   101010,),0,0,1
4:40.775   101079,(,0,0,2
4:41.044   101176,t,0,0,1
4:41.353   101287,),0,0,2
4:43.017   101886,(,0,0,1
4:43.053   101899,N,0,0,0
4:43.119   101923,),0,0,1
4:43.194   101950,(,0,0,2
4:43.317   101994,t,0,0,0
4:43.400   102024,),0,0,2
4:43.911   102208,(,0,0,1
4:43.944   102220,N,0,0,0
4:44.003   102241,),0,0,1
4:44.081   102269,(,0,0,2
4:44.203   102313,t,0,0,0
4:44.283   102342,),0,0,2
4:44.800   102528,(,0,0,1
4:44.836   102541,N,0,0,0
4:44.900   102564,),0,0,1
4:44.961   102586,(,0,0,2
4:45.089   102632,t,0,0,5
4:45.419   102751,t,0,0,5
4:45.478   102772,),0,0,2
4:48.228   103762,(,0,0,1
4:48.258   103773,N,0,0,0
4:48.317   103794,),0,0,1
4:48.408   103827,(,0,0,2
4:48.508   103863,t,0,0,0
4:48.581   103889,),0,0,2
4:49.039   104054,(,0,0,1
4:49.072   104066,N,0,0,0
4:49.136   104089,),0,0,1
4:49.222   104120,(,0,0,2
4:49.331   104159,t,0,0,5
4:49.631   104267,t,0,0,5
4:49.689   104288,),0,0,2
4:49.919   104371,(,0,0,1
4:49.956   104384,N,0,0,0
4:50.019   104407,),0,0,1
4:50.114   104441,(,0,0,2
4:50.219   104479,t,0,0,5
4:50.531   104591,t,0,0,5
4:50.592   104613,),0,0,2
4:50.794   104686,(,0,0,1
4:50.858   104709,N,0,0,0
4:50.917   104730,),0,0,1
4:50.989   104756,(,0,0,2
4:51.114   104801,t,0,0,0
4:51.194   104830,),0,0,2
4:52.511   105304,(,0,0,1
4:52.544   105316,N,0,0,0
4:52.603   105337,),0,0,1
4:52.708   105375,(,0,0,2
4:52.803   105409,t,0,0,0
4:52.886   105439,),0,0,2
4:54.181   105905,(,0,0,1
4:54.217   105918,N,0,0,0
4:54.272   105938,),0,0,1
4:54.350   105966,(,0,0,2
4:54.461   106006,t,0,0,5
4:54.728   106102,t,0,0,5
4:54.786   106123,),0,0,2
4:55.003   106201,(,0,0,1
4:55.039   106214,N,0,0,0
4:55.103   106237,),0,0,1
4:55.192   106269,(,0,0,2
4:55.297   106307,t,0,0,5
4:55.597   106415,t,0,0,5
4:55.650   106434,),0,0,2
4:55.892   106521,(,0,0,1
4:55.931   106535,N,0,0,0
4:55.992   106557,),0,0,1
4:56.075   106587,(,0,0,2
4:56.189   106628,t,0,0,0
4:56.275   106659,),0,0,2
4:56.778   106840,(,0,0,1
4:56.817   106854,N,0,0,0
4:56.881   106877,),0,0,1
4:56.947   106901,(,0,0,2
4:57.072   106946,t,0,0,5
4:57.389   107060,t,0,0,5
4:57.439   107078,),0,0,2
4:58.525   107469,(,0,0,1
4:58.558   107481,N,0,0,0
4:58.619   107503,),0,0,1
4:58.728   107542,(,0,0,2
4:58.817   107574,t,0,0,5
4:59.131   107687,t,0,0,5
4:59.192   107709,),0,0,2
4:59.414   107789,(,0,0,1
4:59.450   107802,N,0,0,0
4:59.489   107816,),0,0,1
4:59.572   107846,(,0,0,2
4:59.689   107888,t,0,0,0
4:59.775   107919,),0,0,2
5:00.239   108086,(,0,0,1
5:00.300   108108,N,0,0,0
5:00.364   108131,),0,0,1
5:00.431   108155,(,0,0,2
5:00.544   108196,t,0,0,5
5:00.819   108295,t,0,0,5
5:00.872   108314,),0,0,2
5:01.969   108709,(,0,0,1
5:02.008   108723,N,0,0,0
5:02.072   108746,),0,0,1
5:02.158   108777,(,0,0,2
5:02.275   108819,t,0,0,5
5:02.589   108932,t,0,0,5
5:02.639   108950,),0,0,2
5:04.600   109656,(,0,0,1
5:04.633   109668,N,0,0,0
5:04.692   109689,),0,0,1
5:04.769   109717,(,0,0,2
5:04.878   109756,t,0,0,0
5:04.978   109792,),0,0,2
5:05.439   109958,(,0,0,1
5:05.475   109971,N,0,0,0
5:05.514   109985,),0,0,1
5:05.611   110020,(,0,0,2
5:05.714   110057,t,0,0,0
5:05.789   110084,),0,0,2
5:06.231   110243,(,0,0,1
5:06.294   110266,N,0,0,0
5:06.356   110288,),0,0,1
5:06.411   110308,(,0,0,2
5:06.531   110351,t,0,0,5
5:06.803   110449,t,0,0,5
5:06.858   110469,),0,0,2
5:07.944   110860,(,0,0,1
5:08.011   110884,N,0,0,0
5:08.072   110906,),0,0,1
5:08.153   110935,(,0,0,2
5:08.264   110975,t,0,0,0
5:08.358   111009,),0,0,2
5:08.839   111182,(,0,0,1
5:08.906   111206,N,0,0,0
5:08.944   111220,),0,0,1
5:09.039   111254,(,0,0,2
5:09.156   111296,t,0,0,0
5:09.244   111328,),0,0,2
5:09.711   111496,(,0,0,1
5:09.775   111519,N,0,0,0
5:09.811   111532,),0,0,1
5:09.875   111555,(,0,0,2
5:10.003   111601,t,0,0,5
5:10.300   111708,t,0,0,5
5:10.358   111729,),0,0,2
5:11.433   112116,(,0,0,1
5:11.469   112129,N,0,0,0
5:11.536   112153,),0,0,1
5:11.619   112183,(,0,0,2
5:11.717   112218,t,0,0,5
5:12.014   112325,t,0,0,5
5:12.067   112344,),0,0,2
5:12.283   112422,(,0,0,1
5:12.319   112435,N,0,0,0
5:12.386   112459,),0,0,1
5:12.447   112481,(,0,0,2
5:12.567   112524,t,0,0,5
5:12.864   112631,t,0,0,5
5:12.914   112649,),0,0,2
5:13.117   112722,(,0,0,1
5:13.181   112745,N,0,0,0
5:13.242   112767,),0,0,1
5:13.350   112806,(,0,0,2
5:13.433   112836,t,0,0,0
5:13.522   112868,),0,0,2
5:14.900   113364,(,0,0,1
5:14.936   113377,N,0,0,0
5:14.983   113394,),0,0,1
5:15.097   113435,(,0,0,2
5:15.200   113472,t,0,0,0
5:15.283   113502,),0,0,2
5:16.689   114008,(,0,0,1
5:16.722   114020,N,0,0,0
5:16.783   114042,),0,0,1
5:16.864   114071,(,0,0,2
5:16.964   114107,t,0,0,0
5:17.050   114138,),0,0,2
5:19.217   114918,(,0,0,1
5:19.250   114930,N,0,0,0
5:19.314   114953,),0,0,1
5:19.411   114988,(,0,0,2
5:19.517   115026,t,0,0,5
5:19.814   115133,t,0,0,5
5:19.897   115163,),0,0,2
5:20.125   115245,(,0,0,1
5:20.161   115258,N,0,0,0
5:20.228   115282,),0,0,1
5:20.306   115310,(,0,0,2
5:20.419   115351,t,0,0,5
5:20.575   115407,t,0,0,5
5:20.800   115488,),0,0,2
5:20.997   115559,(,0,0,1
5:21.064   115583,N,0,0,0
5:21.128   115606,),0,0,1
5:21.206   115634,(,0,0,2
5:21.331   115679,t,0,0,5
5:21.631   115787,t,0,0,5
5:21.700   115812,),0,0,2
5:23.594   116494,(,0,0,1
5:23.631   116507,N,0,0,0
5:23.692   116529,),0,0,1
5:23.747   116549,(,0,0,2
5:23.864   116591,t,0,0,0
5:23.958   116625,),0,0,2
5:24.447   116801,(,0,0,1
5:24.483   116814,N,0,0,0
5:24.544   116836,),0,0,1
5:24.619   116863,(,0,0,2
5:24.722   116900,t,0,0,5
5:24.981   116993,t,0,0,5
5:25.039   117014,),0,0,2
5:27.031   117731,(,0,0,1
5:27.064   117743,N,0,0,0
5:27.128   117766,),0,0,1
5:27.231   117803,(,0,0,2
5:27.331   117839,t,0,0,0
5:27.419   117871,),0,0,2
5:28.761   118354,(,0,0,1
5:28.783   118362,N,0,0,0
5:28.844   118384,),0,0,1
5:28.936   118417,(,0,0,2
5:29.039   118454,t,0,0,0
5:29.119   118483,),0,0,2
5:29.606   118658,(,0,0,1
5:29.639   118670,N,0,0,0
5:29.700   118692,),0,0,1
5:29.778   118720,(,0,0,2
5:29.878   118756,t,0,0,0
5:29.967   118788,),0,0,2
5:30.403   118945,(,0,0,1
5:30.467   118968,N,0,0,0
5:30.528   118990,),0,0,1
5:30.575   119007,(,0,0,2
5:30.703   119053,t,0,0,0
5:30.789   119084,),0,0,2
5:32.150   119574,(,0,0,1
5:32.183   119586,N,0,0,0
5:32.228   119602,),0,0,1
5:32.322   119636,(,0,0,2
5:32.444   119680,t,0,0,0
5:32.525   119709,),0,0,2
5:33.047   119897,(,0,0,1
5:33.083   119910,N,0,0,0
5:33.150   119934,),0,0,1
5:33.222   119960,(,0,0,2
5:33.347   120005,t,0,0,5
5:33.650   120114,t,0,0,5
5:33.717   120138,),0,0,2
5:34.772   120518,(,0,0,1
5:34.803   120529,N,0,0,0
5:34.844   120544,),0,0,1
5:34.936   120577,(,0,0,2
5:35.047   120617,t,0,0,0
5:35.128   120646,),0,0,2
5:35.614   120821,(,0,0,1
5:35.650   120834,N,0,0,0
5:35.711   120856,),0,0,1
5:35.786   120883,(,0,0,2
5:35.883   120918,t,0,0,0
5:35.967   120948,),0,0,2
5:37.244   121408,(,0,0,1
5:37.281   121421,N,0,0,0
5:37.344   121444,),0,0,1
5:37.436   121477,(,0,0,2
5:37.550   121518,t,0,0,5
5:37.856   121628,t,0,0,5
5:37.925   121653,),0,0,2
5:38.147   121733,(,0,0,1
5:38.183   121746,N,0,0,0
5:38.228   121762,),0,0,1
5:38.328   121798,(,0,0,2
5:38.447   121841,t,0,0,0
5:38.536   121873,),0,0,2
5:39.006   122042,(,0,0,1
5:39.069   122065,N,0,0,0
5:39.131   122087,),0,0,1
5:39.217   122118,(,0,0,2
5:39.328   122158,t,0,0,5
5:39.458   122205,t,0,0,5
5:39.686   122287,),0,0,2
5:40.733   122664,(,0,0,1
5:40.769   122677,N,0,0,0
5:40.811   122692,),0,0,1
5:40.906   122726,(,0,0,2
5:41.019   122767,t,0,0,0
5:41.106   122798,),0,0,2
5:41.594   122974,(,0,0,1
5:41.628   122986,N,0,0,0
5:41.669   123001,),0,0,1
5:41.764   123035,(,0,0,2
5:41.872   123074,t,0,0,0
5:41.956   123104,),0,0,2
5:42.417   123270,(,0,0,1
5:42.478   123292,N,0,0,0
5:42.544   123316,),0,0,1
5:42.611   123340,(,0,0,2
5:42.711   123376,t,0,0,0
5:42.797   123407,),0,0,2
5:44.125   123885,(,0,0,1
5:44.158   123897,N,0,0,0
5:44.219   123919,),0,0,1
5:44.306   123950,(,0,0,2
5:44.417   123990,t,0,0,5
5:44.706   124094,t,0,0,5
5:44.789   124124,),0,0,2
5:45.017   124206,(,0,0,1
5:45.050   124218,N,0,0,0
5:45.114   124241,),0,0,1
5:45.200   124272,(,0,0,2
5:45.311   124312,t,0,0,5
5:45.597   124415,t,0,0,5
5:45.658   124437,),0,0,2
5:46.728   124822,(,0,0,1
5:46.764   124835,N,0,0,0
5:46.831   124859,),0,0,1
5:46.897   124883,(,0,0,2
5:47.019   124927,t,0,0,5
5:47.300   125028,t,0,0,5
5:47.361   125050,),0,0,2
5:48.378   125416,(,0,0,1
5:48.411   125428,N,0,0,0
5:48.475   125451,),0,0,1
5:48.547   125477,(,0,0,2
5:48.650   125514,t,0,0,0
5:48.722   125540,),0,0,2
5:49.183   125706,(,0,0,1
5:49.217   125718,N,0,0,0
5:49.283   125742,),0,0,1
5:49.372   125774,(,0,0,2
5:49.481   125813,t,0,0,0
5:49.564   125843,),0,0,2
5:50.092   126033,(,0,0,1
5:50.128   126046,N,0,0,0
5:50.197   126071,),0,0,1
5:50.272   126098,(,0,0,2
5:50.394   126142,t,0,0,5
5:50.697   126251,t,0,0,5
5:50.758   126273,),0,0,2
5:50.989   126356,(,0,0,1
5:51.025   126369,N,0,0,0
5:51.086   126391,),0,0,1
5:51.167   126420,(,0,0,2
5:51.281   126461,t,0,0,5
5:51.583   126570,t,0,0,5
5:51.647   126593,),0,0,2
5:54.389   127580,(,0,0,1
5:54.422   127592,N,0,0,0
5:54.486   127615,),0,0,1
5:54.569   127645,(,0,0,2
5:54.669   127681,t,0,0,5
5:54.931   127775,t,0,0,5
5:54.994   127798,),0,0,2
5:55.222   127880,(,0,0,1
5:55.258   127893,N,0,0,0
5:55.322   127916,),0,0,1
5:55.406   127946,(,0,0,2
5:55.528   127990,t,0,0,5
5:55.817   128094,t,0,0,5
5:55.894   128122,),0,0,2
5:56.122   128204,(,0,0,1
5:56.158   128217,N,0,0,0
5:56.222   128240,),0,0,1
5:56.308   128271,(,0,0,2
5:56.414   128309,t,0,0,0
5:56.519   128347,),0,0,2
5:56.983   128514,(,0,0,1
5:57.047   128537,N,0,0,0
5:57.106   128558,),0,0,1
5:57.194   128590,(,0,0,2
5:57.303   128629,t,0,0,5
5:57.606   128738,t,0,0,5
5:57.669   128761,),0,0,2
5:58.761   129154,(,0,0,1
5:58.797   129167,N,0,0,0
5:58.839   129182,),0,0,1
5:58.939   129218,(,0,0,2
5:59.050   129258,t,0,0,0
5:59.133   129288,),0,0,2
5:59.614   129461,(,0,0,1
5:59.647   129473,N,0,0,0
5:59.706   129494,),0,0,1
5:59.797   129527,(,0,0,2
5:59.886   129559,t,0,0,5
5:59.986   129595,t,0,0,5
6:00.231   129683,),0,0,2
6:01.267   130056,(,0,0,1
6:01.303   130069,N,0,0,0
6:01.367   130092,),0,0,1
6:01.439   130118,(,0,0,2
6:01.553   130159,t,0,0,5
6:01.875   130275,t,0,0,5
6:01.939   130298,),0,0,2
6:03.067   130704,(,0,0,1
6:03.103   130717,N,0,0,0
6:03.169   130741,),0,0,1
6:03.250   130770,(,0,0,2
6:03.361   130810,t,0,0,0
6:03.447   130841,),0,0,2
6:03.939   131018,(,0,0,1
6:03.975   131031,N,0,0,0
6:04.039   131054,),0,0,1
6:04.119   131083,(,0,0,2
6:04.231   131123,t,0,0,0
6:04.322   131156,),0,0,2
6:06.522   131948,(,0,0,1
6:06.558   131961,N,0,0,0
6:06.619   131983,),0,0,1
6:06.694   132010,(,0,0,2
6:06.792   132045,t,0,0,5
6:07.092   132153,t,0,0,5
6:07.158   132177,),0,0,2
6:07.389   132260,(,0,0,1
6:07.425   132273,N,0,0,0
6:07.489   132296,),0,0,1
6:07.581   132329,(,0,0,2
6:07.678   132364,t,0,0,5
6:07.992   132477,t,0,0,5
6:08.061   132502,),0,0,2
6:09.186   132907,(,0,0,1
6:09.222   132920,N,0,0,0
6:09.286   132943,),0,0,1
6:09.375   132975,(,0,0,2
6:09.486   133015,t,0,0,0
6:09.575   133047,),0,0,2
6:10.047   133217,(,0,0,1
6:10.083   133230,N,0,0,0
6:10.125   133245,),0,0,1
6:10.236   133285,(,0,0,2
6:10.342   133323,t,0,0,0
6:10.422   133352,),0,0,2
6:10.911   133528,(,0,0,1
6:10.942   133539,N,0,0,0
6:11.006   133562,),0,0,1
6:11.075   133587,(,0,0,2
6:11.189   133628,t,0,0,0
6:11.269   133657,),0,0,2
6:11.758   133833,(,0,0,1
6:11.792   133845,N,0,0,0
6:11.831   133859,),0,0,1
6:11.928   133894,(,0,0,2
6:12.033   133932,t,0,0,5
6:12.319   134035,t,0,0,5
6:12.392   134061,),0,0,2
6:13.419   134431,(,0,0,1
6:13.486   134455,N,0,0,0
6:13.553   134479,),0,0,1
6:13.628   134506,(,0,0,2
6:13.739   134546,t,0,0,0
6:13.844   134584,),0,0,2
6:14.306   134750,(,0,0,1
6:14.369   134773,N,0,0,0
6:14.433   134796,),0,0,1
6:14.508   134823,(,0,0,2
6:14.625   134865,t,0,0,5
6:14.922   134972,t,0,0,5
6:14.997   134999,),0,0,2
6:15.206   135074,(,0,0,1
6:15.272   135098,N,0,0,0
6:15.339   135122,),0,0,1
6:15.431   135155,(,0,0,2
6:15.531   135191,t,0,0,0
6:15.631   135227,),0,0,2
6:16.089   135392,(,0,0,1
6:16.128   135406,N,0,0,0
6:16.189   135428,),0,0,1
6:16.264   135455,(,0,0,2
6:16.378   135496,t,0,0,5
6:16.672   135602,t,0,0,5
6:16.722   135620,),0,0,2
6:16.922   135692,(,0,0,1
6:16.986   135715,N,0,0,0
6:17.044   135736,),0,0,1
6:17.131   135767,(,0,0,2
6:17.225   135801,t,0,0,0
6:17.308   135831,),0,0,2
6:19.461   136606,(,0,0,1
6:19.497   136619,N,0,0,0
6:19.558   136641,),0,0,1
6:19.664   136679,(,0,0,2
6:19.764   136715,t,0,0,5
6:20.086   136831,t,0,0,5
6:20.139   136850,),0,0,2
6:20.375   136935,(,0,0,1
6:20.411   136948,N,0,0,0
6:20.475   136971,),0,0,1
6:20.556   137000,(,0,0,2
6:20.675   137043,t,0,0,0
6:20.767   137076,),0,0,2
6:21.294   137266,(,0,0,1
6:21.331   137279,N,0,0,0
6:21.394   137302,),0,0,1
6:21.464   137327,(,0,0,2
6:21.583   137370,t,0,0,5
6:21.881   137477,t,0,0,5
6:21.933   137496,),0,0,2
6:22.125   137565,(,0,0,1
6:22.192   137589,N,0,0,0
6:22.258   137613,),0,0,1
6:22.333   137640,(,0,0,2
6:22.439   137678,t,0,0,5
6:22.753   137791,t,0,0,5
6:22.811   137812,),0,0,2
6:23.000   137880,(,0,0,1
6:23.064   137903,N,0,0,0
6:23.125   137925,),0,0,1
6:23.200   137952,(,0,0,2
6:23.311   137992,t,0,0,0
6:23.406   138026,),0,0,2
6:26.433   139116,(,0,0,1
6:26.467   139128,N,0,0,0
6:26.528   139150,),0,0,1
6:26.617   139182,(,0,0,2
6:26.728   139222,t,0,0,5
6:27.017   139326,t,0,0,5
6:27.094   139354,),0,0,2
6:27.333   139440,(,0,0,1
6:27.369   139453,N,0,0,0
6:27.431   139475,),0,0,1
6:27.503   139501,(,0,0,2
6:27.614   139541,t,0,0,5
6:27.881   139637,t,0,0,5
6:27.939   139658,),0,0,2
6:28.175   139743,(,0,0,1
6:28.208   139755,N,0,0,0
6:28.253   139771,),0,0,1
6:28.356   139808,(,0,0,2
6:28.464   139847,t,0,0,0
6:28.556   139880,),0,0,2
6:29.039   140054,(,0,0,1
6:29.072   140066,N,0,0,0
6:29.131   140087,),0,0,1
6:29.208   140115,(,0,0,2
6:29.325   140157,t,0,0,0
6:29.439   140198,),0,0,2
6:29.842   140343,(,0,0,1
6:29.903   140365,N,0,0,0
6:29.961   140386,),0,0,1
6:30.039   140414,(,0,0,2
6:30.147   140453,t,0,0,0
6:30.228   140482,),0,0,2
6:30.667   140640,(,0,0,1
6:30.725   140661,N,0,0,0
6:30.781   140681,),0,0,1
6:30.836   140701,(,0,0,2
6:30.950   140742,t,0,0,5
6:31.225   140841,t,0,0,5
6:31.314   140873,),0,0,2
6:31.506   140942,(,0,0,1
6:31.572   140966,N,0,0,0
6:31.642   140991,),0,0,1
6:31.719   141019,(,0,0,2
6:31.833   141060,t,0,0,5
6:32.103   141157,t,0,0,5
6:32.203   141193,),0,0,2
6:32.406   141266,(,0,0,1
6:32.472   141290,N,0,0,0
6:32.539   141314,),0,0,1
6:32.611   141340,(,0,0,2
6:32.731   141383,t,0,0,5
6:32.994   141478,t,0,0,5
6:33.069   141505,),0,0,2
6:34.139   141890,(,0,0,1
6:34.172   141902,N,0,0,0
6:34.233   141924,),0,0,1
6:34.308   141951,(,0,0,2
6:34.428   141994,t,0,0,0
6:34.506   142022,),0,0,2
6:34.994   142198,(,0,0,1
6:35.028   142210,N,0,0,0
6:35.092   142233,),0,0,1
6:35.172   142262,(,0,0,2
6:35.269   142297,t,0,0,0
6:35.358   142329,),0,0,2
6:35.811   142492,(,0,0,1
6:35.869   142513,N,0,0,0
6:35.928   142534,),0,0,1
6:35.997   142559,(,0,0,2
6:36.108   142599,t,0,0,0
6:36.192   142629,),0,0,2
6:36.653   142795,(,0,0,1
6:36.711   142816,N,0,0,0
6:36.769   142837,),0,0,1
6:36.836   142861,(,0,0,2
6:36.933   142896,t,0,0,0
6:37.017   142926,),0,0,2
6:38.425   143433,(,0,0,1
6:38.461   143446,N,0,0,0
6:38.528   143470,),0,0,1
6:38.642   143511,(,0,0,2
6:38.722   143540,t,0,0,5
6:39.000   143640,t,0,0,5
6:39.089   143672,),0,0,2
6:39.319   143755,(,0,0,1
6:39.353   143767,N,0,0,0
6:39.397   143783,),0,0,1
6:39.528   143830,(,0,0,2
6:39.611   143860,t,0,0,0
6:39.692   143889,),0,0,2
6:40.183   144066,(,0,0,1
6:40.217   144078,N,0,0,0
6:40.261   144094,),0,0,1
6:40.383   144138,(,0,0,2
6:40.472   144170,t,0,0,0
6:40.558   144201,),0,0,2
6:41.922   144692,(,0,0,1
6:41.950   144702,N,0,0,0
6:42.011   144724,),0,0,1
6:42.119   144763,(,0,0,2
6:42.203   144793,t,0,0,0
6:42.283   144822,),0,0,2
6:42.767   144996,(,0,0,1
6:42.789   145004,N,0,0,0
6:42.847   145025,),0,0,1
6:42.933   145056,(,0,0,2
6:43.031   145091,t,0,0,0
6:43.103   145117,),0,0,2
6:43.628   145306,(,0,0,1
6:43.664   145319,N,0,0,0
6:43.731   145343,),0,0,1
6:43.814   145373,(,0,0,2
6:43.928   145414,t,0,0,5
6:44.197   145511,t,0,0,5
6:44.311   145552,),0,0,2
6:44.531   145631,(,0,0,1
6:44.567   145644,N,0,0,0
6:44.631   145667,),0,0,1
6:44.708   145695,(,0,0,2
6:44.828   145738,t,0,0,0
6:44.911   145768,),0,0,2
6:54.844   149344,(,0,0,1
6:54.908   149367,N,0,0,0
6:54.967   149388,),0,0,1
6:55.092   149433,(,0,0,2
6:55.172   149462,t,0,0,0
6:55.264   149495,),0,0,2
6:55.736   149665,(,0,0,1
6:55.803   149689,N,0,0,0
6:55.864   149711,),0,0,1
6:55.992   149757,(,0,0,2
6:56.069   149785,t,0,0,0
6:56.158   149817,),0,0,2
6:56.667   150000,(,0,0,1
6:56.694   150010,N,0,0,0
6:56.764   150035,),0,0,1
6:56.858   150069,(,0,0,2
6:56.958   150105,t,0,0,0
6:57.044   150136,),0,0,2
6:57.556   150320,(,0,0,1
6:57.622   150344,N,0,0,0
6:57.683   150366,),0,0,1
6:57.772   150398,(,0,0,2
6:57.872   150434,t,0,0,5
6:58.150   150534,t,0,0,5
6:58.231   150563,),0,0,2
7:00.153   151255,(,0,0,1
7:00.186   151267,N,0,0,0
7:00.250   151290,),0,0,1
7:00.339   151322,(,0,0,2
7:00.439   151358,t,0,0,0
7:00.522   151388,),0,0,2
7:00.997   151559,(,0,0,1
7:01.033   151572,N,0,0,0
7:01.097   151595,),0,0,1
7:01.169   151621,(,0,0,2
7:01.289   151664,t,0,0,5
7:01.600   151776,t,0,0,5
7:01.669   151801,),0,0,2
7:02.817   152214,(,0,0,1
7:02.853   152227,N,0,0,0
7:02.917   152250,),0,0,1
7:03.022   152288,(,0,0,2
7:03.114   152321,t,0,0,0
7:03.197   152351,),0,0,2
7:03.711   152536,(,0,0,1
7:03.742   152547,N,0,0,0
7:03.781   152561,),0,0,1
7:03.894   152602,(,0,0,2
7:03.981   152633,t,0,0,5
7:04.283   152742,t,0,0,5
7:04.344   152764,),0,0,2
7:04.575   152847,(,0,0,1
7:04.597   152855,N,0,0,0
7:04.667   152880,),0,0,1
7:04.750   152910,(,0,0,2
7:04.856   152948,t,0,0,5
7:05.153   153055,t,0,0,5
7:05.214   153077,),0,0,2
7:05.436   153157,(,0,0,1
7:05.467   153168,N,0,0,0
7:05.533   153192,),0,0,1
7:05.614   153221,(,0,0,2
7:05.722   153260,t,0,0,5
7:06.014   153365,t,0,0,5
7:06.081   153389,),0,0,2
7:06.303   153469,(,0,0,1
7:06.333   153480,N,0,0,0
7:06.400   153504,),0,0,1
7:06.467   153528,(,0,0,2
7:06.581   153569,t,0,0,5
7:06.864   153671,t,0,0,5
7:06.914   153689,),0,0,2
7:07.139   153770,(,0,0,1
7:07.175   153783,N,0,0,0
7:07.236   153805,),0,0,1
7:07.347   153845,(,0,0,2
7:07.439   153878,t,0,0,0
7:07.506   153902,),0,0,2
7:08.919   154411,(,0,0,1
7:08.953   154423,N,0,0,0
7:09.017   154446,),0,0,1
7:09.103   154477,(,0,0,2
7:09.219   154519,t,0,0,0
7:09.308   154551,),0,0,2
7:09.817   154734,(,0,0,1
7:09.847   154745,N,0,0,0
7:09.900   154764,),0,0,1
7:09.967   154788,(,0,0,2
7:10.086   154831,t,0,0,5
7:10.411   154948,t,0,0,5
7:10.469   154969,),0,0,2
7:12.381   155657,(,0,0,1
7:12.414   155669,N,0,0,0
7:12.472   155690,),0,0,1
7:12.564   155723,(,0,0,2
7:12.658   155757,t,0,0,5
7:12.897   155843,t,0,0,5
7:12.994   155878,),0,0,2
7:13.211   155956,(,0,0,1
7:13.247   155969,N,0,0,0
7:13.306   155990,),0,0,1
7:13.394   156022,(,0,0,2
7:13.511   156064,t,0,0,0
7:13.594   156094,),0,0,2
7:15.892   156921,(,0,0,1
7:15.917   156930,N,0,0,0
7:15.969   156949,),0,0,1
7:16.067   156984,(,0,0,2
7:16.158   157017,t,0,0,0
7:16.244   157048,),0,0,2
7:17.581   157529,(,0,0,1
7:17.606   157538,N,0,0,0
7:17.669   157561,),0,0,1
7:17.761   157594,(,0,0,2
7:17.850   157626,t,0,0,0
7:17.933   157656,),0,0,2
7:21.092   158793,(,0,0,1
7:21.125   158805,N,0,0,0
7:21.167   158820,),0,0,1
7:21.286   158863,(,0,0,2
7:21.386   158899,t,0,0,0
7:21.478   158932,),0,0,2
7:23.742   159747,(,0,0,1
7:23.772   159758,N,0,0,0
7:23.825   159777,),0,0,1
7:23.928   159814,(,0,0,2
7:24.019   159847,t,0,0,0
7:24.094   159874,),0,0,2
7:24.586   160051,(,0,0,1
7:24.617   160062,N,0,0,0
7:24.669   160081,),0,0,1
7:24.750   160110,(,0,0,2
7:24.839   160142,t,0,0,0
7:24.911   160168,),0,0,2
7:25.433   160356,(,0,0,1
7:25.467   160368,N,0,0,0
7:25.533   160392,),0,0,1
7:25.631   160427,(,0,0,2
7:25.725   160461,t,0,0,0
7:25.803   160489,),0,0,2
7:32.361   162850,(,0,0,1
7:32.394   162862,N,0,0,0
7:32.456   162884,),0,0,1
7:32.558   162921,(,0,0,2
7:32.661   162958,t,0,0,5
7:32.967   163068,t,0,0,5
7:33.031   163091,),0,0,2
7:33.261   163174,(,0,0,1
7:33.294   163186,N,0,0,0
7:33.358   163209,),0,0,1
7:33.444   163240,(,0,0,2
7:33.553   163279,t,0,0,5
7:33.814   163373,t,0,0,5
7:33.894   163402,),0,0,2
7:41.064   165983,(,0,0,1
7:41.092   165993,N,0,0,0
7:41.156   166016,),0,0,1
7:41.264   166055,(,0,0,2
7:41.347   166085,t,0,0,0
7:41.444   166120,),0,0,2
7:41.911   166288,(,0,0,1
7:41.936   166297,N,0,0,0
7:41.992   166317,),0,0,1
7:42.069   166345,(,0,0,2
7:42.181   166385,t,0,0,0
7:42.264   166415,),0,0,2
7:42.756   166592,(,0,0,1
7:42.778   166600,N,0,0,0
7:42.831   166619,),0,0,1
7:42.889   166640,(,0,0,2
7:43.014   166685,t,0,0,5
7:43.258   166773,t,0,0,5
7:43.381   166817,),0,0,2
7:45.428   167554,(,0,0,1
7:45.461   167566,N,0,0,0
7:45.528   167590,),0,0,1
7:45.631   167627,(,0,0,2
7:45.728   167662,t,0,0,0
7:45.808   167691,),0,0,2
7:46.289   167864,(,0,0,1
7:46.319   167875,N,0,0,0
7:46.381   167897,),0,0,1
7:46.478   167932,(,0,0,2
7:46.578   167968,t,0,0,5
7:46.861   168070,t,0,0,5
7:46.939   168098,),0,0,2
7:47.992   168477,(,0,0,1
7:48.017   168486,N,0,0,0
7:48.078   168508,),0,0,1
7:48.181   168545,(,0,0,2
7:48.278   168580,t,0,0,0
7:48.353   168607,),0,0,2
7:48.853   168787,(,0,0,1
7:48.878   168796,N,0,0,0
7:48.931   168815,),0,0,1
7:49.019   168847,(,0,0,2
7:49.122   168884,t,0,0,5
7:49.422   168992,t,0,0,5
7:49.489   169016,),0,0,2
7:49.689   169088,(,0,0,1
7:49.753   169111,N,0,0,0
7:49.817   169134,),0,0,1
7:49.917   169170,(,0,0,2
7:50.022   169208,t,0,0,0
7:50.106   169238,),0,0,2
7:51.478   169732,(,0,0,1
7:51.506   169742,N,0,0,0
7:51.567   169764,),0,0,1
7:51.678   169804,(,0,0,2
7:51.764   169835,t,0,0,0
7:51.847   169865,),0,0,2
7:52.342   170043,(,0,0,1
7:52.367   170052,N,0,0,0
7:52.428   170074,),0,0,1
7:52.536   170113,(,0,0,2
7:52.622   170144,t,0,0,0
7:52.711   170176,),0,0,2
7:53.197   170351,(,0,0,1
7:53.231   170363,N,0,0,0
7:53.292   170385,),0,0,1
7:53.364   170411,(,0,0,2
7:53.481   170453,t,0,0,0
7:53.561   170482,),0,0,2
7:54.053   170659,(,0,0,1
7:54.078   170668,N,0,0,0
7:54.142   170691,),0,0,1
7:54.219   170719,(,0,0,2
7:54.333   170760,t,0,0,0
7:54.422   170792,),0,0,2
7:54.878   170956,(,0,0,1
7:54.900   170964,N,0,0,0
7:54.961   170986,),0,0,1
7:55.028   171010,(,0,0,2
7:55.156   171056,t,0,0,5
7:55.444   171160,t,0,0,5
7:55.519   171187,),0,0,2
7:57.539   171914,(,0,0,1
7:57.564   171923,N,0,0,0
7:57.628   171946,),0,0,1
7:57.736   171985,(,0,0,2
7:57.817   172014,t,0,0,0
7:57.894   172042,),0,0,2
7:59.217   172518,(,0,0,1
7:59.242   172527,N,0,0,0
7:59.300   172548,),0,0,1
7:59.397   172583,(,0,0,2
7:59.497   172619,t,0,0,0
7:59.575   172647,),0,0,2
8:00.042   172815,(,0,0,1
8:00.067   172824,N,0,0,0
8:00.128   172846,),0,0,1
8:00.219   172879,(,0,0,2
8:00.314   172913,t,0,0,0
8:00.411   172948,),0,0,2
8:00.850   173106,(,0,0,1
8:00.878   173116,N,0,0,0
8:00.931   173135,),0,0,1
8:01.019   173167,(,0,0,2
8:01.125   173205,t,0,0,0
8:01.203   173233,),0,0,2
8:01.722   173420,(,0,0,1
8:01.747   173429,N,0,0,0
8:01.814   173453,),0,0,1
8:01.922   173492,(,0,0,2
8:02.014   173525,t,0,0,0
8:02.103   173557,),0,0,2
8:02.614   173741,(,0,0,1
8:02.650   173754,N,0,0,0
8:02.711   173776,),0,0,1
8:02.800   173808,(,0,0,2
8:02.906   173846,t,0,0,0
8:02.975   173871,),0,0,2
8:03.497   174059,(,0,0,1
8:03.531   174071,N,0,0,0
8:03.594   174094,),0,0,1
8:03.675   174123,(,0,0,2
8:03.783   174162,t,0,0,5
8:04.044   174256,t,0,0,5
8:04.111   174280,),0,0,2
8:04.333   174360,(,0,0,1
8:04.367   174372,N,0,0,0
8:04.431   174395,),0,0,1
8:04.508   174423,(,0,0,2
8:04.614   174461,t,0,0,5
8:04.908   174567,t,0,0,5
8:04.969   174589,),0,0,2
8:06.044   174976,(,0,0,1
8:06.075   174987,N,0,0,0
8:06.133   175008,),0,0,1
8:06.211   175036,(,0,0,2
8:06.325   175077,t,0,0,0
8:06.403   175105,),0,0,2
8:07.722   175580,(,0,0,1
8:07.756   175592,N,0,0,0
8:07.819   175615,),0,0,1
8:07.939   175658,(,0,0,2
8:08.028   175690,t,0,0,0
8:08.108   175719,),0,0,2
8:08.611   175900,(,0,0,1
8:08.644   175912,N,0,0,0
8:08.714   175937,),0,0,1
8:08.800   175968,(,0,0,2
8:08.914   176009,t,0,0,5
8:09.206   176114,t,0,0,5
8:09.278   176140,),0,0,2
8:09.503   176221,(,0,0,1
8:09.536   176233,N,0,0,0
8:09.600   176256,),0,0,1
8:09.692   176289,(,0,0,2
8:09.792   176325,t,0,0,5
8:10.069   176425,t,0,0,5
8:10.139   176450,),0,0,2
8:10.369   176533,(,0,0,1
8:10.394   176542,N,0,0,0
8:10.456   176564,),0,0,1
8:10.539   176594,(,0,0,2
8:10.656   176636,t,0,0,5
8:10.950   176742,t,0,0,5
8:11.017   176766,),0,0,2
8:11.247   176849,(,0,0,1
8:11.269   176857,N,0,0,0
8:11.328   176878,),0,0,1
8:11.419   176911,(,0,0,2
8:11.511   176944,t,0,0,5
8:11.667   177000,t,0,0,5
8:11.850   177066,),0,0,2
8:12.864   177431,(,0,0,1
8:12.886   177439,N,0,0,0
8:12.947   177461,),0,0,1
8:13.028   177490,(,0,0,2
8:13.142   177531,t,0,0,5
8:13.358   177609,t,0,0,5
8:13.517   177666,),0,0,2
8:13.739   177746,(,0,0,1
8:13.772   177758,N,0,0,0
8:13.817   177774,),0,0,1
8:13.925   177813,(,0,0,2
8:14.047   177857,t,0,0,0
8:14.128   177886,),0,0,2
8:17.975   179271,(,0,0,1
8:18.008   179283,N,0,0,0
8:18.067   179304,),0,0,1
8:18.156   179336,(,0,0,2
8:18.264   179375,t,0,0,0
8:18.361   179410,),0,0,2
8:18.806   179570,(,0,0,1
8:18.833   179580,N,0,0,0
8:18.875   179595,),0,0,1
8:18.994   179638,(,0,0,2
8:19.086   179671,t,0,0,0
8:19.156   179696,),0,0,2
8:20.525   180189,(,0,0,1
8:20.550   180198,N,0,0,0
8:20.617   180222,),0,0,1
8:20.728   180262,(,0,0,2
8:20.811   180292,t,0,0,0
8:20.894   180322,),0,0,2
8:21.406   180506,(,0,0,1
8:21.431   180515,N,0,0,0
8:21.497   180539,),0,0,1
8:21.583   180570,(,0,0,2
8:21.689   180608,t,0,0,0
8:21.781   180641,),0,0,2
8:22.261   180814,(,0,0,1
8:22.294   180826,N,0,0,0
8:22.358   180849,),0,0,1
8:22.431   180875,(,0,0,2
8:22.553   180919,t,0,0,5
8:22.808   181011,t,0,0,5
8:22.917   181050,),0,0,2
8:24.786   181723,(,0,0,1
8:24.808   181731,N,0,0,0
8:24.864   181751,),0,0,1
8:24.958   181785,(,0,0,2
8:25.047   181817,t,0,0,0
8:25.122   181844,),0,0,2
8:25.642   182031,(,0,0,1
8:25.675   182043,N,0,0,0
8:25.736   182065,),0,0,1
8:25.831   182099,(,0,0,2
8:25.936   182137,t,0,0,5
8:26.228   182242,t,0,0,5
8:26.303   182269,),0,0,2
8:36.081   185789,(,0,0,1
8:36.114   185801,N,0,0,0
8:36.169   185821,),0,0,1
8:36.269   185857,(,0,0,2
8:36.369   185893,t,0,0,0
8:36.444   185920,),0,0,2
9:13.522   199268,(,0,0,0
9:13.575   199287,p,0,0,0
9:13.656   199316,),0,0,0
9:13.761   199354,(,0,0,1
9:13.836   199381,N,0,0,0
9:13.906   199406,),0,0,1
9:13.978   199432,(,0,0,2
9:14.108   199479,t,0,0,0
9:14.186   199507,),0,0,2
9:14.403   199585,(,0,0,0
9:14.450   199602,p,0,0,0
9:14.536   199633,),0,0,0
9:14.622   199664,(,0,0,1
9:14.697   199691,N,0,0,0
9:14.764   199715,),0,0,1
9:14.842   199743,(,0,0,2
9:14.953   199783,t,0,0,5
9:15.206   199874,t,0,0,5
9:15.286   199903,),0,0,2
9:16.067   200184,(,0,0,0
9:16.114   200201,p,0,0,0
9:16.208   200235,),0,0,0
9:16.300   200268,(,0,0,1
9:16.372   200294,N,0,0,0
9:16.436   200317,),0,0,1
9:16.531   200351,(,0,0,2
9:16.625   200385,t,0,0,5
9:16.900   200484,t,0,0,5
9:16.958   200505,),0,0,2
9:16.978   200512,(,0,0,0
9:17.081   200549,p,0,0,0
9:17.111   200560,),0,0,0
9:17.136   200569,(,0,0,1
9:17.211   200596,N,0,0,0
9:17.278   200620,),0,0,1
9:17.336   200641,(,0,0,2
9:17.458   200685,t,0,0,0
9:17.539   200714,),0,0,2
9:17.733   200784,(,0,0,0
9:17.781   200801,p,0,0,0
9:17.831   200819,),0,0,0
9:17.950   200862,(,0,0,1
9:18.025   200889,N,0,0,0
9:18.097   200915,),0,0,1
9:18.153   200935,(,0,0,2
9:18.278   200980,t,0,0,0
9:18.350   201006,),0,0,2
9:18.578   201088,(,0,0,0
9:18.619   201103,p,0,0,0
9:18.689   201128,),0,0,0
9:18.769   201157,(,0,0,1
9:18.833   201180,N,0,0,0
9:18.903   201205,),0,0,1
9:18.972   201230,(,0,0,2
9:19.072   201266,t,0,0,5
9:19.358   201369,t,0,0,5
9:19.425   201393,),0,0,2
9:19.597   201455,(,0,0,1
9:19.678   201484,N,0,0,0
9:19.744   201508,),0,0,1
9:19.803   201529,(,0,0,2
9:19.931   201575,t,0,0,0
9:20.014   201605,),0,0,2
9:20.247   201689,(,0,0,0
9:20.292   201705,p,0,0,0
9:20.344   201724,),0,0,0
9:20.461   201766,(,0,0,1
9:20.536   201793,N,0,0,0
9:20.608   201819,),0,0,1
9:20.683   201846,(,0,0,2
9:20.797   201887,t,0,0,5
9:21.081   201989,t,0,0,5
9:21.136   202009,),0,0,2
9:21.947   202301,(,0,0,0
9:21.969   202309,p,0,0,0
9:22.006   202322,),0,0,0
9:22.144   202372,(,0,0,1
9:22.219   202399,N,0,0,0
9:22.283   202422,),0,0,1
9:22.361   202450,(,0,0,2
9:22.472   202490,t,0,0,0
9:22.572   202526,),0,0,2
9:22.753   202591,(,0,0,0
9:22.814   202613,p,0,0,0
9:22.900   202644,),0,0,0
9:22.978   202672,(,0,0,1
9:23.050   202698,N,0,0,0
9:23.111   202720,),0,0,1
9:23.200   202752,(,0,0,2
9:23.289   202784,t,0,0,0
9:23.378   202816,),0,0,2
9:23.564   202883,(,0,0,0
9:23.608   202899,p,0,0,0
9:23.694   202930,),0,0,0
9:23.778   202960,(,0,0,1
9:23.847   202985,N,0,0,0
9:23.911   203008,),0,0,1
9:23.986   203035,(,0,0,2
9:24.092   203073,t,0,0,0
9:24.172   203102,),0,0,2
9:24.392   203181,(,0,0,0
9:24.431   203195,p,0,0,0
9:24.467   203208,),0,0,0
9:24.592   203253,(,0,0,1
9:24.669   203281,N,0,0,0
9:24.725   203301,),0,0,1
9:24.831   203339,(,0,0,2
9:24.894   203362,t,0,0,0
9:24.969   203389,),0,0,2
9:25.197   203471,(,0,0,0
9:25.225   203481,p,0,0,0
9:25.289   203504,),0,0,0
9:25.406   203546,(,0,0,1
9:25.478   203572,N,0,0,0
9:25.550   203598,),0,0,1
9:25.619   203623,(,0,0,2
9:25.739   203666,t,0,0,5
9:26.011   203764,t,0,0,5
9:26.086   203791,),0,0,2
9:26.922   204092,(,0,0,0
9:26.978   204112,p,0,0,0
9:27.050   204138,),0,0,0
9:27.150   204174,(,0,0,1
9:27.219   204199,N,0,0,0
9:27.294   204226,),0,0,1
9:27.383   204258,(,0,0,2
9:27.464   204287,t,0,0,0
9:27.547   204317,),0,0,2
9:27.753   204391,(,0,0,0
9:27.811   204412,p,0,0,0
9:27.881   204437,),0,0,0
9:27.964   204467,(,0,0,1
9:28.039   204494,N,0,0,0
9:28.108   204519,),0,0,1
9:28.186   204547,(,0,0,2
9:28.289   204584,t,0,0,5
9:28.542   204675,t,0,0,5
9:28.628   204706,),0,0,2
9:28.683   204726,(,0,0,0
9:28.742   204747,p,0,0,0
9:28.772   204758,),0,0,0
9:28.808   204771,(,0,0,1
9:28.883   204798,N,0,0,0
9:28.947   204821,),0,0,1
9:29.017   204846,(,0,0,2
9:29.128   204886,t,0,0,0
9:29.211   204916,),0,0,2
9:29.431   204995,(,0,0,0
9:29.469   205009,p,0,0,0
9:29.533   205032,),0,0,0
9:29.639   205070,(,0,0,1
9:29.711   205096,N,0,0,0
9:29.778   205120,),0,0,1
9:29.842   205143,(,0,0,2
9:29.953   205183,t,0,0,5
9:30.203   205273,t,0,0,5
9:30.281   205301,),0,0,2
9:30.461   205366,(,0,0,1
9:30.533   205392,N,0,0,0
9:30.603   205417,),0,0,1
9:30.667   205440,(,0,0,2
9:30.761   205474,t,0,0,0
9:30.847   205505,),0,0,2
9:32.861   206230,(,0,0,0
9:32.892   206241,p,0,0,0
9:32.914   206249,),0,0,0
9:32.975   206271,(,0,0,1
9:33.047   206297,N,0,0,0
9:33.119   206323,),0,0,1
9:33.203   206353,(,0,0,2
9:33.317   206394,t,0,0,0
9:33.397   206423,),0,0,2
9:33.628   206506,(,0,0,0
9:33.658   206517,p,0,0,0
9:33.725   206541,),0,0,0
9:33.811   206572,(,0,0,1
9:33.892   206601,N,0,0,0
9:33.950   206622,),0,0,1
9:34.011   206644,(,0,0,2
9:34.131   206687,t,0,0,5
9:34.414   206789,t,0,0,5
9:34.481   206813,),0,0,2
9:34.669   206881,(,0,0,1
9:34.742   206907,N,0,0,0
9:34.806   206930,),0,0,1
9:34.894   206962,(,0,0,2
9:34.992   206997,t,0,0,0
9:35.072   207026,),0,0,2
9:35.294   207106,(,0,0,0
9:35.347   207125,p,0,0,0
9:35.386   207139,),0,0,0
9:35.519   207187,(,0,0,1
9:35.594   207214,N,0,0,0
9:35.656   207236,),0,0,1
9:35.733   207264,(,0,0,2
9:35.828   207298,t,0,0,0
9:35.906   207326,),0,0,2
9:36.142   207411,(,0,0,0
9:36.175   207423,p,0,0,0
9:36.211   207436,),0,0,0
9:36.347   207485,(,0,0,1
9:36.422   207512,N,0,0,0
9:36.486   207535,),0,0,1
9:36.572   207566,(,0,0,2
9:36.661   207598,t,0,0,5
9:36.914   207689,t,0,0,5
9:36.961   207706,),0,0,2
9:39.514   208625,(,0,0,0
9:39.561   208642,p,0,0,0
9:39.622   208664,),0,0,0
9:39.744   208708,(,0,0,1
9:39.811   208732,N,0,0,0
9:39.878   208756,),0,0,1
9:39.950   208782,(,0,0,2
9:40.047   208817,t,0,0,5
9:40.322   208916,t,0,0,5
9:40.383   208938,),0,0,2
9:40.567   209004,(,0,0,1
9:40.639   209030,N,0,0,0
9:40.711   209056,),0,0,1
9:40.792   209085,(,0,0,2
9:40.892   209121,t,0,0,5
9:41.153   209215,t,0,0,5
9:41.214   209237,),0,0,2
9:41.217   209238,(,0,0,0
9:41.225   209241,p,0,0,0
9:41.294   209266,),0,0,0
9:41.394   209302,(,0,0,1
9:41.469   209329,N,0,0,0
9:41.533   209352,),0,0,1
9:41.603   209377,(,0,0,2
9:41.717   209418,t,0,0,0
9:41.797   209447,),0,0,2
9:41.997   209519,(,0,0,0
9:42.056   209540,p,0,0,0
9:42.119   209563,),0,0,0
9:42.222   209600,(,0,0,1
9:42.292   209625,N,0,0,0
9:42.353   209647,),0,0,1
9:42.422   209672,(,0,0,2
9:42.533   209712,t,0,0,0
9:42.622   209744,),0,0,2
9:44.542   210435,(,0,0,0
9:44.586   210451,p,0,0,0
9:44.656   210476,),0,0,0
9:44.764   210515,(,0,0,1
9:44.836   210541,N,0,0,0
9:44.906   210566,),0,0,1
9:44.978   210592,(,0,0,2
9:45.097   210635,t,0,0,0
9:45.175   210663,),0,0,2
9:45.406   210746,(,0,0,0
9:45.444   210760,p,0,0,0
9:45.544   210796,),0,0,0
9:45.628   210826,(,0,0,1
9:45.703   210853,N,0,0,0
9:45.769   210877,),0,0,1
9:45.842   210903,(,0,0,2
9:45.933   210936,t,0,0,0
9:46.000   210960,),0,0,2
9:46.222   211040,(,0,0,0
9:46.269   211057,p,0,0,0
9:46.350   211086,),0,0,0
9:46.453   211123,(,0,0,1
9:46.528   211150,N,0,0,0
9:46.594   211174,),0,0,1
9:46.700   211212,(,0,0,2
9:46.789   211244,t,0,0,5
9:47.056   211340,t,0,0,5
9:47.108   211359,),0,0,2
9:47.294   211426,(,0,0,1
9:47.367   211452,N,0,0,0
9:47.431   211475,),0,0,1
9:47.508   211503,(,0,0,2
9:47.617   211542,t,0,0,5
9:47.875   211635,t,0,0,5
9:47.931   211655,),0,0,2
9:48.111   211720,(,0,0,1
9:48.183   211746,N,0,0,0
9:48.250   211770,),0,0,1
9:48.308   211791,(,0,0,2
9:48.431   211835,t,0,0,0
9:48.514   211865,),0,0,2
9:48.717   211938,(,0,0,0
9:48.767   211956,p,0,0,0
9:48.847   211985,),0,0,0
9:48.908   212007,(,0,0,1
9:48.978   212032,N,0,0,0
9:49.047   212057,),0,0,1
9:49.111   212080,(,0,0,2
9:49.233   212124,t,0,0,5
9:49.528   212230,t,0,0,5
9:49.592   212253,),0,0,2
9:49.772   212318,(,0,0,1
9:49.847   212345,N,0,0,0
9:49.919   212371,),0,0,1
9:49.989   212396,(,0,0,2
9:50.114   212441,t,0,0,5
9:50.419   212551,t,0,0,5
9:50.475   212571,),0,0,2
9:52.108   213159,(,0,0,0
9:52.164   213179,p,0,0,0
9:52.231   213203,),0,0,0
9:52.350   213246,(,0,0,1
9:52.422   213272,N,0,0,0
9:52.492   213297,),0,0,1
9:52.594   213334,(,0,0,2
9:52.683   213366,t,0,0,0
9:52.753   213391,),0,0,2
9:52.964   213467,(,0,0,0
9:53.019   213487,p,0,0,0
9:53.067   213504,),0,0,0
9:53.186   213547,(,0,0,1
9:53.258   213573,N,0,0,0
9:53.322   213596,),0,0,1
9:53.406   213626,(,0,0,2
9:53.506   213662,t,0,0,0
9:53.603   213697,),0,0,2
9:54.589   214052,(,0,0,0
9:54.633   214068,p,0,0,0
9:54.706   214094,),0,0,0
9:54.800   214128,(,0,0,1
9:54.864   214151,N,0,0,0
9:54.928   214174,),0,0,1
9:55.031   214211,(,0,0,2
9:55.114   214241,t,0,0,5
9:55.394   214342,t,0,0,5
9:55.458   214365,),0,0,2
9:55.653   214435,(,0,0,1
9:55.728   214462,N,0,0,0
9:55.794   214486,),0,0,1
9:55.881   214517,(,0,0,2
9:55.992   214557,t,0,0,5
9:56.258   214653,t,0,0,5
9:56.342   214683,),0,0,2
9:56.525   214749,(,0,0,1
9:56.606   214778,N,0,0,0
9:56.678   214804,),0,0,1
9:56.761   214834,(,0,0,2
9:56.875   214875,t,0,0,0
9:56.950   214902,),0,0,2
9:57.178   214984,(,0,0,0
9:57.222   215000,p,0,0,0
9:57.314   215033,),0,0,0
9:57.406   215066,(,0,0,1
9:57.478   215092,N,0,0,0
9:57.544   215116,),0,0,1
9:57.644   215152,(,0,0,2
9:57.731   215183,t,0,0,0
9:57.797   215207,),0,0,2
9:57.992   215277,(,0,0,0
9:58.039   215294,p,0,0,0
9:58.114   215321,),0,0,0
9:58.222   215360,(,0,0,1
9:58.297   215387,N,0,0,0
9:58.361   215410,),0,0,1
9:58.453   215443,(,0,0,2
9:58.553   215479,t,0,0,0
9:58.631   215507,),0,0,2
9:58.844   215584,(,0,0,0
9:58.894   215602,p,0,0,0
9:58.972   215630,),0,0,0
9:59.064   215663,(,0,0,1
9:59.133   215688,N,0,0,0
9:59.197   215711,),0,0,1
9:59.281   215741,(,0,0,2
9:59.383   215778,t,0,0,0
9:59.469   215809,),0,0,2
9:59.678   215884,(,0,0,0
9:59.731   215903,p,0,0,0
9:59.806   215930,),0,0,0
9:59.894   215962,(,0,0,1
9:59.967   215988,N,0,0,0
   10:00.028   216010,),0,0,1
   10:00.086   216031,(,0,0,2
   10:00.211   216076,t,0,0,5
   10:00.489   216176,t,0,0,5
   10:00.550   216198,),0,0,2
   10:02.164   216779,(,0,0,0
   10:02.222   216800,p,0,0,0
   10:02.283   216822,),0,0,0
   10:02.392   216861,(,0,0,1
   10:02.467   216888,N,0,0,0
   10:02.533   216912,),0,0,1
   10:02.639   216950,(,0,0,2
   10:02.728   216982,t,0,0,5
   10:02.947   217061,t,0,0,5
   10:03.075   217107,),0,0,2
   10:03.256   217172,(,0,0,1
   10:03.331   217199,N,0,0,0
   10:03.400   217224,),0,0,1
   10:03.492   217257,(,0,0,2
   10:03.597   217295,t,0,0,5
   10:03.864   217391,t,0,0,5
   10:03.922   217412,),0,0,2
   10:04.097   217475,(,0,0,1
   10:04.175   217503,N,0,0,0
   10:04.242   217527,),0,0,1
   10:04.336   217561,(,0,0,2
   10:04.433   217596,t,0,0,5
   10:04.694   217690,t,0,0,5
   10:04.756   217712,),0,0,2
   10:04.928   217774,(,0,0,1
   10:05.008   217803,N,0,0,0
   10:05.072   217826,),0,0,1
   10:05.136   217849,(,0,0,2
   10:05.258   217893,t,0,0,0
   10:05.342   217923,),0,0,2
   10:05.544   217996,(,0,0,0
   10:05.592   218013,p,0,0,0
   10:05.653   218035,),0,0,0
   10:05.744   218068,(,0,0,1
   10:05.817   218094,N,0,0,0
   10:05.878   218116,),0,0,1
   10:05.936   218137,(,0,0,2
   10:06.050   218178,t,0,0,0
   10:06.142   218211,),0,0,2
   10:07.131   218567,(,0,0,0
   10:07.175   218583,p,0,0,0
   10:07.250   218610,),0,0,0
   10:07.347   218645,(,0,0,1
   10:07.422   218672,N,0,0,0
   10:07.486   218695,),0,0,1
   10:07.558   218721,(,0,0,2
   10:07.675   218763,t,0,0,5
   10:07.956   218864,t,0,0,5
   10:08.022   218888,),0,0,2
   10:08.206   218954,(,0,0,1
   10:08.283   218982,N,0,0,0
   10:08.353   219007,),0,0,1
   10:08.417   219030,(,0,0,2
   10:08.539   219074,t,0,0,5
   10:08.825   219177,t,0,0,5
   10:08.889   219200,),0,0,2
   10:09.067   219264,(,0,0,1
   10:09.144   219292,N,0,0,0
   10:09.214   219317,),0,0,1
   10:09.281   219341,(,0,0,2
   10:09.411   219388,t,0,0,0
   10:09.497   219419,),0,0,2
   10:09.706   219494,(,0,0,0
   10:09.747   219509,p,0,0,0
   10:09.817   219534,),0,0,0
   10:09.903   219565,(,0,0,1
   10:09.967   219588,N,0,0,0
   10:10.028   219610,),0,0,1
   10:10.097   219635,(,0,0,2
   10:10.217   219678,t,0,0,0
   10:10.308   219711,),0,0,2
   10:10.522   219788,(,0,0,0
   10:10.564   219803,p,0,0,0
   10:10.633   219828,),0,0,0
   10:10.728   219862,(,0,0,1
   10:10.803   219889,N,0,0,0
   10:10.869   219913,),0,0,1
   10:10.928   219934,(,0,0,2
   10:11.042   219975,t,0,0,0
   10:11.136   220009,),0,0,2
   10:11.322   220076,(,0,0,0
   10:11.369   220093,p,0,0,0
   10:11.433   220116,),0,0,0
   10:11.536   220153,(,0,0,1
   10:11.611   220180,N,0,0,0
   10:11.678   220204,),0,0,1
   10:11.744   220228,(,0,0,2
   10:11.847   220265,t,0,0,0
   10:11.931   220295,),0,0,2
   10:12.914   220649,(,0,0,0
   10:12.950   220662,p,0,0,0
   10:13.033   220692,),0,0,0
   10:13.114   220721,(,0,0,1
   10:13.189   220748,N,0,0,0
   10:13.258   220773,),0,0,1
   10:13.331   220799,(,0,0,2
   10:13.453   220843,t,0,0,0
   10:13.536   220873,),0,0,2
   10:13.742   220947,(,0,0,0
   10:13.792   220965,p,0,0,0
   10:13.861   220990,),0,0,0
   10:13.969   221029,(,0,0,1
   10:14.039   221054,N,0,0,0
   10:14.108   221079,),0,0,1
   10:14.175   221103,(,0,0,2
   10:14.289   221144,t,0,0,0
   10:14.389   221180,),0,0,2
   10:14.603   221257,(,0,0,0
   10:14.639   221270,p,0,0,0
   10:14.703   221293,),0,0,0
   10:14.822   221336,(,0,0,1
   10:14.897   221363,N,0,0,0
   10:14.964   221387,),0,0,1
   10:15.047   221417,(,0,0,2
   10:15.144   221452,t,0,0,0
   10:15.211   221476,),0,0,2
   10:15.428   221554,(,0,0,0
   10:15.483   221574,p,0,0,0
   10:15.572   221606,),0,0,0
   10:15.664   221639,(,0,0,1
   10:15.736   221665,N,0,0,0
   10:15.800   221688,),0,0,1
   10:15.892   221721,(,0,0,2
   10:15.964   221747,t,0,0,0
   10:16.042   221775,),0,0,2
   10:16.247   221849,(,0,0,0
   10:16.292   221865,p,0,0,0
   10:16.372   221894,),0,0,0
   10:16.469   221929,(,0,0,1
   10:16.544   221956,N,0,0,0
   10:16.614   221981,),0,0,1
   10:16.697   222011,(,0,0,2
   10:16.800   222048,t,0,0,0
   10:16.886   222079,),0,0,2
   10:17.097   222155,(,0,0,0
   10:17.144   222172,p,0,0,0
   10:17.228   222202,),0,0,0
   10:17.311   222232,(,0,0,1
   10:17.383   222258,N,0,0,0
   10:17.450   222282,),0,0,1
   10:17.519   222307,(,0,0,2
   10:17.633   222348,t,0,0,0
   10:17.714   222377,),0,0,2
   10:17.922   222452,(,0,0,0
   10:17.967   222468,p,0,0,0
   10:18.033   222492,),0,0,0
   10:18.128   222526,(,0,0,1
   10:18.203   222553,N,0,0,0
   10:18.269   222577,),0,0,1
   10:18.333   222600,(,0,0,2
   10:18.447   222641,t,0,0,0
   10:18.531   222671,),0,0,2
   10:18.744   222748,(,0,0,0
   10:18.783   222762,p,0,0,0
   10:18.839   222782,),0,0,0
   10:18.933   222816,(,0,0,1
   10:19.003   222841,N,0,0,0
   10:19.067   222864,),0,0,1
   10:19.139   222890,(,0,0,2
   10:19.253   222931,t,0,0,0
   10:19.333   222960,),0,0,2
   10:19.556   223040,(,0,0,0
   10:19.606   223058,p,0,0,0
   10:19.656   223076,),0,0,0
   10:19.775   223119,(,0,0,1
   10:19.853   223147,N,0,0,0
   10:19.922   223172,),0,0,1
   10:20.006   223202,(,0,0,2
   10:20.117   223242,t,0,0,0
   10:20.203   223273,),0,0,2
   10:20.428   223354,(,0,0,0
   10:20.481   223373,p,0,0,0
   10:20.558   223401,),0,0,0
   10:20.658   223437,(,0,0,1
   10:20.733   223464,N,0,0,0
   10:20.806   223490,),0,0,1
   10:20.892   223521,(,0,0,2
   10:20.997   223559,t,0,0,0
   10:21.089   223592,),0,0,2
   10:22.119   223963,(,0,0,0
   10:22.161   223978,p,0,0,0
   10:22.247   224009,),0,0,0
   10:22.331   224039,(,0,0,1
   10:22.406   224066,N,0,0,0
   10:22.469   224089,),0,0,1
   10:22.567   224124,(,0,0,2
   10:22.653   224155,t,0,0,0
   10:22.731   224183,),0,0,2
   10:22.933   224256,(,0,0,0
   10:22.981   224273,p,0,0,0
   10:23.036   224293,),0,0,0
   10:23.153   224335,(,0,0,1
   10:23.222   224360,N,0,0,0
   10:23.286   224383,),0,0,1
   10:23.364   224411,(,0,0,2
   10:23.461   224446,t,0,0,0
   10:23.550   224478,),0,0,2
   10:23.767   224556,(,0,0,0
   10:23.811   224572,p,0,0,0
   10:23.869   224593,),0,0,0
   10:23.975   224631,(,0,0,1
   10:24.050   224658,N,0,0,0
   10:24.114   224681,),0,0,1
   10:24.189   224708,(,0,0,2
   10:24.286   224743,t,0,0,0
   10:24.367   224772,),0,0,2
   10:24.583   224850,(,0,0,0
   10:24.625   224865,p,0,0,0
   10:24.683   224886,),0,0,0
   10:24.781   224921,(,0,0,1
   10:24.853   224947,N,0,0,0
   10:24.914   224969,),0,0,1
   10:24.978   224992,(,0,0,2
   10:25.086   225031,t,0,0,0
   10:25.169   225061,),0,0,2
   10:25.394   225142,(,0,0,0
   10:25.450   225162,p,0,0,0
   10:25.519   225187,),0,0,0
   10:25.628   225226,(,0,0,1
   10:25.706   225254,N,0,0,0
   10:25.775   225279,),0,0,1
   10:25.842   225303,(,0,0,2
   10:25.964   225347,t,0,0,5
   10:26.264   225455,t,0,0,5
   10:26.328   225478,),0,0,2
   10:26.511   225544,(,0,0,1
   10:26.589   225572,N,0,0,0
   10:26.658   225597,),0,0,1
   10:26.733   225624,(,0,0,2
   10:26.842   225663,t,0,0,5
   10:27.142   225771,t,0,0,5
   10:27.208   225795,),0,0,2
   10:27.394   225862,(,0,0,1
   10:27.467   225888,N,0,0,0
   10:27.539   225914,),0,0,1
   10:27.611   225940,(,0,0,2
   10:27.711   225976,t,0,0,0
   10:27.806   226010,),0,0,2
   10:27.983   226074,(,0,0,0
   10:28.033   226092,p,0,0,0
   10:28.103   226117,),0,0,0
   10:28.222   226160,(,0,0,1
   10:28.300   226188,N,0,0,0
   10:28.369   226213,),0,0,1
   10:28.442   226239,(,0,0,2
   10:28.550   226278,t,0,0,0
   10:28.636   226309,),0,0,2
   10:28.864   226391,(,0,0,0
   10:28.908   226407,p,0,0,0
   10:28.969   226429,),0,0,0
   10:29.089   226472,(,0,0,1
   10:29.164   226499,N,0,0,0
   10:29.233   226524,),0,0,1
   10:29.311   226552,(,0,0,2
   10:29.414   226589,t,0,0,0
   10:29.503   226621,),0,0,2
   10:29.717   226698,(,0,0,0
   10:29.764   226715,p,0,0,0
   10:29.828   226738,),0,0,0
   10:29.931   226775,(,0,0,1
   10:30.006   226802,N,0,0,0
   10:30.075   226827,),0,0,1
   10:30.142   226851,(,0,0,2
   10:30.256   226892,t,0,0,0
   10:30.339   226922,),0,0,2
   10:30.572   227006,(,0,0,0
   10:30.614   227021,p,0,0,0
   10:30.672   227042,),0,0,0
   10:30.775   227079,(,0,0,1
   10:30.844   227104,N,0,0,0
   10:30.906   227126,),0,0,1
   10:30.964   227147,(,0,0,2
   10:31.075   227187,t,0,0,0
   10:31.167   227220,),0,0,2
   10:31.403   227305,(,0,0,0
   10:31.450   227322,p,0,0,0
   10:31.517   227346,),0,0,0
   10:31.644   227392,(,0,0,1
   10:31.719   227419,N,0,0,0
   10:31.792   227445,),0,0,1
   10:31.867   227472,(,0,0,2
   10:31.975   227511,t,0,0,5
   10:32.133   227568,t,0,0,5
   10:32.336   227641,),0,0,2
   10:32.528   227710,(,0,0,1
   10:32.611   227740,N,0,0,0
   10:32.678   227764,),0,0,1
   10:32.744   227788,(,0,0,2
   10:32.858   227829,t,0,0,0
   10:32.958   227865,),0,0,2
   10:33.233   227964,(,0,0,0
   10:33.308   227991,p,0,0,0
   10:33.375   228015,),0,0,0
   10:33.408   228027,(,0,0,1
   10:33.500   228060,N,0,0,0
   10:33.536   228073,),0,0,1
   10:33.656   228116,(,0,0,2
   10:33.753   228151,t,0,0,0
   10:33.842   228183,),0,0,2
   10:34.031   228251,(,0,0,0
   10:34.075   228267,p,0,0,0
   10:34.169   228301,),0,0,0
   10:34.275   228339,(,0,0,1
   10:34.350   228366,N,0,0,0
   10:34.417   228390,),0,0,1
   10:34.519   228427,(,0,0,2
   10:34.606   228458,t,0,0,5
   10:34.925   228573,t,0,0,5
   10:34.967   228588,),0,0,2
   10:35.011   228604,(,0,0,0
   10:35.083   228630,p,0,0,0
   10:35.111   228640,),0,0,0
   10:35.150   228654,(,0,0,1
   10:35.233   228684,N,0,0,0
   10:35.297   228707,),0,0,1
   10:35.381   228737,(,0,0,2
   10:35.481   228773,t,0,0,0
   10:35.561   228802,),0,0,2
   10:35.786   228883,(,0,0,0
   10:35.828   228898,p,0,0,0
   10:35.892   228921,),0,0,0
   10:35.994   228958,(,0,0,1
   10:36.111   229000,N,0,0,0
   10:36.139   229010,),0,0,1
   10:36.208   229035,(,0,0,2
   10:36.308   229071,t,0,0,0
   10:36.403   229105,),0,0,2
   10:36.633   229188,(,0,0,0
   10:36.672   229202,p,0,0,0
   10:36.733   229224,),0,0,0
   10:36.828   229258,(,0,0,1
   10:36.903   229285,N,0,0,0
   10:36.961   229306,),0,0,1
   10:37.039   229334,(,0,0,2
   10:37.153   229375,t,0,0,0
   10:37.236   229405,),0,0,2
   10:37.486   229495,(,0,0,0
   10:37.539   229514,p,0,0,0
   10:37.636   229549,),0,0,0
   10:37.725   229581,(,0,0,1
   10:37.806   229610,N,0,0,0
   10:37.875   229635,),0,0,1
   10:37.947   229661,(,0,0,2
   10:38.067   229704,t,0,0,0
   10:38.158   229737,),0,0,2
   10:38.411   229828,(,0,0,0
   10:38.453   229843,p,0,0,0
   10:38.550   229878,),0,0,0
   10:38.653   229915,(,0,0,1
   10:38.728   229942,N,0,0,0
   10:38.797   229967,),0,0,1
   10:38.903   230005,(,0,0,2
   10:38.989   230036,t,0,0,0
   10:39.053   230059,),0,0,2
   10:39.289   230144,(,0,0,0
   10:39.333   230160,p,0,0,0
   10:39.419   230191,),0,0,0
   10:39.525   230229,(,0,0,1
   10:39.600   230256,N,0,0,0
   10:39.667   230280,),0,0,1
   10:39.764   230315,(,0,0,2
   10:39.856   230348,t,0,0,5
   10:40.119   230443,t,0,0,5
   10:40.175   230463,),0,0,2
   10:40.369   230533,(,0,0,1
   10:40.444   230560,N,0,0,0
   10:40.511   230584,),0,0,1
   10:40.600   230616,(,0,0,2
   10:40.708   230655,t,0,0,0
   10:40.797   230687,),0,0,2
   10:41.017   230766,(,0,0,0
   10:41.072   230786,p,0,0,0
   10:41.147   230813,),0,0,0
   10:41.242   230847,(,0,0,1
   10:41.314   230873,N,0,0,0
   10:41.378   230896,),0,0,1
   10:41.461   230926,(,0,0,2
   10:41.558   230961,t,0,0,0
   10:41.639   230990,),0,0,2
   10:41.886   231079,(,0,0,0
   10:41.928   231094,p,0,0,0
   10:42.003   231121,),0,0,0
   10:42.094   231154,(,0,0,1
   10:42.169   231181,N,0,0,0
   10:42.233   231204,),0,0,1
   10:42.303   231229,(,0,0,2
   10:42.414   231269,t,0,0,0
   10:42.503   231301,),0,0,2
   10:42.731   231383,(,0,0,0
   10:42.772   231398,p,0,0,0
   10:42.839   231422,),0,0,0
   10:42.928   231454,(,0,0,1
   10:43.036   231493,N,0,0,0
   10:43.094   231514,),0,0,1
   10:43.119   231523,(,0,0,2
   10:43.244   231568,t,0,0,0
   10:43.331   231599,),0,0,2
   10:43.586   231691,(,0,0,0
   10:43.628   231706,p,0,0,0
   10:43.708   231735,),0,0,0
   10:43.808   231771,(,0,0,1
   10:43.883   231798,N,0,0,0
   10:43.947   231821,),0,0,1
   10:44.042   231855,(,0,0,2
   10:44.147   231893,t,0,0,0
   10:44.225   231921,),0,0,2
   10:44.467   232008,(,0,0,0
   10:44.517   232026,p,0,0,0
   10:44.589   232052,),0,0,0
   10:44.694   232090,(,0,0,1
   10:44.769   232117,N,0,0,0
   10:44.839   232142,),0,0,1
   10:44.925   232173,(,0,0,2
   10:45.033   232212,t,0,0,0
   10:45.125   232245,),0,0,2
   10:45.372   232334,(,0,0,0
   10:45.411   232348,p,0,0,0
   10:45.492   232377,),0,0,0
   10:45.589   232412,(,0,0,1
   10:45.708   232455,N,0,0,0
   10:45.742   232467,),0,0,1
   10:45.806   232490,(,0,0,2
   10:45.917   232530,t,0,0,0
   10:45.986   232555,),0,0,2
   10:46.261   232654,(,0,0,0
   10:46.294   232666,p,0,0,0
   10:46.367   232692,),0,0,0
   10:46.406   232706,(,0,0,1
   10:46.500   232740,N,0,0,0
   10:46.667   232800,),0,0,1
   10:46.672   232802,(,0,0,2
   10:46.758   232833,t,0,0,0
   10:46.869   232873,),0,0,2
   10:47.064   232943,(,0,0,0
   10:47.117   232962,p,0,0,0
   10:47.192   232989,),0,0,0
   10:47.286   233023,(,0,0,1
   10:47.356   233048,N,0,0,0
   10:47.422   233072,),0,0,1
   10:47.517   233106,(,0,0,2
   10:47.600   233136,t,0,0,0
   10:47.681   233165,),0,0,2
   10:47.961   233266,(,0,0,0
   10:47.997   233279,p,0,0,0
   10:48.064   233303,),0,0,0
   10:48.097   233315,(,0,0,1
   10:48.175   233343,N,0,0,0
   10:48.244   233368,),0,0,1
   10:48.319   233395,(,0,0,2
   10:48.419   233431,t,0,0,0
   10:48.497   233459,),0,0,2
   10:48.708   233535,(,0,0,0
   10:48.742   233547,p,0,0,0
   10:48.858   233589,),0,0,0
   10:48.919   233611,(,0,0,1
   10:48.994   233638,N,0,0,0
   10:49.064   233663,),0,0,1
   10:49.161   233698,(,0,0,2
   10:49.256   233732,t,0,0,0
   10:49.339   233762,),0,0,2
   10:49.567   233844,(,0,0,0
   10:49.625   233865,p,0,0,0
   10:49.689   233888,),0,0,0
   10:49.811   233932,(,0,0,1
   10:49.892   233961,N,0,0,0
   10:49.958   233985,),0,0,1
   10:50.047   234017,(,0,0,2
   10:50.156   234056,t,0,0,5
   10:50.467   234168,t,0,0,5
   10:50.531   234191,),0,0,2
   10:50.547   234197,(,0,0,0
   10:50.642   234231,p,0,0,0
   10:50.683   234246,),0,0,0
   10:50.728   234262,(,0,0,1
   10:50.806   234290,N,0,0,0
   10:50.878   234316,),0,0,1
   10:50.967   234348,(,0,0,2
   10:51.064   234383,t,0,0,0
   10:51.164   234419,),0,0,2
   10:51.411   234508,(,0,0,0
   10:51.453   234523,p,0,0,0
   10:51.519   234547,),0,0,0
   10:51.628   234586,(,0,0,1
   10:51.742   234627,N,0,0,0
   10:51.772   234638,),0,0,1
   10:51.831   234659,(,0,0,2
   10:51.933   234696,t,0,0,0
   10:52.011   234724,),0,0,2
   10:52.261   234814,(,0,0,0
   10:52.306   234830,p,0,0,0
   10:52.381   234857,),0,0,0
   10:52.486   234895,(,0,0,1
   10:52.600   234936,N,0,0,0
   10:52.628   234946,),0,0,1
   10:52.706   234974,(,0,0,2
   10:52.808   235011,t,0,0,0
   10:52.919   235051,),0,0,2
   10:52.922   235052,(,0,0,0
   10:52.972   235070,p,0,0,0
   10:53.008   235083,),0,0,0
   10:53.108   235119,(,0,0,1
   10:53.206   235154,N,0,0,0
   10:53.250   235170,),0,0,1
   10:53.308   235191,(,0,0,2
   10:53.419   235231,t,0,0,0
   10:53.506   235262,),0,0,2
   10:53.903   235405,(,0,0,0
   10:53.944   235420,p,0,0,0
   10:54.036   235453,),0,0,0
   10:54.089   235472,(,0,0,1
   10:54.189   235508,N,0,0,0
   10:54.258   235533,),0,0,1
   10:54.344   235564,(,0,0,2
   10:54.444   235600,t,0,0,0
   10:54.533   235632,),0,0,2
   10:54.764   235715,(,0,0,0
   10:54.808   235731,p,0,0,0
   10:54.886   235759,),0,0,0
   10:54.964   235787,(,0,0,1
   10:55.078   235828,N,0,0,0
   10:55.106   235838,),0,0,1
   10:55.175   235863,(,0,0,2
   10:55.294   235906,t,0,0,5
   10:55.600   236016,t,0,0,5
   10:55.681   236045,),0,0,2
   10:55.875   236115,(,0,0,1
   10:55.989   236156,N,0,0,0
   10:56.019   236167,),0,0,1
   10:56.089   236192,(,0,0,2
   10:56.206   236234,t,0,0,0
   10:56.292   236265,),0,0,2
   10:56.544   236356,(,0,0,0
   10:56.586   236371,p,0,0,0
   10:56.669   236401,),0,0,0
   10:56.769   236437,(,0,0,1
   10:56.847   236465,N,0,0,0
   10:56.917   236490,),0,0,1
   10:56.983   236514,(,0,0,2
   10:57.094   236554,t,0,0,0
   10:57.189   236588,),0,0,2
   10:57.431   236675,(,0,0,0
   10:57.475   236691,p,0,0,0
   10:57.550   236718,),0,0,0
   10:57.658   236757,(,0,0,1
   10:57.769   236797,N,0,0,0
   10:57.794   236806,),0,0,1
   10:57.869   236833,(,0,0,2
   10:57.950   236862,t,0,0,0
   10:58.039   236894,),0,0,2
   10:58.269   236977,(,0,0,0
   10:58.319   236995,p,0,0,0
   10:58.367   237012,),0,0,0
   10:58.500   237060,(,0,0,1
   10:58.578   237088,N,0,0,0
   10:58.644   237112,),0,0,1
   10:58.719   237139,(,0,0,2
   10:58.828   237178,t,0,0,5
   10:59.122   237284,t,0,0,5
   10:59.183   237306,),0,0,2
   10:59.369   237373,(,0,0,1
   10:59.444   237400,N,0,0,0
   10:59.514   237425,),0,0,1
   10:59.583   237450,(,0,0,2
   10:59.692   237489,t,0,0,5
   10:59.964   237587,t,0,0,5
   11:00.028   237610,),0,0,2
   11:00.203   237673,(,0,0,1
   11:00.281   237701,N,0,0,0
   11:00.347   237725,),0,0,1
   11:00.411   237748,(,0,0,2
   11:00.522   237788,t,0,0,0
   11:00.608   237819,),0,0,2
   11:00.828   237898,(,0,0,0
   11:00.869   237913,p,0,0,0
   11:00.933   237936,),0,0,0
   11:01.036   237973,(,0,0,1
   11:01.108   237999,N,0,0,0
   11:01.175   238023,),0,0,1
   11:01.233   238044,(,0,0,2
   11:01.353   238087,t,0,0,0
   11:01.453   238123,),0,0,2
   11:01.739   238226,(,0,0,0
   11:01.867   238272,p,0,0,0
   11:01.892   238281,),0,0,0
   11:01.928   238294,(,0,0,1
   11:02.050   238338,N,0,0,0
   11:02.083   238350,),0,0,1
   11:02.142   238371,(,0,0,2
   11:02.264   238415,t,0,0,0
   11:02.361   238450,),0,0,2
   11:02.661   238558,(,0,0,0
   11:02.769   238597,p,0,0,0
   11:02.806   238610,),0,0,0
   11:02.839   238622,(,0,0,1
   11:02.917   238650,N,0,0,0
   11:02.986   238675,),0,0,1
   11:03.067   238704,(,0,0,2
   11:03.178   238744,t,0,0,5
   11:03.492   238857,t,0,0,5
   11:03.553   238879,),0,0,2
   11:03.744   238948,(,0,0,1
   11:03.817   238974,N,0,0,0
   11:03.883   238998,),0,0,1
   11:03.939   239018,(,0,0,2
   11:04.050   239058,t,0,0,5
   11:04.358   239169,t,0,0,5
   11:04.417   239190,),0,0,2
   11:04.608   239259,(,0,0,1
   11:04.681   239285,N,0,0,0
   11:04.747   239309,),0,0,1
   11:04.822   239336,(,0,0,2
   11:04.925   239373,t,0,0,5
   11:05.228   239482,t,0,0,5
   11:05.272   239498,),0,0,2
   11:05.458   239565,(,0,0,1
   11:05.542   239595,N,0,0,0
   11:05.606   239618,),0,0,1
   11:05.697   239651,(,0,0,2
   11:05.783   239682,t,0,0,0
   11:05.861   239710,),0,0,2
   11:06.078   239788,(,0,0,0
   11:06.128   239806,p,0,0,0
   11:06.197   239831,),0,0,0
   11:06.300   239868,(,0,0,1
   11:06.369   239893,N,0,0,0
   11:06.439   239918,),0,0,1
   11:06.514   239945,(,0,0,2
   11:06.617   239982,t,0,0,5
   11:06.883   240078,t,0,0,5
   11:06.944   240100,),0,0,2
   11:07.133   240168,(,0,0,1
   11:07.208   240195,N,0,0,0
   11:07.275   240219,),0,0,1
   11:07.358   240249,(,0,0,2
   11:07.464   240287,t,0,0,5
   11:07.792   240405,t,0,0,5
   11:07.850   240426,),0,0,2
   11:07.869   240433,(,0,0,0
   11:07.994   240478,p,0,0,0
   11:08.019   240487,),0,0,0
   11:08.053   240499,(,0,0,1
   11:08.133   240528,N,0,0,0
   11:08.206   240554,),0,0,1
   11:08.272   240578,(,0,0,2
   11:08.389   240620,t,0,0,5
   11:08.686   240727,t,0,0,5
   11:08.756   240752,),0,0,2
   11:08.950   240822,(,0,0,1
   11:09.025   240849,N,0,0,0
   11:09.094   240874,),0,0,1
   11:09.164   240899,(,0,0,2
   11:09.281   240941,t,0,0,5
   11:09.583   241050,t,0,0,5
   11:09.653   241075,),0,0,2
   11:09.833   241140,(,0,0,1
   11:09.906   241166,N,0,0,0
   11:09.958   241185,),0,0,1
   11:10.014   241205,(,0,0,2
   11:10.136   241249,t,0,0,5
   11:10.436   241357,t,0,0,5
   11:10.514   241385,),0,0,2
   11:10.700   241452,(,0,0,1
   11:10.775   241479,N,0,0,0
   11:10.844   241504,),0,0,1
   11:10.906   241526,(,0,0,2
   11:11.022   241568,t,0,0,0
   11:11.119   241603,),0,0,2
   11:12.172   241982,(,0,0,0
   11:12.219   241999,p,0,0,0
   11:12.297   242027,),0,0,0
   11:12.400   242064,(,0,0,1
   11:12.472   242090,N,0,0,0
   11:12.542   242115,),0,0,1
   11:12.619   242143,(,0,0,2
   11:12.717   242178,t,0,0,5
   11:12.975   242271,t,0,0,5
   11:13.028   242290,),0,0,2
   11:13.214   242357,(,0,0,1
   11:13.289   242384,N,0,0,0
   11:13.358   242409,),0,0,1
   11:13.436   242437,(,0,0,2
   11:13.547   242477,t,0,0,5
   11:13.664   242519,t,0,0,5
   11:13.894   242602,),0,0,2
   11:14.086   242671,(,0,0,1
   11:14.169   242701,N,0,0,0
   11:14.239   242726,),0,0,1
   11:14.350   242766,(,0,0,2
   11:14.436   242797,t,0,0,0
   11:14.522   242828,),0,0,2
   11:14.725   242901,(,0,0,0
   11:14.778   242920,p,0,0,0
   11:14.847   242945,),0,0,0
   11:14.969   242989,(,0,0,1
   11:15.042   243015,N,0,0,0
   11:15.114   243041,),0,0,1
   11:15.208   243075,(,0,0,2
   11:15.311   243112,t,0,0,0
   11:15.394   243142,),0,0,2
   11:15.631   243227,(,0,0,0
   11:15.686   243247,p,0,0,0
   11:15.775   243279,),0,0,0
   11:15.869   243313,(,0,0,1
   11:15.933   243336,N,0,0,0
   11:15.989   243356,),0,0,1
   11:16.081   243389,(,0,0,2
   11:16.178   243424,t,0,0,5
   11:16.469   243529,t,0,0,5
   11:16.528   243550,),0,0,2
   11:17.381   243857,(,0,0,0
   11:17.522   243908,p,0,0,0
   11:17.542   243915,),0,0,0
   11:17.575   243927,(,0,0,1
   11:17.644   243952,N,0,0,0
   11:17.714   243977,),0,0,1
   11:17.806   244010,(,0,0,2
   11:17.889   244040,t,0,0,5
   11:18.175   244143,t,0,0,5
   11:18.231   244163,),0,0,2
   11:18.247   244169,(,0,0,0
   11:18.344   244204,p,0,0,0
   11:18.381   244217,),0,0,0
   11:18.414   244229,(,0,0,1
   11:18.486   244255,N,0,0,0
   11:18.553   244279,),0,0,1
   11:18.639   244310,(,0,0,2
   11:18.731   244343,t,0,0,5
   11:18.989   244436,t,0,0,5
   11:19.061   244462,),0,0,2
   11:19.253   244531,(,0,0,1
   11:19.328   244558,N,0,0,0
   11:19.394   244582,),0,0,1
   11:19.486   244615,(,0,0,2
   11:19.597   244655,t,0,0,0
   11:19.672   244682,),0,0,2
   11:21.714   245417,(,0,0,0
   11:21.758   245433,p,0,0,0
   11:21.836   245461,),0,0,0
   11:21.922   245492,(,0,0,1
   11:21.986   245515,N,0,0,0
   11:22.056   245540,),0,0,1
   11:22.144   245572,(,0,0,2
   11:22.250   245610,t,0,0,5
   11:22.544   245716,t,0,0,5
   11:22.614   245741,),0,0,2
   11:25.150   246654,(,0,0,0
   11:25.283   246702,p,0,0,0
   11:25.317   246714,),0,0,0
   11:25.344   246724,(,0,0,1
   11:25.419   246751,N,0,0,0
   11:25.486   246775,),0,0,1
   11:25.561   246802,(,0,0,2
   11:25.669   246841,t,0,0,5
   11:25.956   246944,t,0,0,5
   11:26.028   246970,),0,0,2
   11:26.053   246979,(,0,0,0
   11:26.144   247012,p,0,0,0
   11:26.167   247020,),0,0,0
   11:26.233   247044,(,0,0,1
   11:26.314   247073,N,0,0,0
   11:26.383   247098,),0,0,1
   11:26.442   247119,(,0,0,2
   11:26.561   247162,t,0,0,5
   11:26.814   247253,t,0,0,5
   11:26.914   247289,),0,0,2
   11:27.756   247592,(,0,0,0
   11:27.806   247610,p,0,0,0
   11:27.878   247636,),0,0,0
