Elapsedtime,sample,Type,Sub,Chan,Num
0:00.858,309,(,0,0,0
0:00.906,326,p,0,0,0
0:00.964,347,),0,0,0
0:01.017,366,(,0,0,1
0:01.058,381,N,0,0,0
0:01.119,403,),0,0,1
0:01.178,424,(,0,0,2
0:01.289,464,t,0,0,4
0:01.403,505,t,0,0,4
0:01.492,537,),0,0,2
0:01.581,569,(,0,0,0
0:01.625,585,p,0,0,0
0:01.689,608,),0,0,0
0:01.728,622,(,0,0,1
0:01.789,644,N,0,0,0
0:01.847,665,),0,0,1
0:01.933,696,(,0,0,2
0:02.008,723,t,0,0,4
0:02.114,761,t,0,0,4
0:02.214,797,),0,0,2
0:02.278,820,(,0,0,0
0:02.325,837,p,0,0,0
0:02.383,858,),0,0,0
0:02.397,863,(,0,0,1
0:02.475,891,N,0,0,0
0:02.539,914,),0,0,1
0:02.586,931,(,0,0,2
0:02.708,975,t,0,0,4
0:02.814,1013,t,0,0,4
0:02.908,1047,),0,0,2
0:02.986,1075,(,0,0,0
0:03.033,1092,p,0,0,0
0:03.092,1113,),0,0,0
0:03.153,1135,(,0,0,1
0:03.189,1148,N,0,0,0
0:03.244,1168,),0,0,1
0:03.336,1201,(,0,0,2
0:03.411,1228,t,0,0,4
0:03.514,1265,t,0,0,4
0:03.603,1297,),0,0,2
0:03.656,1316,(,0,0,0
0:03.719,1339,p,0,0,0
0:03.778,1360,),0,0,0
0:03.792,1365,(,0,0,1
0:03.867,1392,N,0,0,0
0:03.933,1416,),0,0,1
0:03.972,1430,(,0,0,2
0:04.089,1472,t,0,0,4
0:04.203,1513,t,0,0,4
0:04.300,1548,),0,0,2
0:04.375,1575,(,0,0,0
0:04.419,1591,p,0,0,0
0:04.483,1614,),0,0,0
0:04.522,1628,(,0,0,1
0:04.575,1647,N,0,0,0
0:04.622,1664,),0,0,1
0:04.703,1693,(,0,0,2
0:04.797,1727,t,0,0,4
0:04.911,1768,t,0,0,4
0:05.000,1800,),0,0,2
0:05.050,1818,(,0,0,0
0:05.100,1836,p,0,0,0
0:05.156,1856,),0,0,0
0:05.194,1870,(,0,0,1
0:05.250,1890,N,0,0,0
0:05.300,1908,),0,0,1
0:05.408,1947,(,0,0,2
0:05.492,1977,t,0,0,4
0:05.603,2017,t,0,0,4
0:05.683,2046,),0,0,2
0:05.753,2071,(,0,0,0
0:05.811,2092,p,0,0,0
0:05.864,2111,),0,0,0
0:05.892,2121,(,0,0,1
0:05.961,2146,N,0,0,0
0:06.011,2164,),0,0,1
0:06.039,2174,(,0,0,2
0:06.186,2227,t,0,0,4
0:06.294,2266,t,0,0,4
0:06.386,2299,),0,0,2
0:06.442,2319,(,0,0,0
0:06.494,2338,p,0,0,0
0:06.550,2358,),0,0,0
0:06.606,2378,(,0,0,1
0:06.642,2391,N,0,0,0
0:06.703,2413,),0,0,1
0:06.775,2439,(,0,0,2
0:06.864,2471,t,0,0,4
0:06.975,2511,t,0,0,4
0:07.072,2546,),0,0,2
0:07.103,2557,(,0,0,0
0:07.158,2577,p,0,0,0
0:07.217,2598,),0,0,0
0:07.256,2612,(,0,0,1
0:07.303,2629,N,0,0,0
0:07.369,2653,),0,0,1
0:07.494,2698,(,0,0,2
0:07.528,2710,t,0,0,4
0:07.644,2752,t,0,0,4
0:07.758,2793,),0,0,2
0:07.792,2805,(,0,0,0
0:07.850,2826,p,0,0,0
0:07.903,2845,),0,0,0
0:07.928,2854,(,0,0,1
0:07.997,2879,N,0,0,0
0:08.064,2903,),0,0,1
0:08.172,2942,(,0,0,2
0:08.219,2959,t,0,0,4
0:08.336,3001,t,0,0,4
0:08.419,3031,),0,0,2
0:08.489,3056,(,0,0,0
0:08.539,3074,p,0,0,0
0:08.592,3093,),0,0,0
0:08.628,3106,(,0,0,1
0:08.686,3127,N,0,0,0
0:08.744,3148,),0,0,1
0:08.808,3171,(,0,0,2
0:08.919,3211,t,0,0,4
0:09.031,3251,t,0,0,4
0:09.125,3285,),0,0,2
0:09.183,3306,(,0,0,0
0:09.233,3324,p,0,0,0
0:09.297,3347,),0,0,0
0:09.328,3358,(,0,0,1
0:09.381,3377,N,0,0,0
0:09.428,3394,),0,0,1
0:09.497,3419,(,0,0,2
0:09.606,3458,t,0,0,4
0:09.708,3495,t,0,0,4
0:09.806,3530,),0,0,2
0:09.858,3549,(,0,0,0
0:09.906,3566,p,0,0,0
0:09.964,3587,),0,0,0
0:09.994,3598,(,0,0,1
0:10.061,3622,N,0,0,0
0:10.106,3638,),0,0,1
0:10.206,3674,(,0,0,2
0:10.292,3705,t,0,0,4
0:10.403,3745,t,0,0,4
0:10.519,3787,),0,0,2
0:10.550,3798,(,0,0,0
0:10.600,3816,p,0,0,0
0:10.664,3839,),0,0,0
0:10.694,3850,(,0,0,1
0:10.750,3870,N,0,0,0
0:10.797,3887,),0,0,1
0:10.847,3905,(,0,0,2
0:10.978,3952,t,0,0,4
0:11.097,3995,t,0,0,4
0:11.194,4030,),0,0,2
0:11.239,4046,(,0,0,0
0:11.286,4063,p,0,0,0
0:11.350,4086,),0,0,0
0:11.394,4102,(,0,0,1
0:11.439,4118,N,0,0,0
0:11.497,4139,),0,0,1
0:11.544,4156,(,0,0,2
0:11.661,4198,t,0,0,4
0:11.772,4238,t,0,0,4
0:11.878,4276,),0,0,2
0:11.928,4294,(,0,0,0
0:11.978,4312,p,0,0,0
0:12.042,4335,),0,0,0
0:12.064,4343,(,0,0,1
0:12.131,4367,N,0,0,0
0:12.194,4390,),0,0,1
0:12.269,4417,(,0,0,2
0:12.358,4449,t,0,0,4
0:12.472,4490,t,0,0,4
0:12.583,4530,),0,0,2
0:12.639,4550,(,0,0,0
0:12.686,4567,p,0,0,0
0:12.753,4591,),0,0,0
0:12.797,4607,(,0,0,1
0:12.842,4623,N,0,0,0
0:12.908,4647,),0,0,1
0:12.975,4671,(,0,0,2
0:13.069,4705,t,0,0,4
0:13.178,4744,t,0,0,4
0:13.267,4776,),0,0,2
0:13.331,4799,(,0,0,0
0:13.378,4816,p,0,0,0
0:13.431,4835,),0,0,0
0:13.467,4848,(,0,0,1
0:13.528,4870,N,0,0,0
0:13.583,4890,),0,0,1
0:13.642,4911,(,0,0,2
0:13.747,4949,t,0,0,4
0:13.856,4988,t,0,0,4
0:13.964,5027,),0,0,2
0:14.017,5046,(,0,0,0
0:14.069,5065,p,0,0,0
0:14.133,5088,),0,0,0
0:14.167,5100,(,0,0,1
0:14.217,5118,N,0,0,0
0:14.281,5141,),0,0,1
0:14.342,5163,(,0,0,2
0:14.433,5196,t,0,0,4
0:14.544,5236,t,0,0,4
0:14.603,5257,),0,0,2
0:14.694,5290,(,0,0,0
0:14.744,5308,p,0,0,0
0:14.794,5326,),0,0,0
0:14.833,5340,(,0,0,1
0:14.889,5360,N,0,0,0
0:14.956,5384,),0,0,1
0:15.044,5416,(,0,0,2
0:15.131,5447,t,0,0,1
0:15.233,5484,),0,0,2
0:15.397,5543,(,0,0,0
0:15.447,5561,p,0,0,0
0:15.511,5584,),0,0,0
0:15.533,5592,(,0,0,1
0:15.600,5616,N,0,0,0
0:15.644,5632,),0,0,1
0:15.719,5659,(,0,0,2
0:15.828,5698,t,0,0,4
0:15.936,5737,t,0,0,4
0:16.056,5780,),0,0,2
0:16.086,5791,(,0,0,0
0:16.136,5809,p,0,0,0
0:16.197,5831,),0,0,0
0:16.233,5844,(,0,0,1
0:16.289,5864,N,0,0,0
0:16.344,5884,),0,0,1
0:16.414,5909,(,0,0,2
0:16.522,5948,t,0,0,4
0:16.631,5987,t,0,0,4
0:16.728,6022,),0,0,2
0:16.772,6038,(,0,0,0
0:16.817,6054,p,0,0,0
0:16.878,6076,),0,0,0
0:16.903,6085,(,0,0,1
0:16.967,6108,N,0,0,0
0:17.017,6126,),0,0,1
0:17.103,6157,(,0,0,2
0:17.192,6189,t,0,0,4
0:17.300,6228,t,0,0,4
0:17.417,6270,),0,0,2
0:17.453,6283,(,0,0,0
0:17.508,6303,p,0,0,0
0:17.572,6326,),0,0,0
0:17.625,6345,(,0,0,1
0:17.667,6360,N,0,0,0
0:17.725,6381,),0,0,1
0:17.811,6412,(,0,0,2
0:17.897,6443,t,0,0,4
0:18.006,6482,t,0,0,4
0:18.100,6516,),0,0,2
0:18.158,6537,(,0,0,0
0:18.206,6554,p,0,0,0
0:18.261,6574,),0,0,0
0:18.303,6589,(,0,0,1
0:18.358,6609,N,0,0,0
0:18.419,6631,),0,0,1
0:18.478,6652,(,0,0,2
0:18.586,6691,t,0,0,4
0:18.694,6730,t,0,0,4
0:18.781,6761,),0,0,2
0:18.858,6789,(,0,0,0
0:18.906,6806,p,0,0,0
0:18.964,6827,),0,0,0
0:18.997,6839,(,0,0,1
0:19.058,6861,N,0,0,0
0:19.117,6882,),0,0,1
0:19.203,6913,(,0,0,2
0:19.289,6944,t,0,0,4
0:19.394,6982,t,0,0,4
0:19.464,7007,),0,0,2
0:19.558,7041,(,0,0,0
0:19.608,7059,p,0,0,0
0:19.669,7081,),0,0,0
0:19.703,7093,(,0,0,1
0:19.767,7116,N,0,0,0
0:19.836,7141,),0,0,1
0:19.911,7168,(,0,0,2
0:19.997,7199,t,0,0,4
0:20.108,7239,t,0,0,4
0:20.200,7272,),0,0,2
0:20.286,7303,(,0,0,0
0:20.336,7321,p,0,0,0
0:20.394,7342,),0,0,0
0:20.456,7364,(,0,0,1
0:20.492,7377,N,0,0,0
0:20.550,7398,),0,0,1
0:20.614,7421,(,0,0,2
0:20.717,7458,t,0,0,4
0:20.822,7496,t,0,0,4
0:20.906,7526,),0,0,2
0:21.000,7560,(,0,0,0
0:21.047,7577,p,0,0,0
0:21.106,7598,),0,0,0
0:21.136,7609,(,0,0,1
0:21.200,7632,N,0,0,0
0:21.264,7655,),0,0,1
0:21.292,7665,(,0,0,2
0:21.431,7715,t,0,0,4
0:21.533,7752,t,0,0,4
0:21.628,7786,),0,0,2
0:21.703,7813,(,0,0,0
0:21.753,7831,p,0,0,0
0:21.808,7851,),0,0,0
0:21.836,7861,(,0,0,1
0:21.906,7886,N,0,0,0
0:21.969,7909,),0,0,1
0:22.011,7924,(,0,0,2
0:22.131,7967,t,0,0,4
0:22.250,8010,t,0,0,4
0:22.353,8047,),0,0,2
0:22.425,8073,(,0,0,0
0:22.481,8093,p,0,0,0
0:22.536,8113,),0,0,0
0:22.597,8135,(,0,0,1
0:22.636,8149,N,0,0,0
0:22.703,8173,),0,0,1
0:22.781,8201,(,0,0,2
0:22.869,8233,t,0,0,4
0:22.978,8272,t,0,0,4
0:23.069,8305,),0,0,2
0:23.136,8329,(,0,0,0
0:23.183,8346,p,0,0,0
0:23.250,8370,),0,0,0
0:23.275,8379,(,0,0,1
0:23.344,8404,N,0,0,0
0:23.406,8426,),0,0,1
0:23.511,8464,(,0,0,2
0:23.572,8486,t,0,0,4
0:23.683,8526,t,0,0,4
0:23.789,8564,),0,0,2
0:23.847,8585,(,0,0,0
0:23.894,8602,p,0,0,0
0:23.956,8624,),0,0,0
0:24.003,8641,(,0,0,1
0:24.047,8657,N,0,0,0
0:24.111,8680,),0,0,1
0:24.156,8696,(,0,0,2
0:24.269,8737,t,0,0,4
0:24.375,8775,t,0,0,4
0:24.436,8797,),0,0,2
0:24.536,8833,(,0,0,0
0:24.583,8850,p,0,0,0
0:24.647,8873,),0,0,0
0:24.672,8882,(,0,0,1
0:24.742,8907,N,0,0,0
0:24.808,8931,),0,0,1
0:24.889,8960,(,0,0,2
0:24.978,8992,t,0,0,4
0:25.089,9032,t,0,0,4
0:25.164,9059,),0,0,2
0:25.261,9094,(,0,0,0
0:25.308,9111,p,0,0,0
0:25.369,9133,),0,0,0
0:25.406,9146,(,0,0,1
0:25.464,9167,N,0,0,0
0:25.525,9189,),0,0,1
0:25.611,9220,(,0,0,2
0:25.692,9249,t,0,0,4
0:25.800,9288,t,0,0,4
0:25.903,9325,),0,0,2
0:25.969,9349,(,0,0,0
0:26.017,9366,p,0,0,0
0:26.081,9389,),0,0,0
0:26.106,9398,(,0,0,1
0:26.175,9423,N,0,0,0
0:26.236,9445,),0,0,1
0:26.314,9473,(,0,0,2
0:26.394,9502,t,0,0,4
0:26.508,9543,t,0,0,4
0:26.625,9585,),0,0,2
0:26.683,9606,(,0,0,0
0:26.722,9620,p,0,0,0
0:26.778,9640,),0,0,0
0:26.833,9660,(,0,0,1
0:26.878,9676,N,0,0,0
0:26.947,9701,),0,0,1
0:27.003,9721,(,0,0,2
0:27.111,9760,t,0,0,4
0:27.222,9800,t,0,0,4
0:27.294,9826,),0,0,2
0:27.403,9865,(,0,0,0
0:27.450,9882,p,0,0,0
0:27.514,9905,),0,0,0
0:27.542,9915,(,0,0,1
0:27.608,9939,N,0,0,0
0:27.675,9963,),0,0,1
0:27.725,9981,(,0,0,2
0:27.836,10021,t,0,0,4
0:27.950,10062,t,0,0,4
0:28.014,10085,),0,0,2
0:28.111,10120,(,0,0,0
0:28.161,10138,p,0,0,0
0:28.219,10159,),0,0,0
0:28.242,10167,(,0,0,1
0:28.317,10194,N,0,0,0
0:28.364,10211,),0,0,1
0:28.444,10240,(,0,0,2
0:28.558,10281,t,0,0,4
0:28.653,10315,t,0,0,4
0:28.708,10335,),0,0,2
0:28.808,10371,(,0,0,0
0:28.853,10387,p,0,0,0
0:28.917,10410,),0,0,0
0:28.969,10429,(,0,0,1
0:29.011,10444,N,0,0,0
0:29.056,10460,),0,0,1
0:29.139,10490,(,0,0,2
0:29.236,10525,t,0,0,4
0:29.347,10565,t,0,0,4
0:29.436,10597,),0,0,2
0:29.514,10625,(,0,0,0
0:29.564,10643,p,0,0,0
0:29.625,10665,),0,0,0
0:29.675,10683,(,0,0,1
0:29.725,10701,N,0,0,0
0:29.789,10724,),0,0,1
0:29.842,10743,(,0,0,2
0:29.969,10789,t,0,0,4
0:30.075,10827,t,0,0,4
0:30.172,10862,),0,0,2
0:30.244,10888,(,0,0,0
0:30.292,10905,p,0,0,0
0:30.353,10927,),0,0,0
0:30.378,10936,(,0,0,1
0:30.447,10961,N,0,0,0
0:30.508,10983,),0,0,1
0:30.572,11006,(,0,0,2
0:30.675,11043,t,0,0,4
0:30.783,11082,t,0,0,4
0:30.861,11110,),0,0,2
0:30.958,11145,(,0,0,0
0:31.011,11164,p,0,0,0
0:31.069,11185,),0,0,0
0:31.114,11201,(,0,0,1
0:31.164,11219,N,0,0,0
0:31.225,11241,),0,0,1
0:31.317,11274,(,0,0,2
0:31.400,11304,t,0,0,4
0:31.492,11337,t,0,0,4
0:31.547,11357,),0,0,2
0:31.639,11390,(,0,0,0
0:31.694,11410,p,0,0,0
0:31.758,11433,),0,0,0
0:31.775,11439,(,0,0,1
0:31.844,11464,N,0,0,0
0:31.908,11487,),0,0,1
0:31.983,11514,(,0,0,2
0:32.081,11549,t,0,0,4
0:32.197,11591,t,0,0,4
0:32.278,11620,),0,0,2
0:32.375,11655,(,0,0,0
0:32.428,11674,p,0,0,0
0:32.486,11695,),0,0,0
0:32.542,11715,(,0,0,1
0:32.586,11731,N,0,0,0
0:32.656,11756,),0,0,1
0:32.719,11779,(,0,0,2
0:32.819,11815,t,0,0,1
0:32.914,11849,),0,0,2
0:33.069,11905,(,0,0,0
0:33.117,11922,p,0,0,0
0:33.175,11943,),0,0,0
0:33.211,11956,(,0,0,1
0:33.267,11976,N,0,0,0
0:33.314,11993,),0,0,1
0:33.389,12020,(,0,0,2
0:33.503,12061,t,0,0,4
0:33.617,12102,t,0,0,4
0:33.692,12129,),0,0,2
0:33.772,12158,(,0,0,0
0:33.825,12177,p,0,0,0
0:33.881,12197,),0,0,0
0:33.911,12208,(,0,0,1
0:33.975,12231,N,0,0,0
0:34.022,12248,),0,0,1
0:34.094,12274,(,0,0,2
0:34.208,12315,t,0,0,4
0:34.322,12356,t,0,0,4
0:34.403,12385,),0,0,2
0:34.478,12412,(,0,0,0
0:34.528,12430,p,0,0,0
0:34.597,12455,),0,0,0
0:34.642,12471,(,0,0,1
0:34.694,12490,N,0,0,0
0:34.739,12506,),0,0,1
0:34.814,12533,(,0,0,2
0:34.931,12575,t,0,0,4
0:35.042,12615,t,0,0,4
0:35.161,12658,),0,0,2
0:35.203,12673,(,0,0,0
0:35.253,12691,p,0,0,0
0:35.314,12713,),0,0,0
0:35.344,12724,(,0,0,1
0:35.400,12744,N,0,0,0
0:35.461,12766,),0,0,1
0:35.519,12787,(,0,0,2
0:35.619,12823,t,0,0,4
0:35.736,12865,t,0,0,4
0:35.814,12893,),0,0,2
0:35.903,12925,(,0,0,0
0:35.947,12941,p,0,0,0
0:36.008,12963,),0,0,0
0:36.044,12976,(,0,0,1
0:36.103,12997,N,0,0,0
0:36.158,13017,),0,0,1
0:36.222,13040,(,0,0,2
0:36.328,13078,t,0,0,4
0:36.433,13116,t,0,0,4
0:36.539,13154,),0,0,2
0:36.600,13176,(,0,0,0
0:36.650,13194,p,0,0,0
0:36.708,13215,),0,0,0
0:36.747,13229,(,0,0,1
0:36.800,13248,N,0,0,0
0:36.861,13270,),0,0,1
0:36.925,13293,(,0,0,2
0:37.036,13333,t,0,0,4
0:37.150,13374,t,0,0,4
0:37.214,13397,),0,0,2
0:37.322,13436,(,0,0,0
0:37.372,13454,p,0,0,0
0:37.439,13478,),0,0,0
0:37.483,13494,(,0,0,1
0:37.531,13511,N,0,0,0
0:37.592,13533,),0,0,1
0:37.678,13564,(,0,0,2
0:37.756,13592,t,0,0,4
0:37.864,13631,t,0,0,4
0:37.914,13649,),0,0,2
0:38.019,13687,(,0,0,0
0:38.069,13705,p,0,0,0
0:38.139,13730,),0,0,0
0:38.150,13734,(,0,0,1
0:38.225,13761,N,0,0,0
0:38.292,13785,),0,0,1
0:38.361,13810,(,0,0,2
0:38.442,13839,t,0,0,4
0:38.561,13882,t,0,0,4
0:38.647,13913,),0,0,2
0:38.719,13939,(,0,0,0
0:38.769,13957,p,0,0,0
0:38.825,13977,),0,0,0
0:38.847,13985,(,0,0,1
0:38.922,14012,N,0,0,0
0:38.983,14034,),0,0,1
0:39.050,14058,(,0,0,2
0:39.131,14087,t,0,0,4
0:39.242,14127,t,0,0,4
0:39.333,14160,),0,0,2
0:39.400,14184,(,0,0,0
0:39.450,14202,p,0,0,0
0:39.508,14223,),0,0,0
0:39.547,14237,(,0,0,1
0:39.603,14257,N,0,0,0
0:39.667,14280,),0,0,1
0:39.744,14308,(,0,0,2
0:39.825,14337,t,0,0,4
0:39.942,14379,t,0,0,4
0:40.031,14411,),0,0,2
0:40.100,14436,(,0,0,0
0:40.144,14452,p,0,0,0
0:40.203,14473,),0,0,0
0:40.214,14477,(,0,0,1
0:40.292,14505,N,0,0,0
0:40.358,14529,),0,0,1
0:40.450,14562,(,0,0,2
0:40.508,14583,t,0,0,4
0:40.622,14624,t,0,0,4
0:40.711,14656,),0,0,2
0:40.789,14684,(,0,0,0
0:40.836,14701,p,0,0,0
0:40.897,14723,),0,0,0
0:40.942,14739,(,0,0,1
0:40.989,14756,N,0,0,0
0:41.044,14776,),0,0,1
0:41.086,14791,(,0,0,2
0:41.208,14835,t,0,0,4
0:41.325,14877,t,0,0,4
0:41.436,14917,),0,0,2
0:41.469,14929,(,0,0,0
0:41.519,14947,p,0,0,0
0:41.575,14967,),0,0,0
0:41.617,14982,(,0,0,1
0:41.664,14999,N,0,0,0
0:41.728,15022,),0,0,1
0:41.797,15047,(,0,0,2
0:41.900,15084,t,0,0,4
0:42.019,15127,t,0,0,4
0:42.108,15159,),0,0,2
0:42.178,15184,(,0,0,0
0:42.228,15202,p,0,0,0
0:42.286,15223,),0,0,0
0:42.347,15245,(,0,0,1
0:42.389,15260,N,0,0,0
0:42.433,15276,),0,0,1
0:42.517,15306,(,0,0,2
0:42.611,15340,t,0,0,4
0:42.719,15379,t,0,0,4
0:42.844,15424,),0,0,2
0:42.878,15436,(,0,0,0
0:42.928,15454,p,0,0,0
0:42.986,15475,),0,0,0
0:43.017,15486,(,0,0,1
0:43.078,15508,N,0,0,0
0:43.125,15525,),0,0,1
0:43.217,15558,(,0,0,2
0:43.303,15589,t,0,0,4
0:43.414,15629,t,0,0,4
0:43.511,15664,),0,0,2
0:43.572,15686,(,0,0,0
0:43.619,15703,p,0,0,0
0:43.681,15725,),0,0,0
0:43.719,15739,(,0,0,1
0:43.772,15758,N,0,0,0
0:43.833,15780,),0,0,1
0:43.892,15801,(,0,0,2
0:43.992,15837,t,0,0,4
0:44.103,15877,t,0,0,4
0:44.217,15918,),0,0,2
0:44.267,15936,(,0,0,0
0:44.322,15956,p,0,0,0
0:44.381,15977,),0,0,0
0:44.419,15991,(,0,0,1
0:44.481,16013,N,0,0,0
0:44.544,16036,),0,0,1
0:44.619,16063,(,0,0,2
0:44.711,16096,t,0,0,4
0:44.825,16137,t,0,0,4
0:44.936,16177,),0,0,2
0:44.994,16198,(,0,0,0
0:45.044,16216,p,0,0,0
0:45.103,16237,),0,0,0
0:45.150,16254,(,0,0,1
0:45.189,16268,N,0,0,0
0:45.256,16292,),0,0,1
0:45.358,16329,(,0,0,2
0:45.408,16347,t,0,0,4
0:45.528,16390,t,0,0,4
0:45.606,16418,),0,0,2
0:45.694,16450,(,0,0,0
0:45.750,16470,p,0,0,0
0:45.808,16491,),0,0,0
0:45.853,16507,(,0,0,1
0:45.908,16527,N,0,0,0
0:45.969,16549,),0,0,1
0:46.089,16592,(,0,0,2
0:46.131,16607,t,0,0,4
0:46.244,16648,t,0,0,4
0:46.344,16684,),0,0,2
0:46.411,16708,(,0,0,0
0:46.453,16723,p,0,0,0
0:46.517,16746,),0,0,0
0:46.553,16759,(,0,0,1
0:46.606,16778,N,0,0,0
0:46.656,16796,),0,0,1
0:46.733,16824,(,0,0,2
0:46.836,16861,t,0,0,4
0:46.944,16900,t,0,0,4
0:47.078,16948,),0,0,2
0:47.106,16958,(,0,0,0
0:47.153,16975,p,0,0,0
0:47.214,16997,),0,0,0
0:47.253,17011,(,0,0,1
0:47.314,17033,N,0,0,0
0:47.361,17050,),0,0,1
0:47.431,17075,(,0,0,2
0:47.542,17115,t,0,0,4
0:47.650,17154,t,0,0,4
0:47.719,17179,),0,0,2
0:47.803,17209,(,0,0,0
0:47.853,17227,p,0,0,0
0:47.914,17249,),0,0,0
0:47.950,17262,(,0,0,1
0:48.003,17281,N,0,0,0
0:48.067,17304,),0,0,1
0:48.131,17327,(,0,0,2
0:48.222,17360,t,0,0,4
0:48.336,17401,t,0,0,4
0:48.422,17432,),0,0,2
0:48.506,17462,(,0,0,0
0:48.550,17478,p,0,0,0
0:48.617,17502,),0,0,0
0:48.653,17515,(,0,0,1
0:48.706,17534,N,0,0,0
0:48.761,17554,),0,0,1
0:48.833,17580,(,0,0,2
0:48.931,17615,t,0,0,4
0:49.042,17655,t,0,0,4
0:49.158,17697,),0,0,2
0:49.208,17715,(,0,0,0
0:49.258,17733,p,0,0,0
0:49.325,17757,),0,0,0
0:49.356,17768,(,0,0,1
0:49.414,17789,N,0,0,0
0:49.475,17811,),0,0,1
0:49.589,17852,(,0,0,2
0:49.650,17874,t,0,0,4
0:49.761,17914,t,0,0,4
0:49.847,17945,),0,0,2
0:49.933,17976,(,0,0,0
0:49.983,17994,p,0,0,0
0:50.042,18015,),0,0,0
0:50.086,18031,(,0,0,1
0:50.133,18048,N,0,0,0
0:50.194,18070,),0,0,1
0:50.258,18093,(,0,0,2
0:50.344,18124,t,0,0,4
0:50.450,18162,t,0,0,4
0:50.558,18201,),0,0,2
0:50.622,18224,(,0,0,0
0:50.675,18243,p,0,0,0
0:50.733,18264,),0,0,0
0:50.758,18273,(,0,0,1
0:50.817,18294,N,0,0,0
0:50.883,18318,),0,0,1
0:50.953,18343,(,0,0,2
0:51.044,18376,t,0,0,4
0:51.153,18415,t,0,0,4
0:51.242,18447,),0,0,2
0:51.319,18475,(,0,0,0
0:51.372,18494,p,0,0,0
0:51.425,18513,),0,0,0
0:51.456,18524,(,0,0,1
0:51.514,18545,N,0,0,0
0:51.578,18568,),0,0,1
0:51.661,18598,(,0,0,2
0:51.747,18629,t,0,0,4
0:51.850,18666,t,0,0,4
0:51.939,18698,),0,0,2
0:52.011,18724,(,0,0,0
0:52.072,18746,p,0,0,0
0:52.125,18765,),0,0,0
0:52.156,18776,(,0,0,1
0:52.222,18800,N,0,0,0
0:52.281,18821,),0,0,1
0:52.364,18851,(,0,0,2
0:52.456,18884,t,0,0,4
0:52.561,18922,t,0,0,4
0:52.683,18966,),0,0,2
0:52.722,18980,(,0,0,0
0:52.772,18998,p,0,0,0
0:52.825,19017,),0,0,0
0:52.861,19030,(,0,0,1
0:52.914,19049,N,0,0,0
0:52.964,19067,),0,0,1
0:53.033,19092,(,0,0,2
0:53.144,19132,t,0,0,4
0:53.256,19172,t,0,0,4
0:53.317,19194,),0,0,2
0:53.419,19231,(,0,0,0
0:53.469,19249,p,0,0,0
0:53.528,19270,),0,0,0
0:53.583,19290,(,0,0,1
0:53.622,19304,N,0,0,0
0:53.669,19321,),0,0,1
0:53.758,19353,(,0,0,2
0:53.844,19384,t,0,0,4
0:53.950,19422,t,0,0,4
0:54.056,19460,),0,0,2
0:54.111,19480,(,0,0,0
0:54.161,19498,p,0,0,0
0:54.219,19519,),0,0,0
0:54.258,19533,(,0,0,1
0:54.308,19551,N,0,0,0
0:54.369,19573,),0,0,1
0:54.403,19585,(,0,0,2
0:54.544,19636,t,0,0,4
0:54.650,19674,t,0,0,4
0:54.728,19702,),0,0,2
0:54.819,19735,(,0,0,0
0:54.869,19753,p,0,0,0
0:54.925,19773,),0,0,0
0:54.958,19785,(,0,0,1
0:55.017,19806,N,0,0,0
0:55.069,19825,),0,0,1
0:55.136,19849,(,0,0,2
0:55.242,19887,t,0,0,4
0:55.344,19924,t,0,0,4
0:55.453,19963,),0,0,2
0:55.514,19985,(,0,0,0
0:55.569,20005,p,0,0,0
0:55.622,20024,),0,0,0
0:55.664,20039,(,0,0,1
0:55.711,20056,N,0,0,0
0:55.772,20078,),0,0,1
0:55.836,20101,(,0,0,2
0:55.931,20135,t,0,0,4
0:56.044,20176,t,0,0,4
0:56.139,20210,),0,0,2
0:56.225,20241,(,0,0,0
0:56.275,20259,p,0,0,0
0:56.333,20280,),0,0,0
0:56.383,20298,(,0,0,1
0:56.425,20313,N,0,0,0
0:56.481,20333,),0,0,1
0:56.531,20351,(,0,0,2
0:56.653,20395,t,0,0,4
0:56.764,20435,t,0,0,4
0:56.881,20477,),0,0,2
0:56.953,20503,(,0,0,0
0:57.000,20520,p,0,0,0
0:57.058,20541,),0,0,0
0:57.092,20553,(,0,0,1
0:57.150,20574,N,0,0,0
0:57.214,20597,),0,0,1
0:57.303,20629,(,0,0,2
0:57.381,20657,t,0,0,4
0:57.489,20696,t,0,0,4
0:57.586,20731,),0,0,2
0:57.669,20761,(,0,0,0
0:57.719,20779,p,0,0,0
0:57.778,20800,),0,0,0
0:57.794,20806,(,0,0,1
0:57.867,20832,N,0,0,0
0:57.925,20853,),0,0,1
0:57.964,20867,(,0,0,2
0:58.092,20913,t,0,0,4
0:58.200,20952,t,0,0,4
0:58.286,20983,),0,0,2
0:58.375,21015,(,0,0,0
0:58.433,21036,p,0,0,0
0:58.486,21055,),0,0,0
0:58.528,21070,(,0,0,1
0:58.575,21087,N,0,0,0
0:58.639,21110,),0,0,1
0:58.667,21120,(,0,0,2
0:58.797,21167,t,0,0,4
0:58.911,21208,t,0,0,4
0:59.019,21247,),0,0,2
0:59.083,21270,(,0,0,0
0:59.139,21290,p,0,0,0
0:59.192,21309,),0,0,0
0:59.231,21323,(,0,0,1
0:59.289,21344,N,0,0,0
0:59.336,21361,),0,0,1
0:59.375,21375,(,0,0,2
0:59.519,21427,t,0,0,4
0:59.633,21468,t,0,0,4
0:59.756,21512,),0,0,2
0:59.806,21530,(,0,0,0
0:59.864,21551,p,0,0,0
0:59.922,21572,),0,0,0
0:59.961,21586,(,0,0,1
1:00.000,21600,N,0,0,0
1:00.050,21618,),0,0,1
1:00.108,21639,(,0,0,2
1:00.228,21682,t,0,0,4
1:00.339,21722,t,0,0,4
1:00.450,21762,),0,0,2
1:00.511,21784,(,0,0,0
1:00.561,21802,p,0,0,0
1:00.625,21825,),0,0,0
1:00.667,21840,(,0,0,1
1:00.714,21857,N,0,0,0
1:00.772,21878,),0,0,1
1:00.831,21899,(,0,0,2
1:00.942,21939,t,0,0,4
1:01.044,21976,t,0,0,4
1:01.153,22015,),0,0,2
1:01.217,22038,(,0,0,0
1:01.275,22059,p,0,0,0
1:01.328,22078,),0,0,0
1:01.361,22090,(,0,0,1
1:01.411,22108,N,0,0,0
1:01.472,22130,),0,0,1
1:01.500,22140,(,0,0,2
1:01.628,22186,t,0,0,4
1:01.744,22228,t,0,0,4
1:01.853,22267,),0,0,2
1:01.925,22293,(,0,0,0
1:01.981,22313,p,0,0,0
1:02.033,22332,),0,0,0
1:02.089,22352,(,0,0,1
1:02.128,22366,N,0,0,0
1:02.183,22386,),0,0,1
1:02.244,22408,(,0,0,2
1:02.336,22441,t,0,0,4
1:02.447,22481,t,0,0,4
1:02.553,22519,),0,0,2
1:02.617,22542,(,0,0,0
1:02.667,22560,p,0,0,0
1:02.717,22578,),0,0,0
1:02.756,22592,(,0,0,1
1:02.806,22610,N,0,0,0
1:02.875,22635,),0,0,1
1:02.933,22656,(,0,0,2
1:03.019,22687,t,0,0,4
1:03.136,22729,t,0,0,4
1:03.233,22764,),0,0,2
1:03.322,22796,(,0,0,0
1:03.364,22811,p,0,0,0
1:03.431,22835,),0,0,0
1:03.469,22849,(,0,0,1
1:03.511,22864,N,0,0,0
1:03.578,22888,),0,0,1
1:03.703,22933,(,0,0,2
1:03.736,22945,t,0,0,4
1:03.853,22987,t,0,0,4
1:03.953,23023,),0,0,2
1:04.008,23043,(,0,0,0
1:04.067,23064,p,0,0,0
1:04.119,23083,),0,0,0
1:04.136,23089,(,0,0,1
1:04.208,23115,N,0,0,0
1:04.269,23137,),0,0,1
1:04.400,23184,(,0,0,2
1:04.456,23204,t,0,0,4
1:04.569,23245,t,0,0,4
1:04.642,23271,),0,0,2
1:04.728,23302,(,0,0,0
1:04.775,23319,p,0,0,0
1:04.833,23340,),0,0,0
1:04.861,23350,(,0,0,1
1:04.922,23372,N,0,0,0
1:04.975,23391,),0,0,1
1:05.081,23429,(,0,0,2
1:05.147,23453,t,0,0,4
1:05.258,23493,t,0,0,4
1:05.297,23507,),0,0,2
1:05.406,23546,(,0,0,0
1:05.467,23568,p,0,0,0
1:05.536,23593,),0,0,0
1:05.558,23601,(,0,0,1
1:05.611,23620,N,0,0,0
1:05.658,23637,),0,0,1
1:05.758,23673,(,0,0,2
1:05.839,23702,t,0,0,4
1:05.953,23743,t,0,0,4
1:05.989,23756,),0,0,2
1:06.100,23796,(,0,0,0
1:06.167,23820,p,0,0,0
1:06.206,23834,),0,0,0
1:06.233,23844,(,0,0,1
1:06.297,23867,N,0,0,0
1:06.347,23885,),0,0,1
1:06.450,23922,(,0,0,2
1:06.528,23950,t,0,0,4
1:06.633,23988,t,0,0,4
1:06.664,23999,),0,0,2
1:06.814,24053,(,0,0,0
1:06.861,24070,p,0,0,0
1:06.908,24087,),0,0,0
1:06.933,24096,(,0,0,1
1:07.008,24123,N,0,0,0
1:07.072,24146,),0,0,1
1:07.147,24173,(,0,0,2
1:07.256,24212,t,0,0,4
1:07.336,24241,t,0,0,4
1:07.364,24251,),0,0,2
1:07.497,24299,(,0,0,0
1:07.539,24314,p,0,0,0
1:07.606,24338,),0,0,0
1:07.636,24349,(,0,0,1
1:07.692,24369,N,0,0,0
1:07.750,24390,),0,0,1
1:07.836,24421,(,0,0,2
1:07.928,24454,t,0,0,4
1:08.031,24491,t,0,0,4
1:08.089,24512,),0,0,2
1:08.228,24562,(,0,0,0
1:08.258,24573,p,0,0,0
1:08.314,24593,),0,0,0
1:08.328,24598,(,0,0,1
1:08.403,24625,N,0,0,0
1:08.472,24650,),0,0,1
1:08.514,24665,(,0,0,2
1:08.633,24708,t,0,0,4
1:08.725,24741,t,0,0,4
1:08.825,24777,),0,0,2
1:08.908,24807,(,0,0,0
1:08.950,24822,p,0,0,0
1:09.006,24842,),0,0,0
1:09.017,24846,(,0,0,1
1:09.086,24871,N,0,0,0
1:09.147,24893,),0,0,1
1:09.233,24924,(,0,0,2
1:09.325,24957,t,0,0,4
1:09.439,24998,t,0,0,4
1:09.525,25029,),0,0,2
1:09.586,25051,(,0,0,0
1:09.639,25070,p,0,0,0
1:09.708,25095,),0,0,0
1:09.714,25097,(,0,0,1
1:09.786,25123,N,0,0,0
1:09.853,25147,),0,0,1
1:09.911,25168,(,0,0,2
1:10.025,25209,t,0,0,4
1:10.131,25247,t,0,0,4
1:10.175,25263,),0,0,2
1:10.286,25303,(,0,0,0
1:10.339,25322,p,0,0,0
1:10.383,25338,),0,0,0
1:10.403,25345,(,0,0,1
1:10.478,25372,N,0,0,0
1:10.536,25393,),0,0,1
1:10.661,25438,(,0,0,2
1:10.711,25456,t,0,0,4
1:10.817,25494,t,0,0,4
1:10.861,25510,),0,0,2
1:10.997,25559,(,0,0,0
1:11.044,25576,p,0,0,0
1:11.092,25593,),0,0,0
1:11.103,25597,(,0,0,1
1:11.181,25625,N,0,0,0
1:11.244,25648,),0,0,1
1:11.342,25683,(,0,0,2
1:11.403,25705,t,0,0,4
1:11.514,25745,t,0,0,4
1:11.564,25763,),0,0,2
1:11.683,25806,(,0,0,0
1:11.733,25824,p,0,0,0
1:11.783,25842,),0,0,0
1:11.814,25853,(,0,0,1
1:11.883,25878,N,0,0,0
1:11.947,25901,),0,0,1
1:12.011,25924,(,0,0,2
1:12.108,25959,t,0,0,4
1:12.222,26000,t,0,0,4
1:12.294,26026,),0,0,2
1:12.364,26051,(,0,0,0
1:12.419,26071,p,0,0,0
1:12.492,26097,),0,0,0
1:12.500,26100,(,0,0,1
1:12.567,26124,N,0,0,0
1:12.633,26148,),0,0,1
1:12.706,26174,(,0,0,2
1:12.789,26204,t,0,0,4
1:12.911,26248,t,0,0,4
1:12.969,26269,),0,0,2
1:13.072,26306,(,0,0,0
1:13.106,26318,p,0,0,0
1:13.156,26336,),0,0,0
1:13.203,26353,(,0,0,1
1:13.247,26369,N,0,0,0
1:13.314,26393,),0,0,1
1:13.444,26440,(,0,0,2
1:13.481,26453,t,0,0,4
1:13.622,26504,t,0,0,4
1:13.667,26520,),0,0,2
1:13.764,26555,(,0,0,0
1:13.794,26566,p,0,0,0
1:13.844,26584,),0,0,0
1:13.881,26597,(,0,0,1
1:13.936,26617,N,0,0,0
1:13.989,26636,),0,0,1
1:14.111,26680,(,0,0,2
1:14.164,26699,t,0,0,4
1:14.283,26742,t,0,0,4
1:14.361,26770,),0,0,2
1:14.431,26795,(,0,0,0
1:14.486,26815,p,0,0,0
1:14.547,26837,),0,0,0
1:14.567,26844,(,0,0,1
1:14.631,26867,N,0,0,0
1:14.692,26889,),0,0,1
1:14.731,26903,(,0,0,2
1:14.861,26950,t,0,0,4
1:14.967,26988,t,0,0,4
1:15.006,27002,),0,0,2
1:15.119,27043,(,0,0,0
1:15.172,27062,p,0,0,0
1:15.219,27079,),0,0,0
1:15.247,27089,(,0,0,1
1:15.317,27114,N,0,0,0
1:15.386,27139,),0,0,1
1:15.497,27179,(,0,0,2
1:15.539,27194,t,0,0,4
1:15.656,27236,t,0,0,4
1:15.692,27249,),0,0,2
1:15.808,27291,(,0,0,0
1:15.867,27312,p,0,0,0
1:15.906,27326,),0,0,0
1:15.958,27345,(,0,0,1
1:16.000,27360,N,0,0,0
1:16.056,27380,),0,0,1
1:16.136,27409,(,0,0,2
1:16.192,27429,t,0,0,4
1:16.322,27476,t,0,0,4
1:16.428,27514,),0,0,2
1:16.558,27561,(,0,0,1
1:16.689,27608,N,0,0,0
1:16.758,27633,),0,0,1
1:16.825,27657,(,0,0,2
1:16.931,27695,t,0,0,4
1:17.039,27734,t,0,0,4
1:17.089,27752,),0,0,2
1:17.183,27786,(,0,0,0
1:17.233,27804,p,0,0,0
1:17.292,27825,),0,0,0
1:17.303,27829,(,0,0,1
1:17.378,27856,N,0,0,0
1:17.436,27877,),0,0,1
1:17.506,27902,(,0,0,2
1:17.603,27937,t,0,0,1
1:17.711,27976,),0,0,2
1:17.872,28034,(,0,0,0
1:17.936,28057,p,0,0,0
1:17.994,28078,),0,0,0
1:18.008,28083,(,0,0,1
1:18.072,28106,N,0,0,0
1:18.131,28127,),0,0,1
1:18.222,28160,(,0,0,2
1:18.322,28196,t,0,0,4
1:18.417,28230,t,0,0,4
1:18.467,28248,),0,0,2
1:18.564,28283,(,0,0,0
1:18.614,28301,p,0,0,0
1:18.669,28321,),0,0,0
1:18.703,28333,(,0,0,1
1:18.758,28353,N,0,0,0
1:18.819,28375,),0,0,1
1:18.881,28397,(,0,0,2
1:19.006,28442,t,0,0,1
1:19.094,28474,),0,0,2
1:19.272,28538,(,0,0,0
1:19.328,28558,p,0,0,0
1:19.389,28580,),0,0,0
1:19.431,28595,(,0,0,1
1:19.467,28608,N,0,0,0
1:19.517,28626,),0,0,1
1:19.614,28661,(,0,0,2
1:19.703,28693,t,0,0,4
1:19.808,28731,t,0,0,4
1:19.869,28753,),0,0,2
1:19.961,28786,(,0,0,0
1:20.014,28805,p,0,0,0
1:20.067,28824,),0,0,0
1:20.106,28838,(,0,0,1
1:20.158,28857,N,0,0,0
1:20.214,28877,),0,0,1
1:20.286,28903,(,0,0,2
1:20.403,28945,t,0,0,1
1:20.492,28977,),0,0,2
1:20.661,29038,(,0,0,0
1:20.711,29056,p,0,0,0
1:20.767,29076,),0,0,0
1:20.808,29091,(,0,0,1
1:20.853,29107,N,0,0,0
1:20.914,29129,),0,0,1
1:21.008,29163,(,0,0,2
1:21.075,29187,t,0,0,4
1:21.192,29229,t,0,0,4
1:21.272,29258,),0,0,2
1:21.347,29285,(,0,0,0
1:21.406,29306,p,0,0,0
1:21.461,29326,),0,0,0
1:21.503,29341,(,0,0,1
1:21.553,29359,N,0,0,0
1:21.619,29383,),0,0,1
1:21.686,29407,(,0,0,2
1:21.794,29446,t,0,0,4
1:21.900,29484,t,0,0,4
1:21.939,29498,),0,0,2
1:22.053,29539,(,0,0,0
1:22.100,29556,p,0,0,0
1:22.150,29574,),0,0,0
1:22.200,29592,(,0,0,1
1:22.247,29609,N,0,0,0
1:22.311,29632,),0,0,1
1:22.358,29649,(,0,0,2
1:22.481,29693,t,0,0,4
1:22.597,29735,t,0,0,4
1:22.642,29751,),0,0,2
1:22.761,29794,(,0,0,0
1:22.814,29813,p,0,0,0
1:22.869,29833,),0,0,0
1:22.908,29847,(,0,0,1
1:22.958,29865,N,0,0,0
1:23.022,29888,),0,0,1
1:23.092,29913,(,0,0,2
1:23.186,29947,t,0,0,1
1:23.289,29984,),0,0,2
1:23.442,30039,(,0,0,0
1:23.489,30056,p,0,0,0
1:23.544,30076,),0,0,0
1:23.578,30088,(,0,0,1
1:23.636,30109,N,0,0,0
1:23.689,30128,),0,0,1
1:23.750,30150,(,0,0,2
1:23.872,30194,t,0,0,4
1:23.981,30233,t,0,0,4
1:24.053,30259,),0,0,2
1:24.142,30291,(,0,0,0
1:24.186,30307,p,0,0,0
1:24.242,30327,),0,0,0
1:24.281,30341,(,0,0,1
1:24.333,30360,N,0,0,0
1:24.378,30376,),0,0,1
1:24.456,30404,(,0,0,2
1:24.564,30443,t,0,0,4
1:24.675,30483,t,0,0,4
1:24.794,30526,),0,0,2
1:24.822,30536,(,0,0,0
1:24.875,30555,p,0,0,0
1:24.931,30575,),0,0,0
1:24.947,30581,(,0,0,1
1:25.019,30607,N,0,0,0
1:25.061,30622,),0,0,1
1:25.133,30648,(,0,0,2
1:25.244,30688,t,0,0,4
1:25.356,30728,t,0,0,4
1:25.453,30763,),0,0,2
1:25.511,30784,(,0,0,0
1:25.561,30802,p,0,0,0
1:25.619,30823,),0,0,0
1:25.642,30831,(,0,0,1
1:25.711,30856,N,0,0,0
1:25.756,30872,),0,0,1
1:25.828,30898,(,0,0,2
1:25.933,30936,t,0,0,4
1:26.044,30976,t,0,0,4
1:26.150,31014,),0,0,2
1:26.203,31033,(,0,0,0
1:26.253,31051,p,0,0,0
1:26.317,31074,),0,0,0
1:26.342,31083,(,0,0,1
1:26.400,31104,N,0,0,0
1:26.461,31126,),0,0,1
1:26.531,31151,(,0,0,2
1:26.622,31184,t,0,0,4
1:26.739,31226,t,0,0,4
1:26.839,31262,),0,0,2
1:26.903,31285,(,0,0,0
1:26.956,31304,p,0,0,0
1:27.008,31323,),0,0,0
1:27.044,31336,(,0,0,1
1:27.094,31354,N,0,0,0
1:27.161,31378,),0,0,1
1:27.256,31412,(,0,0,2
1:27.317,31434,t,0,0,4
1:27.419,31471,t,0,0,4
1:27.494,31498,),0,0,2
1:27.572,31526,(,0,0,0
1:27.631,31547,p,0,0,0
1:27.689,31568,),0,0,0
1:27.722,31580,(,0,0,1
1:27.772,31598,N,0,0,0
1:27.831,31619,),0,0,1
1:27.925,31653,(,0,0,2
1:27.989,31676,t,0,0,4
1:28.111,31720,t,0,0,4
1:28.203,31753,),0,0,2
1:28.258,31773,(,0,0,0
1:28.319,31795,p,0,0,0
1:28.375,31815,),0,0,0
1:28.414,31829,(,0,0,1
1:28.461,31846,N,0,0,0
1:28.525,31869,),0,0,1
1:28.572,31886,(,0,0,2
1:28.692,31929,t,0,0,4
1:28.806,31970,t,0,0,4
1:28.872,31994,),0,0,2
1:28.953,32023,(,0,0,0
1:29.003,32041,p,0,0,0
1:29.053,32059,),0,0,0
1:29.111,32080,(,0,0,1
1:29.153,32095,N,0,0,0
1:29.206,32114,),0,0,1
1:29.283,32142,(,0,0,2
1:29.386,32179,t,0,0,4
1:29.489,32216,t,0,0,4
1:29.581,32249,),0,0,2
1:29.650,32274,(,0,0,0
1:29.697,32291,p,0,0,0
1:29.753,32311,),0,0,0
1:29.783,32322,(,0,0,1
1:29.842,32343,N,0,0,0
1:29.892,32361,),0,0,1
1:29.978,32392,(,0,0,2
1:30.078,32428,t,0,0,4
1:30.192,32469,t,0,0,4
1:30.278,32500,),0,0,2
1:30.342,32523,(,0,0,0
1:30.397,32543,p,0,0,0
1:30.444,32560,),0,0,0
1:30.483,32574,(,0,0,1
1:30.536,32593,N,0,0,0
1:30.589,32612,),0,0,1
1:30.658,32637,(,0,0,2
1:30.744,32668,t,0,0,4
1:30.858,32709,t,0,0,4
1:30.964,32747,),0,0,2
1:31.011,32764,(,0,0,0
1:31.061,32782,p,0,0,0
1:31.119,32803,),0,0,0
1:31.147,32813,(,0,0,1
1:31.211,32836,N,0,0,0
1:31.261,32854,),0,0,1
1:31.372,32894,(,0,0,2
1:31.439,32918,t,0,0,4
1:31.556,32960,t,0,0,4
1:31.636,32989,),0,0,2
1:31.706,33014,(,0,0,0
1:31.756,33032,p,0,0,0
1:31.808,33051,),0,0,0
1:31.847,33065,(,0,0,1
1:31.894,33082,N,0,0,0
1:31.953,33103,),0,0,1
1:32.003,33121,(,0,0,2
1:32.125,33165,t,0,0,4
1:32.231,33203,t,0,0,4
1:32.317,33234,),0,0,2
1:32.397,33263,(,0,0,0
1:32.442,33279,p,0,0,0
1:32.497,33299,),0,0,0
1:32.517,33306,(,0,0,1
1:32.592,33333,N,0,0,0
1:32.647,33353,),0,0,1
1:32.697,33371,(,0,0,2
1:32.811,33412,t,0,0,4
1:32.922,33452,t,0,0,4
1:33.039,33494,),0,0,2
1:33.075,33507,(,0,0,0
1:33.136,33529,p,0,0,0
1:33.192,33549,),0,0,0
1:33.217,33558,(,0,0,1
1:33.278,33580,N,0,0,0
1:33.339,33602,),0,0,1
1:33.403,33625,(,0,0,2
1:33.486,33655,t,0,0,4
1:33.617,33702,t,0,0,4
1:33.711,33736,),0,0,2
1:33.800,33768,(,0,0,0
1:33.828,33778,p,0,0,0
1:33.878,33796,),0,0,0
1:33.914,33809,(,0,0,1
1:33.969,33829,N,0,0,0
1:34.036,33853,),0,0,1
1:34.092,33873,(,0,0,2
1:34.203,33913,t,0,0,4
1:34.311,33952,t,0,0,4
1:34.367,33972,),0,0,2
1:34.461,34006,(,0,0,0
1:34.503,34021,p,0,0,0
1:34.572,34046,),0,0,0
1:34.614,34061,(,0,0,1
1:34.664,34079,N,0,0,0
1:34.728,34102,),0,0,1
1:34.853,34147,(,0,0,2
1:34.889,34160,t,0,0,4
1:35.008,34203,t,0,0,4
1:35.089,34232,),0,0,2
1:35.144,34252,(,0,0,0
1:35.197,34271,p,0,0,0
1:35.258,34293,),0,0,0
1:35.281,34301,(,0,0,1
1:35.339,34322,N,0,0,0
1:35.389,34340,),0,0,1
1:35.458,34365,(,0,0,2
1:35.572,34406,t,0,0,4
1:35.669,34441,t,0,0,4
1:35.769,34477,),0,0,2
1:35.814,34493,(,0,0,0
1:35.867,34512,p,0,0,0
1:35.919,34531,),0,0,0
1:35.950,34542,(,0,0,1
1:36.014,34565,N,0,0,0
1:36.061,34582,),0,0,1
1:36.125,34605,(,0,0,2
1:36.250,34650,t,0,0,4
1:36.361,34690,t,0,0,4
1:36.422,34712,),0,0,2
1:36.511,34744,(,0,0,0
1:36.564,34763,p,0,0,0
1:36.622,34784,),0,0,0
1:36.675,34803,(,0,0,1
1:36.711,34816,N,0,0,0
1:36.756,34832,),0,0,1
1:36.861,34870,(,0,0,2
1:36.939,34898,t,0,0,4
1:37.044,34936,t,0,0,4
1:37.131,34967,),0,0,2
1:37.200,34992,(,0,0,0
1:37.244,35008,p,0,0,0
1:37.300,35028,),0,0,0
1:37.347,35045,(,0,0,1
1:37.386,35059,N,0,0,0
1:37.436,35077,),0,0,1
1:37.519,35107,(,0,0,2
1:37.617,35142,t,0,0,4
1:37.731,35183,t,0,0,4
1:37.803,35209,),0,0,2
1:37.875,35235,(,0,0,0
1:37.925,35253,p,0,0,0
1:37.978,35272,),0,0,0
1:38.014,35285,(,0,0,1
1:38.061,35302,N,0,0,0
1:38.108,35319,),0,0,1
1:38.189,35348,(,0,0,2
1:38.272,35378,t,0,0,4
1:38.381,35417,t,0,0,4
1:38.486,35455,),0,0,2
1:38.533,35472,(,0,0,0
1:38.589,35492,p,0,0,0
1:38.642,35511,),0,0,0
1:38.683,35526,(,0,0,1
1:38.736,35545,N,0,0,0
1:38.792,35565,),0,0,1
1:38.886,35599,(,0,0,2
1:38.961,35626,t,0,0,4
1:39.069,35665,t,0,0,4
1:39.183,35706,),0,0,2
1:39.222,35720,(,0,0,0
1:39.272,35738,p,0,0,0
1:39.333,35760,),0,0,0
1:39.372,35774,(,0,0,1
1:39.411,35788,N,0,0,0
1:39.467,35808,),0,0,1
1:39.558,35841,(,0,0,2
1:39.636,35869,t,0,0,4
1:39.747,35909,t,0,0,4
1:39.814,35933,),0,0,2
1:39.897,35963,(,0,0,0
1:39.953,35983,p,0,0,0
1:40.003,36001,),0,0,0
1:40.053,36019,(,0,0,1
1:40.094,36034,N,0,0,0
1:40.156,36056,),0,0,1
1:40.236,36085,(,0,0,2
1:40.322,36116,t,0,0,4
1:40.431,36155,t,0,0,4
1:40.514,36185,),0,0,2
1:40.586,36211,(,0,0,0
1:40.636,36229,p,0,0,0
1:40.692,36249,),0,0,0
1:40.717,36258,(,0,0,1
1:40.781,36281,N,0,0,0
1:40.839,36302,),0,0,1
1:40.892,36321,(,0,0,2
1:41.006,36362,t,0,0,4
1:41.114,36401,t,0,0,4
1:41.206,36434,),0,0,2
1:41.286,36463,(,0,0,0
1:41.342,36483,p,0,0,0
1:41.397,36503,),0,0,0
1:41.422,36512,(,0,0,1
1:41.483,36534,N,0,0,0
1:41.544,36556,),0,0,1
1:41.594,36574,(,0,0,2
1:41.711,36616,t,0,0,4
1:41.808,36651,t,0,0,4
1:41.889,36680,),0,0,2
1:41.983,36714,(,0,0,0
1:42.031,36731,p,0,0,0
1:42.086,36751,),0,0,0
1:42.119,36763,(,0,0,1
1:42.175,36783,N,0,0,0
1:42.233,36804,),0,0,1
1:42.300,36828,(,0,0,2
1:42.381,36857,t,0,0,4
1:42.500,36900,t,0,0,4
1:42.600,36936,),0,0,2
1:42.667,36960,(,0,0,0
1:42.722,36980,p,0,0,0
1:42.778,37000,),0,0,0
1:42.808,37011,(,0,0,1
1:42.861,37030,N,0,0,0
1:42.928,37054,),0,0,1
1:42.978,37072,(,0,0,2
1:43.075,37107,t,0,0,4
1:43.192,37149,t,0,0,4
1:43.283,37182,),0,0,2
1:43.347,37205,(,0,0,0
1:43.406,37226,p,0,0,0
1:43.456,37244,),0,0,0
1:43.492,37257,(,0,0,1
1:43.553,37279,N,0,0,0
1:43.625,37305,),0,0,1
1:43.706,37334,(,0,0,2
1:43.786,37363,t,0,0,4
1:43.894,37402,t,0,0,4
1:43.947,37421,),0,0,2
1:44.053,37459,(,0,0,0
1:44.108,37479,p,0,0,0
1:44.169,37501,),0,0,0
1:44.219,37519,(,0,0,1
1:44.258,37533,N,0,0,0
1:44.303,37549,),0,0,1
1:44.411,37588,(,0,0,2
1:44.483,37614,t,0,0,4
1:44.600,37656,t,0,0,4
1:44.669,37681,),0,0,2
1:44.750,37710,(,0,0,0
1:44.800,37728,p,0,0,0
1:44.864,37751,),0,0,0
1:44.914,37769,(,0,0,1
1:44.956,37784,N,0,0,0
1:45.006,37802,),0,0,1
1:45.064,37823,(,0,0,2
1:45.183,37866,t,0,0,4
1:45.286,37903,t,0,0,4
1:45.356,37928,),0,0,2
1:45.444,37960,(,0,0,0
1:45.486,37975,p,0,0,0
1:45.547,37997,),0,0,0
1:45.592,38013,(,0,0,1
1:45.639,38030,N,0,0,0
1:45.697,38051,),0,0,1
1:45.806,38090,(,0,0,2
1:45.861,38110,t,0,0,4
1:45.978,38152,t,0,0,4
1:46.069,38185,),0,0,2
1:46.147,38213,(,0,0,0
1:46.194,38230,p,0,0,0
1:46.253,38251,),0,0,0
1:46.289,38264,(,0,0,1
1:46.342,38283,N,0,0,0
1:46.403,38305,),0,0,1
1:46.464,38327,(,0,0,2
1:46.569,38365,t,0,0,4
1:46.672,38402,t,0,0,4
1:46.775,38439,),0,0,2
1:46.850,38466,(,0,0,0
1:46.894,38482,p,0,0,0
1:46.944,38500,),0,0,0
1:46.992,38517,(,0,0,1
1:47.044,38536,N,0,0,0
1:47.103,38557,),0,0,1
1:47.164,38579,(,0,0,2
1:47.269,38617,t,0,0,4
1:47.372,38654,t,0,0,4
1:47.478,38692,),0,0,2
1:47.542,38715,(,0,0,0
1:47.594,38734,p,0,0,0
1:47.653,38755,),0,0,0
1:47.664,38759,(,0,0,1
1:47.733,38784,N,0,0,0
1:47.797,38807,),0,0,1
1:47.847,38825,(,0,0,2
1:47.953,38863,t,0,0,4
1:48.069,38905,t,0,0,4
1:48.181,38945,),0,0,2
1:48.242,38967,(,0,0,0
1:48.294,38986,p,0,0,0
1:48.356,39008,),0,0,0
1:48.392,39021,(,0,0,1
1:48.447,39041,N,0,0,0
1:48.511,39064,),0,0,1
1:48.600,39096,(,0,0,2
1:48.675,39123,t,0,0,4
1:48.783,39162,t,0,0,4
1:48.889,39200,),0,0,2
1:48.953,39223,(,0,0,0
1:49.003,39241,p,0,0,0
1:49.064,39263,),0,0,0
1:49.092,39273,(,0,0,1
1:49.150,39294,N,0,0,0
1:49.211,39316,),0,0,1
1:49.275,39339,(,0,0,2
1:49.381,39377,t,0,0,4
1:49.494,39418,t,0,0,4
1:49.539,39434,),0,0,2
1:49.650,39474,(,0,0,0
1:49.708,39495,p,0,0,0
1:49.764,39515,),0,0,0
1:49.789,39524,(,0,0,1
1:49.850,39546,N,0,0,0
1:49.911,39568,),0,0,1
1:49.992,39597,(,0,0,2
1:50.083,39630,t,0,0,1
1:50.175,39663,),0,0,2
1:50.339,39722,(,0,0,0
1:50.383,39738,p,0,0,0
1:50.444,39760,),0,0,0
1:50.489,39776,(,0,0,1
1:50.533,39792,N,0,0,0
1:50.589,39812,),0,0,1
1:50.692,39849,(,0,0,2
1:50.769,39877,t,0,0,4
1:50.886,39919,t,0,0,4
1:50.950,39942,),0,0,2
1:51.047,39977,(,0,0,0
1:51.100,39996,p,0,0,0
1:51.164,40019,),0,0,0
1:51.211,40036,(,0,0,1
1:51.250,40050,N,0,0,0
1:51.306,40070,),0,0,1
1:51.422,40112,(,0,0,2
1:51.475,40131,t,0,0,4
1:51.581,40169,t,0,0,4
1:51.625,40185,),0,0,2
1:51.747,40229,(,0,0,0
1:51.789,40244,p,0,0,0
1:51.847,40265,),0,0,0
1:51.892,40281,(,0,0,1
1:51.944,40300,N,0,0,0
1:52.000,40320,),0,0,1
1:52.100,40356,(,0,0,2
1:52.181,40385,t,0,0,4
1:52.286,40423,t,0,0,4
1:52.364,40451,),0,0,2
1:52.450,40482,(,0,0,0
1:52.500,40500,p,0,0,0
1:52.558,40521,),0,0,0
1:52.597,40535,(,0,0,1
1:52.642,40551,N,0,0,0
1:52.703,40573,),0,0,1
1:52.747,40589,(,0,0,2
1:52.853,40627,t,0,0,4
1:52.964,40667,t,0,0,4
1:53.036,40693,),0,0,2
1:53.131,40727,(,0,0,0
1:53.186,40747,p,0,0,0
1:53.247,40769,),0,0,0
1:53.294,40786,(,0,0,1
1:53.342,40803,N,0,0,0
1:53.400,40824,),0,0,1
1:53.444,40840,(,0,0,2
1:53.575,40887,t,0,0,4
1:53.683,40926,t,0,0,4
1:53.778,40960,),0,0,2
1:53.847,40985,(,0,0,0
1:53.897,41003,p,0,0,0
1:53.958,41025,),0,0,0
1:53.994,41038,(,0,0,1
1:54.044,41056,N,0,0,0
1:54.106,41078,),0,0,1
1:54.147,41093,(,0,0,2
1:54.272,41138,t,0,0,4
1:54.381,41177,t,0,0,4
1:54.461,41206,),0,0,2
1:54.547,41237,(,0,0,0
1:54.594,41254,p,0,0,0
1:54.650,41274,),0,0,0
1:54.700,41292,(,0,0,1
1:54.747,41309,N,0,0,0
1:54.808,41331,),0,0,1
1:54.839,41342,(,0,0,2
1:54.969,41389,t,0,0,4
1:55.072,41426,t,0,0,4
1:55.158,41457,),0,0,2
1:55.225,41481,(,0,0,0
1:55.283,41502,p,0,0,0
1:55.339,41522,),0,0,0
1:55.392,41541,(,0,0,1
1:55.431,41555,N,0,0,0
1:55.500,41580,),0,0,1
1:55.578,41608,(,0,0,2
1:55.669,41641,t,0,0,4
1:55.772,41678,t,0,0,4
1:55.819,41695,),0,0,2
1:55.950,41742,(,0,0,0
1:56.006,41762,p,0,0,0
1:56.067,41784,),0,0,0
1:56.094,41794,(,0,0,1
1:56.156,41816,N,0,0,0
1:56.219,41839,),0,0,1
1:56.311,41872,(,0,0,2
1:56.375,41895,t,0,0,4
1:56.492,41937,t,0,0,4
1:56.561,41962,),0,0,2
1:56.639,41990,(,0,0,0
1:56.694,42010,p,0,0,0
1:56.750,42030,),0,0,0
1:56.800,42048,(,0,0,1
1:56.842,42063,N,0,0,0
1:56.889,42080,),0,0,1
1:56.969,42109,(,0,0,2
1:57.072,42146,t,0,0,4
1:57.181,42185,t,0,0,4
1:57.286,42223,),0,0,2
1:57.336,42241,(,0,0,0
1:57.389,42260,p,0,0,0
1:57.444,42280,),0,0,0
1:57.464,42287,(,0,0,1
1:57.536,42313,N,0,0,0
1:57.581,42329,),0,0,1
1:57.633,42348,(,0,0,2
1:57.767,42396,t,0,0,4
1:57.872,42434,t,0,0,4
1:57.989,42476,),0,0,2
1:58.033,42492,(,0,0,0
1:58.083,42510,p,0,0,0
1:58.147,42533,),0,0,0
1:58.164,42539,(,0,0,1
1:58.244,42568,N,0,0,0
1:58.306,42590,),0,0,1
1:58.378,42616,(,0,0,2
1:58.483,42654,t,0,0,4
1:58.589,42692,t,0,0,4
1:58.692,42729,),0,0,2
1:58.750,42750,(,0,0,0
1:58.800,42768,p,0,0,0
1:58.864,42791,),0,0,0
1:58.897,42803,(,0,0,1
1:58.944,42820,N,0,0,0
1:59.011,42844,),0,0,1
1:59.039,42854,(,0,0,2
1:59.164,42899,t,0,0,4
1:59.283,42942,t,0,0,4
1:59.394,42982,),0,0,2
1:59.450,43002,(,0,0,0
1:59.494,43018,p,0,0,0
1:59.558,43041,),0,0,0
1:59.600,43056,(,0,0,1
1:59.647,43073,N,0,0,0
1:59.708,43095,),0,0,1
1:59.783,43122,(,0,0,2
1:59.869,43153,t,0,0,4
1:59.975,43191,t,0,0,4
2:00.086,43231,),0,0,2
2:00.125,43245,(,0,0,0
2:00.172,43262,p,0,0,0
2:00.242,43287,),0,0,0
2:00.267,43296,(,0,0,1
2:00.325,43317,N,0,0,0
2:00.386,43339,),0,0,1
2:00.478,43372,(,0,0,2
2:00.556,43400,t,0,0,4
2:00.664,43439,t,0,0,4
2:00.728,43462,),0,0,2
2:00.825,43497,(,0,0,0
2:00.886,43519,p,0,0,0
2:00.944,43540,),0,0,0
2:00.964,43547,(,0,0,1
2:01.033,43572,N,0,0,0
2:01.097,43595,),0,0,1
2:01.181,43625,(,0,0,2
2:01.253,43651,t,0,0,4
2:01.361,43690,t,0,0,4
2:01.453,43723,),0,0,2
2:01.517,43746,(,0,0,0
2:01.564,43763,p,0,0,0
2:01.619,43783,),0,0,0
2:01.636,43789,(,0,0,1
2:01.711,43816,N,0,0,0
2:01.775,43839,),0,0,1
2:01.875,43875,(,0,0,2
2:01.939,43898,t,0,0,4
2:02.053,43939,t,0,0,4
2:02.125,43965,),0,0,2
2:02.208,43995,(,0,0,0
2:02.264,44015,p,0,0,0
2:02.325,44037,),0,0,0
2:02.367,44052,(,0,0,1
2:02.411,44068,N,0,0,0
2:02.475,44091,),0,0,1
2:02.500,44100,(,0,0,2
2:02.642,44151,t,0,0,4
2:02.750,44190,t,0,0,4
2:02.861,44230,),0,0,2
2:02.900,44244,(,0,0,0
2:02.944,44260,p,0,0,0
2:03.003,44281,),0,0,0
2:03.036,44293,(,0,0,1
2:03.100,44316,N,0,0,0
2:03.147,44333,),0,0,1
2:03.236,44365,(,0,0,2
2:03.339,44402,t,0,0,4
2:03.447,44441,t,0,0,4
2:03.542,44475,),0,0,2
2:03.594,44494,(,0,0,0
2:03.644,44512,p,0,0,0
2:03.697,44531,),0,0,0
2:03.733,44544,(,0,0,1
2:03.786,44563,N,0,0,0
2:03.831,44579,),0,0,1
2:03.919,44611,(,0,0,2
2:04.017,44646,t,0,0,4
2:04.122,44684,t,0,0,4
2:04.222,44720,),0,0,2
2:04.283,44742,(,0,0,0
2:04.333,44760,p,0,0,0
2:04.392,44781,),0,0,0
2:04.403,44785,(,0,0,1
2:04.478,44812,N,0,0,0
2:04.522,44828,),0,0,1
2:04.619,44863,(,0,0,2
2:04.697,44891,t,0,0,4
2:04.806,44930,t,0,0,4
2:04.864,44951,),0,0,2
2:04.958,44985,(,0,0,0
2:05.008,45003,p,0,0,0
2:05.067,45024,),0,0,0
2:05.103,45037,(,0,0,1
2:05.158,45057,N,0,0,0
2:05.217,45078,),0,0,1
2:05.272,45098,(,0,0,2
2:05.394,45142,t,0,0,4
2:05.508,45183,t,0,0,4
2:05.569,45205,),0,0,2
2:05.672,45242,(,0,0,0
2:05.725,45261,p,0,0,0
2:05.789,45284,),0,0,0
2:05.828,45298,(,0,0,1
2:05.878,45316,N,0,0,0
2:05.947,45341,),0,0,1
2:06.019,45367,(,0,0,2
2:06.100,45396,t,0,0,4
2:06.211,45436,t,0,0,4
2:06.267,45456,),0,0,2
2:06.375,45495,(,0,0,0
2:06.419,45511,p,0,0,0
2:06.481,45533,),0,0,0
2:06.503,45541,(,0,0,1
2:06.572,45566,N,0,0,0
2:06.631,45587,),0,0,1
2:06.694,45610,(,0,0,2
2:06.800,45648,t,0,0,4
2:06.906,45686,t,0,0,4
2:07.003,45721,),0,0,2
2:07.075,45747,(,0,0,0
2:07.125,45765,p,0,0,0
2:07.186,45787,),0,0,0
2:07.206,45794,(,0,0,1
2:07.267,45816,N,0,0,0
2:07.328,45838,),0,0,1
2:07.411,45868,(,0,0,2
2:07.478,45892,t,0,0,4
2:07.589,45932,t,0,0,4
2:07.669,45961,),0,0,2
2:07.756,45992,(,0,0,0
2:07.806,46010,p,0,0,0
2:07.864,46031,),0,0,0
2:07.908,46047,(,0,0,1
2:07.958,46065,N,0,0,0
2:08.022,46088,),0,0,1
2:08.144,46132,(,0,0,2
2:08.194,46150,t,0,0,4
2:08.306,46190,t,0,0,4
2:08.383,46218,),0,0,2
2:08.467,46248,(,0,0,0
2:08.519,46267,p,0,0,0
2:08.575,46287,),0,0,0
2:08.625,46305,(,0,0,1
2:08.667,46320,N,0,0,0
2:08.719,46339,),0,0,1
2:08.794,46366,(,0,0,2
2:08.894,46402,t,0,0,4
2:09.003,46441,t,0,0,4
2:09.067,46464,),0,0,2
2:09.161,46498,(,0,0,0
2:09.208,46515,p,0,0,0
2:09.269,46537,),0,0,0
2:09.306,46550,(,0,0,1
2:09.358,46569,N,0,0,0
2:09.419,46591,),0,0,1
2:09.461,46606,(,0,0,2
2:09.592,46653,t,0,0,4
2:09.697,46691,t,0,0,4
2:09.758,46713,),0,0,2
2:09.858,46749,(,0,0,0
2:09.903,46765,p,0,0,0
2:09.972,46790,),0,0,0
2:10.006,46802,(,0,0,1
2:10.061,46822,N,0,0,0
2:10.122,46844,),0,0,1
2:10.219,46879,(,0,0,2
2:10.289,46904,t,0,0,4
2:10.406,46946,t,0,0,4
2:10.481,46973,),0,0,2
2:10.575,47007,(,0,0,0
2:10.628,47026,p,0,0,0
2:10.692,47049,),0,0,0
2:10.736,47065,(,0,0,1
2:10.789,47084,N,0,0,0
2:10.853,47107,),0,0,1
2:10.944,47140,(,0,0,2
2:11.003,47161,t,0,0,4
2:11.122,47204,t,0,0,4
2:11.208,47235,),0,0,2
2:11.286,47263,(,0,0,0
2:11.331,47279,p,0,0,0
2:11.400,47304,),0,0,0
2:11.439,47318,(,0,0,1
2:11.492,47337,N,0,0,0
2:11.550,47358,),0,0,1
2:11.647,47393,(,0,0,2
2:11.708,47415,t,0,0,4
2:11.819,47455,t,0,0,4
2:11.911,47488,),0,0,2
2:11.992,47517,(,0,0,0
2:12.042,47535,p,0,0,0
2:12.100,47556,),0,0,0
2:12.136,47569,(,0,0,1
2:12.192,47589,N,0,0,0
2:12.256,47612,),0,0,1
2:12.339,47642,(,0,0,2
2:12.411,47668,t,0,0,4
2:12.522,47708,t,0,0,4
2:12.592,47733,),0,0,2
2:12.700,47772,(,0,0,0
2:12.747,47789,p,0,0,0
2:12.808,47811,),0,0,0
2:12.836,47821,(,0,0,1
2:12.908,47847,N,0,0,0
2:12.978,47872,),0,0,1
2:13.044,47896,(,0,0,2
2:13.147,47933,t,0,0,4
2:13.253,47971,t,0,0,4
2:13.292,47985,),0,0,2
2:13.431,48035,(,0,0,0
2:13.481,48053,p,0,0,0
2:13.539,48074,),0,0,0
2:13.572,48086,(,0,0,1
2:13.633,48108,N,0,0,0
2:13.692,48129,),0,0,1
2:13.753,48151,(,0,0,2
2:13.861,48190,t,0,0,4
2:13.967,48228,t,0,0,4
2:14.019,48247,),0,0,2
2:14.133,48288,(,0,0,0
2:14.181,48305,p,0,0,0
2:14.239,48326,),0,0,0
2:14.303,48349,(,0,0,1
2:14.339,48362,N,0,0,0
2:14.389,48380,),0,0,1
2:14.472,48410,(,0,0,2
2:14.561,48442,t,0,0,4
2:14.669,48481,t,0,0,4
2:14.728,48502,),0,0,2
2:14.828,48538,(,0,0,0
2:14.875,48555,p,0,0,0
2:14.939,48578,),0,0,0
2:14.975,48591,(,0,0,1
2:15.025,48609,N,0,0,0
2:15.086,48631,),0,0,1
2:15.178,48664,(,0,0,2
2:15.250,48690,t,0,0,4
2:15.367,48732,t,0,0,4
2:15.417,48750,),0,0,2
2:15.539,48794,(,0,0,0
2:15.586,48811,p,0,0,0
2:15.653,48835,),0,0,0
2:15.706,48854,(,0,0,1
2:15.747,48869,N,0,0,0
2:15.797,48887,),0,0,1
2:15.872,48914,(,0,0,2
2:15.969,48949,t,0,0,4
2:16.075,48987,t,0,0,4
2:16.175,49023,),0,0,2
2:16.250,49050,(,0,0,0
2:16.294,49066,p,0,0,0
2:16.358,49089,),0,0,0
2:16.408,49107,(,0,0,1
2:16.447,49121,N,0,0,0
2:16.514,49145,),0,0,1
2:16.592,49173,(,0,0,2
2:16.672,49202,t,0,0,4
2:16.781,49241,t,0,0,4
2:16.869,49273,),0,0,2
2:16.947,49301,(,0,0,0
2:16.997,49319,p,0,0,0
2:17.061,49342,),0,0,0
2:17.108,49359,(,0,0,1
2:17.156,49376,N,0,0,0
2:17.217,49398,),0,0,1
2:17.289,49424,(,0,0,2
2:17.372,49454,t,0,0,4
2:17.489,49496,t,0,0,4
2:17.572,49526,),0,0,2
2:17.672,49562,(,0,0,0
2:17.722,49580,p,0,0,0
2:17.781,49601,),0,0,0
2:17.839,49622,(,0,0,1
2:17.883,49638,N,0,0,0
2:17.953,49663,),0,0,1
2:17.981,49673,(,0,0,2
2:18.114,49721,t,0,0,4
2:18.225,49761,t,0,0,4
2:18.272,49778,),0,0,2
2:18.400,49824,(,0,0,0
2:18.439,49838,p,0,0,0
2:18.500,49860,),0,0,0
2:18.547,49877,(,0,0,1
2:18.594,49894,N,0,0,0
2:18.647,49913,),0,0,1
2:18.753,49951,(,0,0,2
2:18.819,49975,t,0,0,4
2:18.931,50015,t,0,0,4
2:19.006,50042,),0,0,2
2:19.086,50071,(,0,0,0
2:19.142,50091,p,0,0,0
2:19.203,50113,),0,0,0
2:19.244,50128,(,0,0,1
2:19.292,50145,N,0,0,0
2:19.356,50168,),0,0,1
2:19.417,50190,(,0,0,2
2:19.517,50226,t,0,0,4
2:19.625,50265,t,0,0,4
2:19.672,50282,),0,0,2
2:19.794,50326,(,0,0,0
2:19.833,50340,p,0,0,0
2:19.894,50362,),0,0,0
2:19.911,50368,(,0,0,1
2:19.994,50398,N,0,0,0
2:20.056,50420,),0,0,1
2:20.144,50452,(,0,0,2
2:20.231,50483,t,0,0,4
2:20.344,50524,t,0,0,4
2:20.442,50559,),0,0,2
2:20.525,50589,(,0,0,0
2:20.569,50605,p,0,0,0
2:20.636,50629,),0,0,0
2:20.681,50645,(,0,0,1
2:20.733,50664,N,0,0,0
2:20.792,50685,),0,0,1
2:20.861,50710,(,0,0,2
2:20.958,50745,t,0,0,4
2:21.064,50783,t,0,0,4
2:21.114,50801,),0,0,2
2:21.239,50846,(,0,0,0
2:21.281,50861,p,0,0,0
2:21.342,50883,),0,0,0
2:21.372,50894,(,0,0,1
2:21.442,50919,N,0,0,0
2:21.497,50939,),0,0,1
2:21.592,50973,(,0,0,2
2:21.664,50999,t,0,0,4
2:21.783,51042,t,0,0,4
2:21.856,51068,),0,0,2
2:21.972,51110,(,0,0,0
2:22.011,51124,p,0,0,0
2:22.075,51147,),0,0,0
2:22.111,51160,(,0,0,1
2:22.158,51177,N,0,0,0
2:22.222,51200,),0,0,1
2:22.325,51237,(,0,0,2
2:22.378,51256,t,0,0,4
2:22.486,51295,t,0,0,4
2:22.611,51340,),0,0,2
2:22.669,51361,(,0,0,0
2:22.717,51378,p,0,0,0
2:22.778,51400,),0,0,0
2:22.839,51422,(,0,0,1
2:22.878,51436,N,0,0,0
2:22.942,51459,),0,0,1
2:23.031,51491,(,0,0,2
2:23.111,51520,t,0,0,4
2:23.222,51560,t,0,0,4
2:23.278,51580,),0,0,2
2:23.403,51625,(,0,0,0
2:23.444,51640,p,0,0,0
2:23.492,51657,),0,0,0
2:23.544,51676,(,0,0,1
2:23.592,51693,N,0,0,0
2:23.658,51717,),0,0,1
2:23.756,51752,(,0,0,2
2:23.819,51775,t,0,0,4
2:23.928,51814,t,0,0,4
2:24.044,51856,),0,0,2
2:24.097,51875,(,0,0,0
2:24.142,51891,p,0,0,0
2:24.203,51913,),0,0,0
2:24.217,51918,(,0,0,1
2:24.300,51948,N,0,0,0
2:24.358,51969,),0,0,1
2:24.444,52000,(,0,0,2
2:24.539,52034,t,0,0,4
2:24.650,52074,t,0,0,4
2:24.739,52106,),0,0,2
2:24.806,52130,(,0,0,0
2:24.858,52149,p,0,0,0
2:24.914,52169,),0,0,0
2:24.947,52181,(,0,0,1
2:25.017,52206,N,0,0,0
2:25.064,52223,),0,0,1
2:25.128,52246,(,0,0,2
2:25.250,52290,t,0,0,1
2:25.353,52327,),0,0,2
2:25.536,52393,(,0,0,0
2:25.586,52411,p,0,0,0
2:25.644,52432,),0,0,0
2:25.681,52445,(,0,0,1
2:25.742,52467,N,0,0,0
2:25.792,52485,),0,0,1
2:25.919,52531,(,0,0,2
2:25.975,52551,t,0,0,4
2:26.081,52589,t,0,0,4
2:26.178,52624,),0,0,2
2:26.247,52649,(,0,0,0
2:26.294,52666,p,0,0,0
2:26.350,52686,),0,0,0
2:26.406,52706,(,0,0,1
2:26.447,52721,N,0,0,0
2:26.511,52744,),0,0,1
2:26.622,52784,(,0,0,2
2:26.678,52804,t,0,0,4
2:26.781,52841,t,0,0,4
2:26.842,52863,),0,0,2
2:26.950,52902,(,0,0,0
2:27.008,52923,p,0,0,0
2:27.061,52942,),0,0,0
2:27.081,52949,(,0,0,1
2:27.158,52977,N,0,0,0
2:27.225,53001,),0,0,1
2:27.292,53025,(,0,0,2
2:27.392,53061,t,0,0,4
2:27.497,53099,t,0,0,4
2:27.597,53135,),0,0,2
2:27.667,53160,(,0,0,0
2:27.722,53180,p,0,0,0
2:27.789,53204,),0,0,0
2:27.814,53213,(,0,0,1
2:27.878,53236,N,0,0,0
2:27.947,53261,),0,0,1
2:28.039,53294,(,0,0,2
2:28.111,53320,t,0,0,4
2:28.228,53362,t,0,0,4
2:28.281,53381,),0,0,2
2:28.386,53419,(,0,0,0
2:28.439,53438,p,0,0,0
2:28.500,53460,),0,0,0
2:28.553,53479,(,0,0,1
2:28.592,53493,N,0,0,0
2:28.656,53516,),0,0,1
2:28.767,53556,(,0,0,2
2:28.819,53575,t,0,0,4
2:28.931,53615,t,0,0,4
2:29.014,53645,),0,0,2
2:29.083,53670,(,0,0,0
2:29.142,53691,p,0,0,0
2:29.197,53711,),0,0,0
2:29.217,53718,(,0,0,1
2:29.294,53746,N,0,0,0
2:29.358,53769,),0,0,1
2:29.447,53801,(,0,0,2
2:29.533,53832,t,0,0,4
2:29.636,53869,t,0,0,4
2:29.689,53888,),0,0,2
2:29.775,53919,(,0,0,0
2:29.814,53933,p,0,0,0
2:29.875,53955,),0,0,0
2:29.919,53971,(,0,0,1
2:29.969,53989,N,0,0,0
2:30.033,54012,),0,0,1
2:30.150,54054,(,0,0,2
2:30.211,54076,t,0,0,1
2:30.308,54111,),0,0,2
2:30.467,54168,(,0,0,0
2:30.508,54183,p,0,0,0
2:30.586,54211,),0,0,0
2:30.619,54223,(,0,0,1
2:30.672,54242,N,0,0,0
2:30.722,54260,),0,0,1
2:30.769,54277,(,0,0,2
2:30.908,54327,t,0,0,4
2:31.006,54362,t,0,0,4
2:31.044,54376,),0,0,2
2:31.153,54415,(,0,0,0
2:31.200,54432,p,0,0,0
2:31.258,54453,),0,0,0
2:31.283,54462,(,0,0,1
2:31.353,54487,N,0,0,0
2:31.403,54505,),0,0,1
2:31.472,54530,(,0,0,2
2:31.589,54572,t,0,0,4
2:31.689,54608,t,0,0,4
2:31.778,54640,),0,0,2
2:31.839,54662,(,0,0,0
2:31.892,54681,p,0,0,0
2:31.956,54704,),0,0,0
2:31.983,54714,(,0,0,1
2:32.044,54736,N,0,0,0
2:32.094,54754,),0,0,1
2:32.169,54781,(,0,0,2
2:32.286,54823,t,0,0,4
2:32.392,54861,t,0,0,4
2:32.439,54878,),0,0,2
2:32.544,54916,(,0,0,0
2:32.600,54936,p,0,0,0
2:32.661,54958,),0,0,0
2:32.683,54966,(,0,0,1
2:32.756,54992,N,0,0,0
2:32.800,55008,),0,0,1
2:32.914,55049,(,0,0,2
2:32.994,55078,t,0,0,4
2:33.094,55114,t,0,0,4
2:33.214,55157,),0,0,2
2:33.250,55170,(,0,0,0
2:33.300,55188,p,0,0,0
2:33.358,55209,),0,0,0
2:33.386,55219,(,0,0,1
2:33.450,55242,N,0,0,0
2:33.508,55263,),0,0,1
2:33.592,55293,(,0,0,2
2:33.675,55323,t,0,0,4
2:33.789,55364,t,0,0,4
2:33.875,55395,),0,0,2
2:33.936,55417,(,0,0,0
2:33.994,55438,p,0,0,0
2:34.047,55457,),0,0,0
2:34.086,55471,(,0,0,1
2:34.139,55490,N,0,0,0
2:34.200,55512,),0,0,1
2:34.289,55544,(,0,0,2
2:34.378,55576,t,0,0,4
2:34.481,55613,t,0,0,4
2:34.536,55633,),0,0,2
2:34.631,55667,(,0,0,0
2:34.681,55685,p,0,0,0
2:34.742,55707,),0,0,0
2:34.789,55724,(,0,0,1
2:34.833,55740,N,0,0,0
2:34.881,55757,),0,0,1
2:34.961,55786,(,0,0,2
2:35.078,55828,t,0,0,4
2:35.183,55866,t,0,0,4
2:35.281,55901,),0,0,2
2:35.342,55923,(,0,0,0
2:35.389,55940,p,0,0,0
2:35.450,55962,),0,0,0
2:35.486,55975,(,0,0,1
2:35.539,55994,N,0,0,0
2:35.592,56013,),0,0,1
2:35.678,56044,(,0,0,2
2:35.769,56077,t,0,0,4
2:35.875,56115,t,0,0,4
2:35.944,56140,),0,0,2
2:36.022,56168,(,0,0,0
2:36.075,56187,p,0,0,0
2:36.128,56206,),0,0,0
2:36.186,56227,(,0,0,1
2:36.231,56243,N,0,0,0
2:36.297,56267,),0,0,1
2:36.364,56291,(,0,0,2
2:36.464,56327,t,0,0,4
2:36.569,56365,t,0,0,4
2:36.697,56411,),0,0,2
2:36.725,56421,(,0,0,0
2:36.783,56442,p,0,0,0
2:36.844,56464,),0,0,0
2:36.889,56480,(,0,0,1
2:36.933,56496,N,0,0,0
2:36.997,56519,),0,0,1
2:37.058,56541,(,0,0,2
2:37.147,56573,t,0,0,4
2:37.261,56614,t,0,0,4
2:37.347,56645,),0,0,2
2:37.422,56672,(,0,0,0
2:37.469,56689,p,0,0,0
2:37.528,56710,),0,0,0
2:37.553,56719,(,0,0,1
2:37.628,56746,N,0,0,0
2:37.700,56772,),0,0,1
2:37.792,56805,(,0,0,2
2:37.861,56830,t,0,0,4
2:37.967,56868,t,0,0,4
2:38.069,56905,),0,0,2
2:38.125,56925,(,0,0,0
2:38.181,56945,p,0,0,0
2:38.239,56966,),0,0,0
2:38.256,56972,(,0,0,1
2:38.331,56999,N,0,0,0
2:38.394,57022,),0,0,1
2:38.481,57053,(,0,0,2
2:38.550,57078,t,0,0,4
2:38.661,57118,t,0,0,4
2:38.739,57146,),0,0,2
2:38.822,57176,(,0,0,0
2:38.881,57197,p,0,0,0
2:38.942,57219,),0,0,0
2:38.958,57225,(,0,0,1
2:39.031,57251,N,0,0,0
2:39.097,57275,),0,0,1
2:39.136,57289,(,0,0,2
2:39.253,57331,t,0,0,4
2:39.364,57371,t,0,0,4
2:39.486,57415,),0,0,2
2:39.519,57427,(,0,0,0
2:39.581,57449,p,0,0,0
2:39.636,57469,),0,0,0
2:39.656,57476,(,0,0,1
2:39.731,57503,N,0,0,0
2:39.792,57525,),0,0,1
2:39.861,57550,(,0,0,2
2:39.950,57582,t,0,0,4
2:40.069,57625,t,0,0,4
2:40.167,57660,),0,0,2
2:40.236,57685,(,0,0,0
2:40.294,57706,p,0,0,0
2:40.356,57728,),0,0,0
2:40.392,57741,(,0,0,1
2:40.444,57760,N,0,0,0
2:40.503,57781,),0,0,1
2:40.539,57794,(,0,0,2
2:40.672,57842,t,0,0,4
2:40.778,57880,t,0,0,4
2:40.875,57915,),0,0,2
2:40.936,57937,(,0,0,0
2:40.986,57955,p,0,0,0
2:41.042,57975,),0,0,0
2:41.094,57994,(,0,0,1
2:41.136,58009,N,0,0,0
2:41.197,58031,),0,0,1
2:41.264,58055,(,0,0,2
2:41.364,58091,t,0,0,4
2:41.472,58130,t,0,0,4
2:41.583,58170,),0,0,2
2:41.633,58188,(,0,0,0
2:41.683,58206,p,0,0,0
2:41.753,58231,),0,0,0
2:41.789,58244,(,0,0,1
2:41.839,58262,N,0,0,0
2:41.903,58285,),0,0,1
2:41.939,58298,(,0,0,2
2:42.047,58337,t,0,0,4
2:42.167,58380,t,0,0,4
2:42.281,58421,),0,0,2
2:42.336,58441,(,0,0,0
2:42.383,58458,p,0,0,0
2:42.444,58480,),0,0,0
2:42.492,58497,(,0,0,1
2:42.544,58516,N,0,0,0
2:42.606,58538,),0,0,1
2:42.681,58565,(,0,0,2
2:42.775,58599,t,0,0,4
2:42.886,58639,t,0,0,4
2:42.983,58674,),0,0,2
2:43.050,58698,(,0,0,0
2:43.097,58715,p,0,0,0
2:43.158,58737,),0,0,0
2:43.200,58752,(,0,0,1
2:43.242,58767,N,0,0,0
2:43.306,58790,),0,0,1
2:43.378,58816,(,0,0,2
2:43.456,58844,t,0,0,4
2:43.575,58887,t,0,0,4
2:43.669,58921,),0,0,2
2:43.747,58949,(,0,0,0
2:43.797,58967,p,0,0,0
2:43.856,58988,),0,0,0
2:43.892,59001,(,0,0,1
2:43.950,59022,N,0,0,0
2:44.014,59045,),0,0,1
2:44.097,59075,(,0,0,2
2:44.164,59099,t,0,0,4
2:44.278,59140,t,0,0,4
2:44.361,59170,),0,0,2
2:44.444,59200,(,0,0,0
2:44.497,59219,p,0,0,0
2:44.553,59239,),0,0,0
2:44.592,59253,(,0,0,1
2:44.642,59271,N,0,0,0
2:44.703,59293,),0,0,1
2:44.764,59315,(,0,0,2
2:44.864,59351,t,0,0,4
2:44.978,59392,t,0,0,4
2:45.089,59432,),0,0,2
2:45.153,59455,(,0,0,0
2:45.206,59474,p,0,0,0
2:45.258,59493,),0,0,0
2:45.300,59508,(,0,0,1
2:45.353,59527,N,0,0,0
2:45.414,59549,),0,0,1
2:45.464,59567,(,0,0,2
2:45.561,59602,t,0,0,4
2:45.675,59643,t,0,0,4
2:45.786,59683,),0,0,2
2:45.850,59706,(,0,0,0
2:45.897,59723,p,0,0,0
2:45.958,59745,),0,0,0
2:45.992,59757,(,0,0,1
2:46.050,59778,N,0,0,0
2:46.111,59800,),0,0,1
2:46.167,59820,(,0,0,2
2:46.258,59853,t,0,0,4
2:46.378,59896,t,0,0,4
2:46.486,59935,),0,0,2
2:46.553,59959,(,0,0,0
2:46.603,59977,p,0,0,0
2:46.658,59997,),0,0,0
2:46.694,60010,(,0,0,1
2:46.750,60030,N,0,0,0
2:46.811,60052,),0,0,1
2:46.867,60072,(,0,0,2
2:46.958,60105,t,0,0,4
2:47.081,60149,t,0,0,4
2:47.181,60185,),0,0,2
2:47.242,60207,(,0,0,0
2:47.303,60229,p,0,0,0
2:47.361,60250,),0,0,0
2:47.397,60263,(,0,0,1
2:47.450,60282,N,0,0,0
2:47.511,60304,),0,0,1
2:47.575,60327,(,0,0,2
2:47.658,60357,t,0,0,4
2:47.786,60403,t,0,0,4
2:47.883,60438,),0,0,2
2:47.956,60464,(,0,0,0
2:48.011,60484,p,0,0,0
2:48.064,60503,),0,0,0
2:48.094,60514,(,0,0,1
2:48.156,60536,N,0,0,0
2:48.217,60558,),0,0,1
2:48.336,60601,(,0,0,2
2:48.375,60615,t,0,0,4
2:48.489,60656,t,0,0,4
2:48.581,60689,),0,0,2
2:48.656,60716,(,0,0,0
2:48.700,60732,p,0,0,0
2:48.758,60753,),0,0,0
2:48.794,60766,(,0,0,1
2:48.847,60785,N,0,0,0
2:48.906,60806,),0,0,1
2:48.933,60816,(,0,0,2
2:49.067,60864,t,0,0,4
2:49.181,60905,t,0,0,4
2:49.294,60946,),0,0,2
2:49.336,60961,(,0,0,0
2:49.383,60978,p,0,0,0
2:49.444,61000,),0,0,0
2:49.492,61017,(,0,0,1
2:49.536,61033,N,0,0,0
2:49.600,61056,),0,0,1
2:49.633,61068,(,0,0,2
2:49.761,61114,t,0,0,4
2:49.881,61157,t,0,0,4
2:49.992,61197,),0,0,2
2:50.042,61215,(,0,0,0
2:50.097,61235,p,0,0,0
2:50.153,61255,),0,0,0
2:50.197,61271,(,0,0,1
2:50.247,61289,N,0,0,0
2:50.314,61313,),0,0,1
2:50.403,61345,(,0,0,2
2:50.461,61366,t,0,0,4
2:50.572,61406,t,0,0,4
2:50.681,61445,),0,0,2
2:50.731,61463,(,0,0,0
2:50.781,61481,p,0,0,0
2:50.842,61503,),0,0,0
2:50.864,61511,(,0,0,1
2:50.936,61537,N,0,0,0
2:50.997,61559,),0,0,1
2:51.072,61586,(,0,0,2
2:51.156,61616,t,0,0,4
2:51.272,61658,t,0,0,4
2:51.364,61691,),0,0,2
2:51.433,61716,(,0,0,0
2:51.486,61735,p,0,0,0
2:51.553,61759,),0,0,0
2:51.583,61770,(,0,0,1
2:51.633,61788,N,0,0,0
2:51.694,61810,),0,0,1
2:51.742,61827,(,0,0,2
2:51.842,61863,t,0,0,4
2:51.947,61901,t,0,0,4
2:52.025,61929,),0,0,2
2:52.111,61960,(,0,0,0
2:52.161,61978,p,0,0,0
2:52.222,62000,),0,0,0
2:52.261,62014,(,0,0,1
2:52.317,62034,N,0,0,0
2:52.375,62055,),0,0,1
2:52.475,62091,(,0,0,2
2:52.544,62116,t,0,0,4
2:52.653,62155,t,0,0,4
2:52.775,62199,),0,0,2
2:52.811,62212,(,0,0,0
2:52.858,62229,p,0,0,0
2:52.925,62253,),0,0,0
2:52.964,62267,(,0,0,1
2:53.014,62285,N,0,0,0
2:53.078,62308,),0,0,1
2:53.139,62330,(,0,0,2
2:53.231,62363,t,0,0,4
2:53.344,62404,t,0,0,4
2:53.472,62450,),0,0,2
2:53.517,62466,(,0,0,0
2:53.558,62481,p,0,0,0
2:53.617,62502,),0,0,0
2:53.664,62519,(,0,0,1
2:53.719,62539,N,0,0,0
2:53.778,62560,),0,0,1
2:53.847,62585,(,0,0,2
2:53.931,62615,t,0,0,4
2:54.044,62656,t,0,0,4
2:54.158,62697,),0,0,2
2:54.214,62717,(,0,0,0
2:54.267,62736,p,0,0,0
2:54.322,62756,),0,0,0
2:54.333,62760,(,0,0,1
2:54.417,62790,N,0,0,0
2:54.481,62813,),0,0,1
2:54.539,62834,(,0,0,2
2:54.636,62869,t,0,0,4
2:54.750,62910,t,0,0,4
2:54.867,62952,),0,0,2
2:54.919,62971,(,0,0,0
2:54.972,62990,p,0,0,0
2:55.025,63009,),0,0,0
2:55.067,63024,(,0,0,1
2:55.131,63047,N,0,0,0
2:55.194,63070,),0,0,1
2:55.261,63094,(,0,0,2
2:55.347,63125,t,0,0,4
2:55.461,63166,t,0,0,4
2:55.533,63192,),0,0,2
2:55.617,63222,(,0,0,0
2:55.669,63241,p,0,0,0
2:55.731,63263,),0,0,0
2:55.769,63277,(,0,0,1
2:55.822,63296,N,0,0,0
2:55.881,63317,),0,0,1
2:55.969,63349,(,0,0,2
2:56.047,63377,t,0,0,4
2:56.164,63419,t,0,0,4
2:56.264,63455,),0,0,2
2:56.325,63477,(,0,0,0
2:56.372,63494,p,0,0,0
2:56.433,63516,),0,0,0
2:56.467,63528,(,0,0,1
2:56.528,63550,N,0,0,0
2:56.589,63572,),0,0,1
2:56.669,63601,(,0,0,2
2:56.758,63633,t,0,0,4
2:56.864,63671,t,0,0,4
2:56.992,63717,),0,0,2
2:57.025,63729,(,0,0,0
2:57.075,63747,p,0,0,0
2:57.139,63770,),0,0,0
2:57.169,63781,(,0,0,1
2:57.239,63806,N,0,0,0
2:57.308,63831,),0,0,1
2:57.375,63855,(,0,0,2
2:57.469,63889,t,0,0,4
2:57.586,63931,t,0,0,4
2:57.692,63969,),0,0,2
2:57.764,63995,(,0,0,0
2:57.817,64014,p,0,0,0
2:57.869,64033,),0,0,0
2:57.900,64044,(,0,0,1
2:57.969,64069,N,0,0,0
2:58.036,64093,),0,0,1
2:58.075,64107,(,0,0,2
2:58.197,64151,t,0,0,4
2:58.306,64190,t,0,0,4
2:58.378,64216,),0,0,2
2:58.486,64255,(,0,0,0
2:58.533,64272,p,0,0,0
2:58.592,64293,),0,0,0
2:58.633,64308,(,0,0,1
2:58.689,64328,N,0,0,0
2:58.753,64351,),0,0,1
2:58.814,64373,(,0,0,2
2:58.911,64408,t,0,0,4
2:59.028,64450,t,0,0,4
2:59.108,64479,),0,0,2
2:59.194,64510,(,0,0,0
2:59.244,64528,p,0,0,0
2:59.297,64547,),0,0,0
2:59.339,64562,(,0,0,1
2:59.394,64582,N,0,0,0
2:59.456,64604,),0,0,1
2:59.525,64629,(,0,0,2
2:59.614,64661,t,0,0,4
2:59.728,64702,t,0,0,4
2:59.806,64730,),0,0,2
2:59.903,64765,(,0,0,0
2:59.958,64785,p,0,0,0
3:00.011,64804,),0,0,0
3:00.067,64824,(,0,0,1
3:00.114,64841,N,0,0,0
3:00.178,64864,),0,0,1
3:00.244,64888,(,0,0,2
3:00.347,64925,t,0,0,4
3:00.456,64964,t,0,0,4
3:00.556,65000,),0,0,2
3:00.631,65027,(,0,0,0
3:00.675,65043,p,0,0,0
3:00.733,65064,),0,0,0
3:00.769,65077,(,0,0,1
3:00.831,65099,N,0,0,0
3:00.883,65118,),0,0,1
3:00.942,65139,(,0,0,2
3:01.072,65186,t,0,0,4
3:01.172,65222,t,0,0,4
3:01.236,65245,),0,0,2
3:01.325,65277,(,0,0,0
3:01.381,65297,p,0,0,0
3:01.439,65318,),0,0,0
3:01.469,65329,(,0,0,1
3:01.536,65353,N,0,0,0
3:01.583,65370,),0,0,1
3:01.672,65402,(,0,0,2
3:01.778,65440,t,0,0,4
3:01.881,65477,t,0,0,4
3:01.922,65492,),0,0,2
3:02.039,65534,(,0,0,0
3:02.089,65552,p,0,0,0
3:02.153,65575,),0,0,0
3:02.206,65594,(,0,0,1
3:02.253,65611,N,0,0,0
3:02.308,65631,),0,0,1
3:02.378,65656,(,0,0,2
3:02.497,65699,t,0,0,4
3:02.597,65735,t,0,0,4
3:02.664,65759,),0,0,2
3:02.767,65796,(,0,0,0
3:02.814,65813,p,0,0,0
3:02.872,65834,),0,0,0
3:02.906,65846,(,0,0,1
3:02.969,65869,N,0,0,0
3:03.031,65891,),0,0,1
3:03.103,65917,(,0,0,2
3:03.197,65951,t,0,0,4
3:03.303,65989,t,0,0,4
3:03.394,66022,),0,0,2
3:03.492,66057,(,0,0,0
3:03.522,66068,p,0,0,0
3:03.578,66088,),0,0,0
3:03.639,66110,(,0,0,1
3:03.681,66125,N,0,0,0
3:03.744,66148,),0,0,1
3:03.872,66194,(,0,0,2
3:03.908,66207,t,0,0,1
3:04.008,66243,),0,0,2
3:04.189,66308,(,0,0,0
3:04.228,66322,p,0,0,0
3:04.289,66344,),0,0,0
3:04.333,66360,(,0,0,1
3:04.386,66379,N,0,0,0
3:04.450,66402,),0,0,1
3:04.511,66424,(,0,0,2
3:04.633,66468,t,0,0,1
3:04.728,66502,),0,0,2
3:04.922,66572,(,0,0,0
3:04.961,66586,p,0,0,0
3:05.025,66609,),0,0,0
3:05.072,66626,(,0,0,1
3:05.122,66644,N,0,0,0
3:05.172,66662,),0,0,1
3:05.250,66690,(,0,0,2
3:05.361,66730,t,0,0,4
3:05.464,66767,t,0,0,4
3:05.531,66791,),0,0,2
3:05.631,66827,(,0,0,0
3:05.678,66844,p,0,0,0
3:05.739,66866,),0,0,0
3:05.797,66887,(,0,0,1
3:05.836,66901,N,0,0,0
3:05.886,66919,),0,0,1
3:06.003,66961,(,0,0,2
3:06.072,66986,t,0,0,4
3:06.186,67027,t,0,0,4
3:06.233,67044,),0,0,2
3:06.358,67089,(,0,0,0
3:06.392,67101,p,0,0,0
3:06.456,67124,),0,0,0
3:06.506,67142,(,0,0,1
3:06.553,67159,N,0,0,0
3:06.608,67179,),0,0,1
3:06.650,67194,(,0,0,2
3:06.775,67239,t,0,0,4
3:06.886,67279,t,0,0,4
3:06.953,67303,),0,0,2
3:07.067,67344,(,0,0,0
3:07.117,67362,p,0,0,0
3:07.183,67386,),0,0,0
3:07.206,67394,(,0,0,1
3:07.278,67420,N,0,0,0
3:07.344,67444,),0,0,1
3:07.375,67455,(,0,0,2
3:07.508,67503,t,0,0,4
3:07.617,67542,t,0,0,4
3:07.722,67580,),0,0,2
3:07.797,67607,(,0,0,0
3:07.833,67620,p,0,0,0
3:07.892,67641,),0,0,0
3:07.939,67658,(,0,0,1
3:07.994,67678,N,0,0,0
3:08.056,67700,),0,0,1
3:08.119,67723,(,0,0,2
3:08.233,67764,t,0,0,4
3:08.344,67804,t,0,0,4
3:08.431,67835,),0,0,2
3:08.519,67867,(,0,0,0
3:08.569,67885,p,0,0,0
3:08.628,67906,),0,0,0
3:08.675,67923,(,0,0,1
3:08.725,67941,N,0,0,0
3:08.786,67963,),0,0,1
3:08.881,67997,(,0,0,2
3:08.969,68029,t,0,0,4
3:09.067,68064,t,0,0,4
3:09.103,68077,),0,0,2
3:09.236,68125,(,0,0,0
3:09.283,68142,p,0,0,0
3:09.347,68165,),0,0,0
3:09.375,68175,(,0,0,1
3:09.444,68200,N,0,0,0
3:09.492,68217,),0,0,1
3:09.581,68249,(,0,0,2
3:09.700,68292,t,0,0,4
3:09.808,68331,t,0,0,4
3:09.864,68351,),0,0,2
3:09.975,68391,(,0,0,0
3:10.022,68408,p,0,0,0
3:10.081,68429,),0,0,0
3:10.108,68439,(,0,0,1
3:10.178,68464,N,0,0,0
3:10.225,68481,),0,0,1
3:10.300,68508,(,0,0,2
3:10.406,68546,t,0,0,4
3:10.517,68586,t,0,0,4
3:10.642,68631,),0,0,2
3:10.689,68648,(,0,0,0
3:10.739,68666,p,0,0,0
3:10.797,68687,),0,0,0
3:10.844,68704,(,0,0,1
3:10.894,68722,N,0,0,0
3:10.950,68742,),0,0,1
3:11.014,68765,(,0,0,2
3:11.131,68807,t,0,0,4
3:11.239,68846,t,0,0,4
3:11.328,68878,),0,0,2
3:11.414,68909,(,0,0,0
3:11.453,68923,p,0,0,0
3:11.514,68945,),0,0,0
3:11.544,68956,(,0,0,1
3:11.611,68980,N,0,0,0
3:11.667,69000,),0,0,1
3:11.742,69027,(,0,0,2
3:11.842,69063,t,0,0,4
3:11.958,69105,t,0,0,4
3:12.075,69147,),0,0,2
3:12.144,69172,(,0,0,0
3:12.197,69191,p,0,0,0
3:12.258,69213,),0,0,0
3:12.278,69220,(,0,0,1
3:12.353,69247,N,0,0,0
3:12.419,69271,),0,0,1
3:12.489,69296,(,0,0,2
3:12.586,69331,t,0,0,4
3:12.697,69371,t,0,0,4
3:12.831,69419,),0,0,2
3:12.875,69435,(,0,0,0
3:12.919,69451,p,0,0,0
3:12.983,69474,),0,0,0
3:13.011,69484,(,0,0,1
3:13.083,69510,N,0,0,0
3:13.139,69530,),0,0,1
3:13.222,69560,(,0,0,2
3:13.317,69594,t,0,0,4
3:13.425,69633,t,0,0,4
3:13.525,69669,),0,0,2
3:13.606,69698,(,0,0,0
3:13.658,69717,p,0,0,0
3:13.714,69737,),0,0,0
3:13.744,69748,(,0,0,1
3:13.806,69770,N,0,0,0
3:13.864,69791,),0,0,1
3:13.922,69812,(,0,0,2
3:14.019,69847,t,0,0,4
3:14.131,69887,t,0,0,4
3:14.206,69914,),0,0,2
3:14.308,69951,(,0,0,0
3:14.353,69967,p,0,0,0
3:14.417,69990,),0,0,0
3:14.444,70000,(,0,0,1
3:14.514,70025,N,0,0,0
3:14.578,70048,),0,0,1
3:14.658,70077,(,0,0,2
3:14.742,70107,t,0,0,4
3:14.853,70147,t,0,0,4
3:14.942,70179,),0,0,2
3:15.033,70212,(,0,0,0
3:15.075,70227,p,0,0,0
3:15.136,70249,),0,0,0
3:15.172,70262,(,0,0,1
3:15.231,70283,N,0,0,0
3:15.294,70306,),0,0,1
3:15.356,70328,(,0,0,2
3:15.453,70363,t,0,0,4
3:15.561,70402,t,0,0,4
3:15.642,70431,),0,0,2
3:15.736,70465,(,0,0,0
3:15.783,70482,p,0,0,0
3:15.842,70503,),0,0,0
3:15.875,70515,(,0,0,1
3:15.936,70537,N,0,0,0
3:15.994,70558,),0,0,1
3:16.086,70591,(,0,0,2
3:16.158,70617,t,0,0,4
3:16.278,70660,t,0,0,4
3:16.386,70699,),0,0,2
3:16.447,70721,(,0,0,0
3:16.492,70737,p,0,0,0
3:16.547,70757,),0,0,0
3:16.611,70780,(,0,0,1
3:16.650,70794,N,0,0,0
3:16.717,70818,),0,0,1
3:16.781,70841,(,0,0,2
3:16.875,70875,t,0,0,4
3:16.986,70915,t,0,0,4
3:17.100,70956,),0,0,2
3:17.164,70979,(,0,0,0
3:17.211,70996,p,0,0,0
3:17.275,71019,),0,0,0
3:17.311,71032,(,0,0,1
3:17.369,71053,N,0,0,0
3:17.428,71074,),0,0,1
3:17.492,71097,(,0,0,2
3:17.581,71129,t,0,0,4
3:17.706,71174,t,0,0,4
3:17.767,71196,),0,0,2
3:17.875,71235,(,0,0,0
3:17.922,71252,p,0,0,0
3:17.978,71272,),0,0,0
3:18.014,71285,(,0,0,1
3:18.078,71308,N,0,0,0
3:18.150,71334,),0,0,1
3:18.161,71338,(,0,0,2
3:18.294,71386,t,0,0,4
3:18.406,71426,t,0,0,4
3:18.506,71462,),0,0,2
3:18.564,71483,(,0,0,0
3:18.611,71500,p,0,0,0
3:18.667,71520,),0,0,0
3:18.683,71526,(,0,0,1
3:18.761,71554,N,0,0,0
3:18.825,71577,),0,0,1
3:18.950,71622,(,0,0,2
3:18.986,71635,t,0,0,4
3:19.100,71676,t,0,0,4
3:19.186,71707,),0,0,2
3:19.278,71740,(,0,0,0
3:19.333,71760,p,0,0,0
3:19.394,71782,),0,0,0
3:19.414,71789,(,0,0,1
3:19.492,71817,N,0,0,0
3:19.558,71841,),0,0,1
3:19.614,71861,(,0,0,2
3:19.722,71900,t,0,0,4
3:19.839,71942,t,0,0,4
3:19.917,71970,),0,0,2
3:19.986,71995,(,0,0,0
3:20.033,72012,p,0,0,0
3:20.086,72031,),0,0,0
3:20.117,72042,(,0,0,1
3:20.189,72068,N,0,0,0
3:20.239,72086,),0,0,1
3:20.311,72112,(,0,0,2
3:20.425,72153,t,0,0,4
3:20.531,72191,t,0,0,4
3:20.642,72231,),0,0,2
3:20.694,72250,(,0,0,0
3:20.744,72268,p,0,0,0
3:20.811,72292,),0,0,0
3:20.847,72305,(,0,0,1
3:20.903,72325,N,0,0,0
3:20.961,72346,),0,0,1
3:21.028,72370,(,0,0,2
3:21.117,72402,t,0,0,4
3:21.228,72442,t,0,0,4
3:21.342,72483,),0,0,2
3:21.383,72498,(,0,0,0
3:21.433,72516,p,0,0,0
3:21.494,72538,),0,0,0
3:21.544,72556,(,0,0,1
3:21.594,72574,N,0,0,0
3:21.658,72597,),0,0,1
3:21.786,72643,(,0,0,2
3:21.828,72658,t,0,0,4
3:21.947,72701,t,0,0,4
3:22.044,72736,),0,0,2
3:22.111,72760,(,0,0,0
3:22.161,72778,p,0,0,0
3:22.222,72800,),0,0,0
3:22.247,72809,(,0,0,1
3:22.317,72834,N,0,0,0
3:22.381,72857,),0,0,1
3:22.425,72873,(,0,0,2
3:22.536,72913,t,0,0,4
3:22.644,72952,t,0,0,4
3:22.747,72989,),0,0,2
3:22.819,73015,(,0,0,0
3:22.867,73032,p,0,0,0
3:22.922,73052,),0,0,0
3:22.950,73062,(,0,0,1
3:23.025,73089,N,0,0,0
3:23.083,73110,),0,0,1
3:23.161,73138,(,0,0,2
3:23.253,73171,t,0,0,4
3:23.361,73210,t,0,0,4
3:23.467,73248,),0,0,2
3:23.517,73266,(,0,0,0
3:23.569,73285,p,0,0,0
3:23.633,73308,),0,0,0
3:23.653,73315,(,0,0,1
3:23.725,73341,N,0,0,0
3:23.792,73365,),0,0,1
3:23.886,73399,(,0,0,2
3:23.944,73420,t,0,0,4
3:24.069,73465,t,0,0,4
3:24.142,73491,),0,0,2
3:24.236,73525,(,0,0,0
3:24.281,73541,p,0,0,0
3:24.353,73567,),0,0,0
3:24.381,73577,(,0,0,1
3:24.453,73603,N,0,0,0
3:24.500,73620,),0,0,1
3:24.547,73637,(,0,0,2
3:24.686,73687,t,0,0,4
3:24.792,73725,t,0,0,4
3:24.911,73768,),0,0,2
3:24.942,73779,(,0,0,0
3:24.992,73797,p,0,0,0
3:25.058,73821,),0,0,0
3:25.106,73838,(,0,0,1
3:25.144,73852,N,0,0,0
3:25.192,73869,),0,0,1
3:25.294,73906,(,0,0,2
3:25.372,73934,t,0,0,4
3:25.492,73977,t,0,0,4
3:25.597,74015,),0,0,2
3:25.644,74032,(,0,0,0
3:25.689,74048,p,0,0,0
3:25.747,74069,),0,0,0
3:25.783,74082,(,0,0,1
3:25.844,74104,N,0,0,0
3:25.894,74122,),0,0,1
3:25.956,74144,(,0,0,2
3:26.075,74187,t,0,0,4
3:26.172,74222,t,0,0,4
3:26.256,74252,),0,0,2
3:26.328,74278,(,0,0,0
3:26.378,74296,p,0,0,0
3:26.444,74320,),0,0,0
3:26.483,74334,(,0,0,1
3:26.536,74353,N,0,0,0
3:26.600,74376,),0,0,1
3:26.658,74397,(,0,0,2
3:26.767,74436,t,0,0,4
3:26.886,74479,t,0,0,4
3:26.975,74511,),0,0,2
3:27.044,74536,(,0,0,0
3:27.094,74554,p,0,0,0
3:27.150,74574,),0,0,0
3:27.189,74588,(,0,0,1
3:27.244,74608,N,0,0,0
3:27.306,74630,),0,0,1
3:27.392,74661,(,0,0,2
3:27.461,74686,t,0,0,4
3:27.572,74726,t,0,0,4
3:27.647,74753,),0,0,2
3:27.736,74785,(,0,0,0
3:27.781,74801,p,0,0,0
3:27.842,74823,),0,0,0
3:27.856,74828,(,0,0,1
3:27.933,74856,N,0,0,0
3:27.997,74879,),0,0,1
3:28.031,74891,(,0,0,2
3:28.156,74936,t,0,0,4
3:28.267,74976,t,0,0,4
3:28.347,75005,),0,0,2
3:28.411,75028,(,0,0,0
3:28.464,75047,p,0,0,0
3:28.517,75066,),0,0,0
3:28.556,75080,(,0,0,1
3:28.603,75097,N,0,0,0
3:28.667,75120,),0,0,1
3:28.725,75141,(,0,0,2
3:28.831,75179,t,0,0,4
3:28.939,75218,t,0,0,4
3:28.983,75234,),0,0,2
3:29.106,75278,(,0,0,0
3:29.153,75295,p,0,0,0
3:29.219,75319,),0,0,0
3:29.250,75330,(,0,0,1
3:29.308,75351,N,0,0,0
3:29.367,75372,),0,0,1
3:29.436,75397,(,0,0,2
3:29.539,75434,t,0,0,4
3:29.653,75475,t,0,0,4
3:29.756,75512,),0,0,2
3:29.797,75527,(,0,0,0
3:29.842,75543,p,0,0,0
3:29.906,75566,),0,0,0
3:29.950,75582,(,0,0,1
3:29.997,75599,N,0,0,0
3:30.050,75618,),0,0,1
3:30.128,75646,(,0,0,2
3:30.228,75682,t,0,0,4
3:30.336,75721,t,0,0,4
3:30.419,75751,),0,0,2
3:30.486,75775,(,0,0,0
3:30.536,75793,p,0,0,0
3:30.594,75814,),0,0,0
3:30.619,75823,(,0,0,1
3:30.689,75848,N,0,0,0
3:30.742,75867,),0,0,1
3:30.822,75896,(,0,0,2
3:30.917,75930,t,0,0,4
3:31.025,75969,t,0,0,4
3:31.131,76007,),0,0,2
3:31.186,76027,(,0,0,0
3:31.233,76044,p,0,0,0
3:31.300,76068,),0,0,0
3:31.322,76076,(,0,0,1
3:31.389,76100,N,0,0,0
3:31.453,76123,),0,0,1
3:31.533,76152,(,0,0,2
3:31.625,76185,t,0,0,4
3:31.742,76227,t,0,0,4
3:31.822,76256,),0,0,2
3:31.900,76284,(,0,0,0
3:31.956,76304,p,0,0,0
3:32.017,76326,),0,0,0
3:32.053,76339,(,0,0,1
3:32.106,76358,N,0,0,0
3:32.169,76381,),0,0,1
3:32.206,76394,(,0,0,2
3:32.328,76438,t,0,0,4
3:32.442,76479,t,0,0,4
3:32.536,76513,),0,0,2
3:32.614,76541,(,0,0,0
3:32.664,76559,p,0,0,0
3:32.725,76581,),0,0,0
3:32.781,76601,(,0,0,1
3:32.819,76615,N,0,0,0
3:32.875,76635,),0,0,1
3:32.964,76667,(,0,0,2
3:33.044,76696,t,0,0,4
3:33.153,76735,t,0,0,4
3:33.233,76764,),0,0,2
3:33.319,76795,(,0,0,0
3:33.369,76813,p,0,0,0
3:33.425,76833,),0,0,0
3:33.456,76844,(,0,0,1
3:33.522,76868,N,0,0,0
3:33.592,76893,),0,0,1
3:33.633,76908,(,0,0,2
3:33.758,76953,t,0,0,4
3:33.869,76993,t,0,0,4
3:33.956,77024,),0,0,2
3:34.050,77058,(,0,0,0
3:34.106,77078,p,0,0,0
3:34.167,77100,),0,0,0
3:34.217,77118,(,0,0,1
3:34.261,77134,N,0,0,0
3:34.328,77158,),0,0,1
3:34.400,77184,(,0,0,2
3:34.478,77212,t,0,0,4
3:34.600,77256,t,0,0,4
3:34.675,77283,),0,0,2
3:34.772,77318,(,0,0,0
3:34.825,77337,p,0,0,0
3:34.878,77356,),0,0,0
3:34.892,77361,(,0,0,1
3:34.975,77391,N,0,0,0
3:35.039,77414,),0,0,1
3:35.119,77443,(,0,0,2
3:35.214,77477,t,0,0,4
3:35.319,77515,t,0,0,4
3:35.358,77529,),0,0,2
3:35.478,77572,(,0,0,0
3:35.531,77591,p,0,0,0
3:35.594,77614,),0,0,0
3:35.625,77625,(,0,0,1
3:35.683,77646,N,0,0,0
3:35.736,77665,),0,0,1
3:35.806,77690,(,0,0,2
3:35.900,77724,t,0,0,4
3:36.008,77763,t,0,0,4
3:36.108,77799,),0,0,2
3:36.169,77821,(,0,0,0
3:36.225,77841,p,0,0,0
3:36.283,77862,),0,0,0
3:36.322,77876,(,0,0,1
3:36.381,77897,N,0,0,0
3:36.436,77917,),0,0,1
3:36.542,77955,(,0,0,2
3:36.619,77983,t,0,0,4
3:36.731,78023,t,0,0,4
3:36.814,78053,),0,0,2
3:36.886,78079,(,0,0,0
3:36.936,78097,p,0,0,0
3:37.000,78120,),0,0,0
3:37.022,78128,(,0,0,1
3:37.092,78153,N,0,0,0
3:37.144,78172,),0,0,1
3:37.206,78194,(,0,0,2
3:37.317,78234,t,0,0,4
3:37.431,78275,t,0,0,4
3:37.522,78308,),0,0,2
3:37.600,78336,(,0,0,0
3:37.644,78352,p,0,0,0
3:37.711,78376,),0,0,0
3:37.758,78393,(,0,0,1
3:37.803,78409,N,0,0,0
3:37.867,78432,),0,0,1
3:37.922,78452,(,0,0,2
3:38.025,78489,t,0,0,4
3:38.133,78528,t,0,0,4
3:38.219,78559,),0,0,2
3:38.297,78587,(,0,0,0
3:38.350,78606,p,0,0,0
3:38.408,78627,),0,0,0
3:38.425,78633,(,0,0,1
3:38.503,78661,N,0,0,0
3:38.567,78684,),0,0,1
3:38.642,78711,(,0,0,2
3:38.728,78742,t,0,0,4
3:38.842,78783,t,0,0,4
3:38.953,78823,),0,0,2
3:39.025,78849,(,0,0,0
3:39.078,78868,p,0,0,0
3:39.133,78888,),0,0,0
3:39.158,78897,(,0,0,1
3:39.233,78924,N,0,0,0
3:39.300,78948,),0,0,1
3:39.364,78971,(,0,0,2
3:39.453,79003,t,0,0,4
3:39.556,79040,t,0,0,4
3:39.642,79071,),0,0,2
3:39.725,79101,(,0,0,0
3:39.778,79120,p,0,0,0
3:39.836,79141,),0,0,0
3:39.881,79157,(,0,0,1
3:39.925,79173,N,0,0,0
3:39.986,79195,),0,0,1
3:40.067,79224,(,0,0,2
3:40.139,79250,t,0,0,4
3:40.253,79291,t,0,0,4
3:40.322,79316,),0,0,2
3:40.411,79348,(,0,0,0
3:40.469,79369,p,0,0,0
3:40.522,79388,),0,0,0
3:40.558,79401,(,0,0,1
3:40.611,79420,N,0,0,0
3:40.675,79443,),0,0,1
3:40.739,79466,(,0,0,2
3:40.828,79498,t,0,0,4
3:40.950,79542,t,0,0,4
3:41.050,79578,),0,0,2
3:41.125,79605,(,0,0,0
3:41.172,79622,p,0,0,0
3:41.239,79646,),0,0,0
3:41.292,79665,(,0,0,1
3:41.336,79681,N,0,0,0
3:41.381,79697,),0,0,1
3:41.489,79736,(,0,0,2
3:41.572,79766,t,0,0,4
3:41.694,79810,t,0,0,4
3:41.794,79846,),0,0,2
3:41.839,79862,(,0,0,0
3:41.892,79881,p,0,0,0
3:41.953,79903,),0,0,0
3:41.992,79917,(,0,0,1
3:42.039,79934,N,0,0,0
3:42.086,79951,),0,0,1
3:42.164,79979,(,0,0,2
3:42.269,80017,t,0,0,4
3:42.381,80057,t,0,0,4
3:42.478,80092,),0,0,2
3:42.542,80115,(,0,0,0
3:42.586,80131,p,0,0,0
3:42.650,80154,),0,0,0
3:42.664,80159,(,0,0,1
3:42.742,80187,N,0,0,0
3:42.794,80206,),0,0,1
3:42.864,80231,(,0,0,2
3:42.964,80267,t,0,0,4
3:43.075,80307,t,0,0,4
3:43.153,80335,),0,0,2
3:43.228,80362,(,0,0,0
3:43.275,80379,p,0,0,0
3:43.342,80403,),0,0,0
3:43.364,80411,(,0,0,1
3:43.428,80434,N,0,0,0
3:43.481,80453,),0,0,1
3:43.564,80483,(,0,0,2
3:43.656,80516,t,0,0,4
3:43.772,80558,t,0,0,4
3:43.861,80590,),0,0,2
3:43.947,80621,(,0,0,0
3:43.992,80637,p,0,0,0
3:44.056,80660,),0,0,0
3:44.094,80674,(,0,0,1
3:44.147,80693,N,0,0,0
3:44.206,80714,),0,0,1
3:44.264,80735,(,0,0,2
3:44.369,80773,t,0,0,4
3:44.483,80814,t,0,0,4
3:44.583,80850,),0,0,2
3:44.647,80873,(,0,0,0
3:44.697,80891,p,0,0,0
3:44.764,80915,),0,0,0
3:44.803,80929,(,0,0,1
3:44.850,80946,N,0,0,0
3:44.911,80968,),0,0,1
3:44.972,80990,(,0,0,2
3:45.075,81027,t,0,0,4
3:45.186,81067,t,0,0,4
3:45.275,81099,),0,0,2
3:45.361,81130,(,0,0,0
3:45.406,81146,p,0,0,0
3:45.475,81171,),0,0,0
3:45.497,81179,(,0,0,1
3:45.569,81205,N,0,0,0
3:45.631,81227,),0,0,1
3:45.703,81253,(,0,0,2
3:45.792,81285,t,0,0,4
3:45.906,81326,t,0,0,4
3:46.033,81372,),0,0,2
3:46.089,81392,(,0,0,0
3:46.142,81411,p,0,0,0
3:46.206,81434,),0,0,0
3:46.236,81445,(,0,0,1
3:46.294,81466,N,0,0,0
3:46.369,81493,),0,0,1
3:46.406,81506,(,0,0,2
3:46.528,81550,t,0,0,4
3:46.642,81591,t,0,0,4
3:46.744,81628,),0,0,2
3:46.822,81656,(,0,0,0
3:46.864,81671,p,0,0,0
3:46.928,81694,),0,0,0
3:46.961,81706,(,0,0,1
3:47.017,81726,N,0,0,0
3:47.075,81747,),0,0,1
3:47.114,81761,(,0,0,2
3:47.242,81807,t,0,0,4
3:47.350,81846,t,0,0,4
3:47.453,81883,),0,0,2
3:47.511,81904,(,0,0,0
3:47.564,81923,p,0,0,0
3:47.619,81943,),0,0,0
3:47.661,81958,(,0,0,1
3:47.708,81975,N,0,0,0
3:47.775,81999,),0,0,1
3:47.836,82021,(,0,0,2
3:47.936,82057,t,0,0,4
3:48.044,82096,t,0,0,4
3:48.128,82126,),0,0,2
3:48.217,82158,(,0,0,0
3:48.264,82175,p,0,0,0
3:48.328,82198,),0,0,0
3:48.361,82210,(,0,0,1
3:48.422,82232,N,0,0,0
3:48.472,82250,),0,0,1
3:48.542,82275,(,0,0,2
3:48.664,82319,t,0,0,4
3:48.772,82358,t,0,0,4
3:48.825,82377,),0,0,2
3:48.947,82421,(,0,0,0
3:49.003,82441,p,0,0,0
3:49.061,82462,),0,0,0
3:49.089,82472,(,0,0,1
3:49.144,82492,N,0,0,0
3:49.211,82516,),0,0,1
3:49.281,82541,(,0,0,2
3:49.369,82573,t,0,0,4
3:49.486,82615,t,0,0,4
3:49.539,82634,),0,0,2
3:49.658,82677,(,0,0,0
3:49.706,82694,p,0,0,0
3:49.767,82716,),0,0,0
3:49.797,82727,(,0,0,1
3:49.856,82748,N,0,0,0
3:49.914,82769,),0,0,1
3:49.997,82799,(,0,0,2
3:50.081,82829,t,0,0,4
3:50.189,82868,t,0,0,4
3:50.300,82908,),0,0,2
3:50.361,82930,(,0,0,0
3:50.408,82947,p,0,0,0
3:50.469,82969,),0,0,0
3:50.500,82980,(,0,0,1
3:50.550,82998,N,0,0,0
3:50.608,83019,),0,0,1
3:50.678,83044,(,0,0,2
3:50.761,83074,t,0,0,4
3:50.881,83117,t,0,0,4
3:50.953,83143,),0,0,2
3:51.061,83182,(,0,0,0
3:51.108,83199,p,0,0,0
3:51.172,83222,),0,0,0
3:51.200,83232,(,0,0,1
3:51.264,83255,N,0,0,0
3:51.325,83277,),0,0,1
3:51.408,83307,(,0,0,2
3:51.489,83336,t,0,0,4
3:51.600,83376,t,0,0,4
3:51.658,83397,),0,0,2
3:51.764,83435,(,0,0,0
3:51.814,83453,p,0,0,0
3:51.881,83477,),0,0,0
3:51.903,83485,(,0,0,1
3:51.967,83508,N,0,0,0
3:52.028,83530,),0,0,1
3:52.075,83547,(,0,0,2
3:52.181,83585,t,0,0,4
3:52.303,83629,t,0,0,4
3:52.364,83651,),0,0,2
3:52.469,83689,(,0,0,0
3:52.519,83707,p,0,0,0
3:52.586,83731,),0,0,0
3:52.606,83738,(,0,0,1
3:52.675,83763,N,0,0,0
3:52.739,83786,),0,0,1
3:52.789,83804,(,0,0,2
3:52.897,83843,t,0,0,4
3:53.008,83883,t,0,0,4
3:53.089,83912,),0,0,2
3:53.183,83946,(,0,0,0
3:53.233,83964,p,0,0,0
3:53.297,83987,),0,0,0
3:53.333,84000,(,0,0,1
3:53.383,84018,N,0,0,0
3:53.447,84041,),0,0,1
3:53.508,84063,(,0,0,2
3:53.622,84104,t,0,0,4
3:53.739,84146,t,0,0,4
3:53.803,84169,),0,0,2
3:53.908,84207,(,0,0,0
3:53.958,84225,p,0,0,0
3:54.014,84245,),0,0,0
3:54.036,84253,(,0,0,1
3:54.114,84281,N,0,0,0
3:54.175,84303,),0,0,1
3:54.222,84320,(,0,0,2
3:54.339,84362,t,0,0,4
3:54.442,84399,t,0,0,4
3:54.533,84432,),0,0,2
3:54.608,84459,(,0,0,0
3:54.658,84477,p,0,0,0
3:54.725,84501,),0,0,0
3:54.764,84515,(,0,0,1
3:54.808,84531,N,0,0,0
3:54.872,84554,),0,0,1
3:54.917,84570,(,0,0,2
3:55.031,84611,t,0,0,4
3:55.150,84654,t,0,0,4
3:55.239,84686,),0,0,2
3:55.328,84718,(,0,0,0
3:55.369,84733,p,0,0,0
3:55.425,84753,),0,0,0
3:55.469,84769,(,0,0,1
3:55.519,84787,N,0,0,0
3:55.578,84808,),0,0,1
3:55.628,84826,(,0,0,2
3:55.753,84871,t,0,0,4
3:55.856,84908,t,0,0,4
3:55.967,84948,),0,0,2
3:56.042,84975,(,0,0,0
3:56.100,84996,p,0,0,0
3:56.164,85019,),0,0,0
3:56.203,85033,(,0,0,1
3:56.258,85053,N,0,0,0
3:56.325,85077,),0,0,1
3:56.378,85096,(,0,0,2
3:56.492,85137,t,0,0,4
3:56.603,85177,t,0,0,4
3:56.703,85213,),0,0,2
3:56.792,85245,(,0,0,0
3:56.833,85260,p,0,0,0
3:56.889,85280,),0,0,0
3:56.933,85296,(,0,0,1
3:56.989,85316,N,0,0,0
3:57.044,85336,),0,0,1
3:57.117,85362,(,0,0,2
3:57.214,85397,t,0,0,4
3:57.325,85437,t,0,0,4
3:57.428,85474,),0,0,2
3:57.511,85504,(,0,0,0
3:57.564,85523,p,0,0,0
3:57.625,85545,),0,0,0
3:57.667,85560,(,0,0,1
3:57.719,85579,N,0,0,0
3:57.783,85602,),0,0,1
3:57.817,85614,(,0,0,2
3:57.931,85655,t,0,0,4
3:58.047,85697,t,0,0,4
3:58.128,85726,),0,0,2
3:58.219,85759,(,0,0,0
3:58.272,85778,p,0,0,0
3:58.333,85800,),0,0,0
3:58.375,85815,(,0,0,1
3:58.431,85835,N,0,0,0
3:58.494,85858,),0,0,1
3:58.575,85887,(,0,0,2
3:58.661,85918,t,0,0,4
3:58.783,85962,t,0,0,4
3:58.892,86001,),0,0,2
3:58.961,86026,(,0,0,0
3:59.011,86044,p,0,0,0
3:59.067,86064,),0,0,0
3:59.106,86078,(,0,0,1
3:59.161,86098,N,0,0,0
3:59.219,86119,),0,0,1
3:59.317,86154,(,0,0,2
3:59.389,86180,t,0,0,4
3:59.497,86219,t,0,0,4
3:59.594,86254,),0,0,2
3:59.667,86280,(,0,0,0
3:59.711,86296,p,0,0,0
3:59.775,86319,),0,0,0
3:59.808,86331,(,0,0,1
3:59.864,86351,N,0,0,0
3:59.917,86370,),0,0,1
3:59.989,86396,(,0,0,2
4:00.097,86435,t,0,0,4
4:00.214,86477,t,0,0,4
4:00.306,86510,),0,0,2
4:00.389,86540,(,0,0,0
4:00.439,86558,p,0,0,0
4:00.500,86580,),0,0,0
4:00.539,86594,(,0,0,1
4:00.594,86614,N,0,0,0
4:00.650,86634,),0,0,1
4:00.717,86658,(,0,0,2
4:00.833,86700,t,0,0,4
4:00.942,86739,t,0,0,4
4:01.056,86780,),0,0,2
4:01.128,86806,(,0,0,0
4:01.181,86825,p,0,0,0
4:01.247,86849,),0,0,0
4:01.272,86858,(,0,0,1
4:01.339,86882,N,0,0,0
4:01.400,86904,),0,0,1
4:01.458,86925,(,0,0,2
4:01.564,86963,t,0,0,4
4:01.678,87004,t,0,0,4
4:01.736,87025,),0,0,2
4:01.861,87070,(,0,0,0
4:01.914,87089,p,0,0,0
4:01.972,87110,),0,0,0
4:02.006,87122,(,0,0,1
4:02.067,87144,N,0,0,0
4:02.122,87164,),0,0,1
4:02.144,87172,(,0,0,2
4:02.278,87220,t,0,0,4
4:02.406,87266,t,0,0,4
4:02.492,87297,),0,0,2
4:02.569,87325,(,0,0,0
4:02.631,87347,p,0,0,0
4:02.692,87369,),0,0,0
4:02.706,87374,(,0,0,1
4:02.786,87403,N,0,0,0
4:02.853,87427,),0,0,1
4:02.886,87439,(,0,0,2
4:03.006,87482,t,0,0,4
4:03.128,87526,t,0,0,4
4:03.211,87556,),0,0,2
4:03.314,87593,(,0,0,0
4:03.372,87614,p,0,0,0
4:03.433,87636,),0,0,0
4:03.475,87651,(,0,0,1
4:03.528,87670,N,0,0,0
4:03.592,87693,),0,0,1
4:03.647,87713,(,0,0,2
4:03.767,87756,t,0,0,4
4:03.878,87796,t,0,0,4
4:03.969,87829,),0,0,2
4:04.053,87859,(,0,0,0
4:04.100,87876,p,0,0,0
4:04.158,87897,),0,0,0
4:04.203,87913,(,0,0,1
4:04.250,87930,N,0,0,0
4:04.294,87946,),0,0,1
4:04.386,87979,(,0,0,2
4:04.494,88018,t,0,0,4
4:04.597,88055,t,0,0,4
4:04.669,88081,),0,0,2
4:04.769,88117,(,0,0,0
4:04.814,88133,p,0,0,0
4:04.883,88158,),0,0,0
4:04.908,88167,(,0,0,1
4:04.972,88190,N,0,0,0
4:05.019,88207,),0,0,1
4:05.114,88241,(,0,0,2
4:05.206,88274,t,0,0,4
4:05.317,88314,t,0,0,4
4:05.406,88346,),0,0,2
4:05.475,88371,(,0,0,0
4:05.519,88387,p,0,0,0
4:05.578,88408,),0,0,0
4:05.608,88419,(,0,0,1
4:05.678,88444,N,0,0,0
4:05.731,88463,),0,0,1
4:05.817,88494,(,0,0,2
4:05.928,88534,t,0,0,4
4:06.028,88570,t,0,0,4
4:06.106,88598,),0,0,2
4:06.200,88632,(,0,0,0
4:06.253,88651,p,0,0,0
4:06.314,88673,),0,0,0
4:06.342,88683,(,0,0,1
4:06.400,88704,N,0,0,0
4:06.461,88726,),0,0,1
4:06.542,88755,(,0,0,2
4:06.611,88780,t,0,0,4
4:06.733,88824,t,0,0,4
4:06.819,88855,),0,0,2
4:06.906,88886,(,0,0,0
4:06.956,88904,p,0,0,0
4:07.017,88926,),0,0,0
4:07.072,88946,(,0,0,1
4:07.114,88961,N,0,0,0
4:07.175,88983,),0,0,1
4:07.253,89011,(,0,0,2
4:07.339,89042,t,0,0,4
4:07.453,89083,t,0,0,4
4:07.500,89100,),0,0,2
4:07.628,89146,(,0,0,0
4:07.681,89165,p,0,0,0
4:07.739,89186,),0,0,0
4:07.778,89200,(,0,0,1
4:07.822,89216,N,0,0,0
4:07.886,89239,),0,0,1
4:07.933,89256,(,0,0,2
4:08.064,89303,t,0,0,4
4:08.175,89343,t,0,0,4
4:08.300,89388,),0,0,2
4:08.353,89407,(,0,0,0
4:08.397,89423,p,0,0,0
4:08.464,89447,),0,0,0
4:08.478,89452,(,0,0,1
4:08.558,89481,N,0,0,0
4:08.611,89500,),0,0,1
4:08.681,89525,(,0,0,2
4:08.803,89569,t,0,0,4
4:08.900,89604,t,0,0,4
4:09.008,89643,),0,0,2
4:09.069,89665,(,0,0,0
4:09.117,89682,p,0,0,0
4:09.175,89703,),0,0,0
4:09.206,89714,(,0,0,1
4:09.261,89734,N,0,0,0
4:09.322,89756,),0,0,1
4:09.389,89780,(,0,0,2
4:09.492,89817,t,0,0,4
4:09.614,89861,t,0,0,4
4:09.678,89884,),0,0,2
4:09.778,89920,(,0,0,0
4:09.825,89937,p,0,0,0
4:09.881,89957,),0,0,0
4:09.906,89966,(,0,0,1
4:09.978,89992,N,0,0,0
4:10.031,90011,),0,0,1
4:10.114,90041,(,0,0,2
4:10.208,90075,t,0,0,4
4:10.311,90112,t,0,0,4
4:10.436,90157,),0,0,2
4:10.475,90171,(,0,0,0
4:10.536,90193,p,0,0,0
4:10.600,90216,),0,0,0
4:10.614,90221,(,0,0,1
4:10.683,90246,N,0,0,0
4:10.753,90271,),0,0,1
4:10.814,90293,(,0,0,2
4:10.928,90334,t,0,0,4
4:11.039,90374,t,0,0,4
4:11.139,90410,),0,0,2
4:11.214,90437,(,0,0,0
4:11.261,90454,p,0,0,0
4:11.322,90476,),0,0,0
4:11.344,90484,(,0,0,1
4:11.411,90508,N,0,0,0
4:11.467,90528,),0,0,1
4:11.522,90548,(,0,0,2
4:11.642,90591,t,0,0,4
4:11.742,90627,t,0,0,4
4:11.839,90662,),0,0,2
4:11.906,90686,(,0,0,0
4:11.964,90707,p,0,0,0
4:12.022,90728,),0,0,0
4:12.044,90736,(,0,0,1
4:12.111,90760,N,0,0,0
4:12.172,90782,),0,0,1
4:12.231,90803,(,0,0,2
4:12.344,90844,t,0,0,4
4:12.458,90885,t,0,0,4
4:12.544,90916,),0,0,2
4:12.617,90942,(,0,0,0
4:12.675,90963,p,0,0,0
4:12.728,90982,),0,0,0
4:12.744,90988,(,0,0,1
4:12.814,91013,N,0,0,0
4:12.867,91032,),0,0,1
4:12.933,91056,(,0,0,2
4:13.033,91092,t,0,0,4
4:13.139,91130,t,0,0,4
4:13.203,91153,),0,0,2
4:13.308,91191,(,0,0,0
4:13.367,91212,p,0,0,0
4:13.422,91232,),0,0,0
4:13.475,91251,(,0,0,1
4:13.514,91265,N,0,0,0
4:13.581,91289,),0,0,1
4:13.619,91303,(,0,0,2
4:13.753,91351,t,0,0,4
4:13.853,91387,t,0,0,4
4:13.953,91423,),0,0,2
4:14.017,91446,(,0,0,0
4:14.067,91464,p,0,0,0
4:14.128,91486,),0,0,0
4:14.147,91493,(,0,0,1
4:14.208,91515,N,0,0,0
4:14.269,91537,),0,0,1
4:14.319,91555,(,0,0,2
4:14.428,91594,t,0,0,4
4:14.539,91634,t,0,0,4
4:14.636,91669,),0,0,2
4:14.700,91692,(,0,0,0
4:14.761,91714,p,0,0,0
4:14.833,91740,),0,0,0
4:14.850,91746,(,0,0,1
4:14.900,91764,N,0,0,0
4:14.964,91787,),0,0,1
4:15.092,91833,(,0,0,2
4:15.133,91848,t,0,0,4
4:15.242,91887,t,0,0,4
4:15.311,91912,),0,0,2
4:15.419,91951,(,0,0,0
4:15.458,91965,p,0,0,0
4:15.511,91984,),0,0,0
4:15.514,91985,(,0,0,1
4:15.597,92015,N,0,0,0
4:15.664,92039,),0,0,1
4:15.786,92083,(,0,0,2
4:15.817,92094,t,0,0,4
4:15.939,92138,t,0,0,4
4:16.031,92171,),0,0,2
4:16.086,92191,(,0,0,0
4:16.136,92209,p,0,0,0
4:16.200,92232,),0,0,0
4:16.217,92238,(,0,0,1
4:16.289,92264,N,0,0,0
4:16.353,92287,),0,0,1
4:16.431,92315,(,0,0,2
4:16.511,92344,t,0,0,4
4:16.617,92382,t,0,0,4
4:16.711,92416,),0,0,2
4:16.781,92441,(,0,0,0
4:16.833,92460,p,0,0,0
4:16.897,92483,),0,0,0
4:16.917,92490,(,0,0,1
4:16.972,92510,N,0,0,0
4:17.031,92531,),0,0,1
4:17.122,92564,(,0,0,2
4:17.208,92595,t,0,0,4
4:17.322,92636,t,0,0,4
4:17.367,92652,),0,0,2
4:17.469,92689,(,0,0,0
4:17.519,92707,p,0,0,0
4:17.561,92722,),0,0,0
4:17.611,92740,(,0,0,1
4:17.658,92757,N,0,0,0
4:17.717,92778,),0,0,1
4:17.789,92804,(,0,0,2
4:17.897,92843,t,0,0,4
4:18.003,92881,t,0,0,4
4:18.047,92897,),0,0,2
4:18.156,92936,(,0,0,0
4:18.214,92957,p,0,0,0
4:18.269,92977,),0,0,0
4:18.286,92983,(,0,0,1
4:18.361,93010,N,0,0,0
4:18.417,93030,),0,0,1
4:18.489,93056,(,0,0,2
4:18.592,93093,t,0,0,4
4:18.703,93133,t,0,0,4
4:18.808,93171,),0,0,2
4:18.847,93185,(,0,0,0
4:18.906,93206,p,0,0,0
4:18.958,93225,),0,0,0
4:18.981,93233,(,0,0,1
4:19.044,93256,N,0,0,0
4:19.106,93278,),0,0,1
4:19.153,93295,(,0,0,2
4:19.278,93340,t,0,0,4
4:19.389,93380,t,0,0,4
4:19.475,93411,),0,0,2
4:19.544,93436,(,0,0,0
4:19.594,93454,p,0,0,0
4:19.647,93473,),0,0,0
4:19.703,93493,(,0,0,1
4:19.744,93508,N,0,0,0
4:19.794,93526,),0,0,1
4:19.858,93549,(,0,0,2
4:19.967,93588,t,0,0,4
4:20.075,93627,t,0,0,4
4:20.167,93660,),0,0,2
4:20.217,93678,(,0,0,0
4:20.275,93699,p,0,0,0
4:20.333,93720,),0,0,0
4:20.375,93735,(,0,0,1
4:20.417,93750,N,0,0,0
4:20.481,93773,),0,0,1
4:20.503,93781,(,0,0,2
4:20.636,93829,t,0,0,4
4:20.761,93874,t,0,0,4
4:20.850,93906,),0,0,2
4:20.911,93928,(,0,0,0
4:20.972,93950,p,0,0,0
4:21.019,93967,),0,0,0
4:21.047,93977,(,0,0,1
4:21.108,93999,N,0,0,0
4:21.172,94022,),0,0,1
4:21.208,94035,(,0,0,2
4:21.250,94050,t,0,0,4
4:21.436,94117,t,0,0,4
4:21.469,94129,),0,0,2
4:21.583,94170,(,0,0,0
4:21.631,94187,p,0,0,0
4:21.678,94204,),0,0,0
4:21.728,94222,(,0,0,1
4:21.778,94240,N,0,0,0
4:21.833,94260,),0,0,1
4:21.919,94291,(,0,0,2
4:21.969,94309,t,0,0,4
4:22.108,94359,t,0,0,4
4:22.139,94370,),0,0,2
4:22.269,94417,(,0,0,0
4:22.297,94427,p,0,0,0
4:22.378,94456,),0,0,0
4:22.422,94472,(,0,0,1
4:22.467,94488,N,0,0,0
4:22.519,94507,),0,0,1
4:22.611,94540,(,0,0,2
4:22.683,94566,t,0,0,4
4:22.836,94621,t,0,0,4
4:22.889,94640,),0,0,2
4:22.961,94666,(,0,0,0
4:22.978,94672,p,0,0,0
4:23.003,94681,),0,0,0
4:23.028,94690,(,0,0,1
4:23.142,94731,N,0,0,0
4:23.211,94756,),0,0,1
4:23.269,94777,(,0,0,2
4:23.308,94791,t,0,0,4
4:23.492,94857,t,0,0,4
4:23.531,94871,),0,0,2
4:23.636,94909,(,0,0,0
4:23.692,94929,p,0,0,0
4:23.733,94944,),0,0,0
4:23.753,94951,(,0,0,1
4:23.825,94977,N,0,0,0
4:23.872,94994,),0,0,1
4:23.997,95039,(,0,0,2
4:24.042,95055,t,0,0,4
4:24.192,95109,t,0,0,4
4:24.242,95127,),0,0,2
4:24.331,95159,(,0,0,0
4:24.364,95171,p,0,0,0
4:24.422,95192,),0,0,0
4:24.425,95193,(,0,0,1
4:24.497,95219,N,0,0,0
4:24.558,95241,),0,0,1
4:24.628,95266,(,0,0,2
4:24.672,95282,t,0,0,4
4:24.833,95340,t,0,0,4
4:24.867,95352,),0,0,2
4:24.989,95396,(,0,0,0
4:25.036,95413,p,0,0,0
4:25.069,95425,),0,0,0
4:25.094,95434,(,0,0,1
4:25.169,95461,N,0,0,0
4:25.219,95479,),0,0,1
4:25.342,95523,(,0,0,2
4:25.375,95535,t,0,0,4
4:25.514,95585,t,0,0,4
4:25.594,95614,),0,0,2
4:25.633,95628,(,0,0,0
4:25.697,95651,p,0,0,0
4:25.783,95682,),0,0,0
4:25.794,95686,(,0,0,1
4:25.864,95711,N,0,0,0
4:25.911,95728,),0,0,1
4:26.069,95785,(,0,0,2
4:26.100,95796,t,0,0,4
4:26.203,95833,t,0,0,4
4:26.250,95850,),0,0,2
4:26.269,95857,(,0,0,0
4:26.322,95876,p,0,0,0
4:26.397,95903,),0,0,0
4:26.444,95920,(,0,0,1
4:26.536,95953,N,0,0,0
4:26.592,95973,),0,0,1
4:26.636,95989,(,0,0,2
4:26.694,96010,t,0,0,4
4:26.883,96078,t,0,0,4
4:26.944,96100,),0,0,2
4:27.044,96136,(,0,0,0
4:27.086,96151,p,0,0,0
4:27.133,96168,),0,0,0
4:27.156,96176,(,0,0,1
4:27.228,96202,N,0,0,0
4:27.278,96220,),0,0,1
4:27.381,96257,(,0,0,2
4:27.411,96268,t,0,0,1
4:27.542,96315,),0,0,2
4:27.694,96370,(,0,0,0
4:27.742,96387,p,0,0,0
4:27.803,96409,),0,0,0
4:27.850,96426,(,0,0,1
4:27.889,96440,N,0,0,0
4:27.939,96458,),0,0,1
4:27.997,96479,(,0,0,2
4:28.028,96490,t,0,0,4
4:28.219,96559,t,0,0,4
4:28.322,96596,),0,0,2
4:28.394,96622,(,0,0,0
4:28.439,96638,p,0,0,0
4:28.475,96651,),0,0,0
4:28.519,96667,(,0,0,1
4:28.572,96686,N,0,0,0
4:28.636,96709,),0,0,1
4:28.767,96756,(,0,0,2
4:28.794,96766,t,0,0,4
4:28.903,96805,t,0,0,4
4:28.981,96833,),0,0,2
4:29.069,96865,(,0,0,0
4:29.114,96881,p,0,0,0
4:29.169,96901,),0,0,0
4:29.189,96908,(,0,0,1
4:29.253,96931,N,0,0,0
4:29.311,96952,),0,0,1
4:29.425,96993,(,0,0,2
4:29.469,97009,t,0,0,4
4:29.592,97053,t,0,0,4
4:29.656,97076,),0,0,2
4:29.733,97104,(,0,0,0
4:29.797,97127,p,0,0,0
4:29.842,97143,),0,0,0
4:29.875,97155,(,0,0,1
4:29.936,97177,N,0,0,0
4:30.003,97201,),0,0,1
4:30.092,97233,(,0,0,2
4:30.156,97256,t,0,0,4
4:30.275,97299,t,0,0,4
4:30.325,97317,),0,0,2
4:30.411,97348,(,0,0,0
4:30.469,97369,p,0,0,0
4:30.528,97390,),0,0,0
4:30.553,97399,(,0,0,1
4:30.614,97421,N,0,0,0
4:30.681,97445,),0,0,1
4:30.736,97465,(,0,0,2
4:30.839,97502,t,0,0,4
4:30.958,97545,t,0,0,4
4:31.022,97568,),0,0,2
4:31.114,97601,(,0,0,0
4:31.167,97620,p,0,0,0
4:31.214,97637,),0,0,0
4:31.225,97641,(,0,0,1
4:31.303,97669,N,0,0,0
4:31.369,97693,),0,0,1
4:31.469,97729,(,0,0,2
4:31.522,97748,t,0,0,4
4:31.636,97789,t,0,0,4
4:31.703,97813,),0,0,2
4:31.769,97837,(,0,0,0
4:31.811,97852,p,0,0,0
4:31.878,97876,),0,0,0
4:31.928,97894,(,0,0,1
4:31.969,97909,N,0,0,0
4:32.033,97932,),0,0,1
4:32.144,97972,(,0,0,2
4:32.194,97990,t,0,0,4
4:32.311,98032,t,0,0,4
4:32.361,98050,),0,0,2
4:32.461,98086,(,0,0,0
4:32.503,98101,p,0,0,0
4:32.561,98122,),0,0,0
4:32.611,98140,(,0,0,1
4:32.650,98154,N,0,0,0
4:32.708,98175,),0,0,1
4:32.786,98203,(,0,0,2
4:32.897,98243,t,0,0,4
4:33.036,98293,t,0,0,4
4:33.069,98305,),0,0,2
4:33.144,98332,(,0,0,0
4:33.197,98351,p,0,0,0
4:33.261,98374,),0,0,0
4:33.267,98376,(,0,0,1
4:33.339,98402,N,0,0,0
4:33.403,98425,),0,0,1
4:33.503,98461,(,0,0,2
4:33.583,98490,t,0,0,4
4:33.689,98528,t,0,0,4
4:33.731,98543,),0,0,2
4:33.825,98577,(,0,0,0
4:33.869,98593,p,0,0,0
4:33.933,98616,),0,0,0
4:33.958,98625,(,0,0,1
4:34.022,98648,N,0,0,0
4:34.078,98668,),0,0,1
4:34.197,98711,(,0,0,2
4:34.267,98736,t,0,0,4
4:34.369,98773,t,0,0,4
4:34.408,98787,),0,0,2
4:34.511,98824,(,0,0,0
4:34.569,98845,p,0,0,0
4:34.639,98870,),0,0,0
4:34.661,98878,(,0,0,1
4:34.711,98896,N,0,0,0
4:34.769,98917,),0,0,1
4:34.867,98952,(,0,0,2
4:34.931,98975,t,0,0,4
4:35.039,99014,t,0,0,4
4:35.111,99040,),0,0,2
4:35.186,99067,(,0,0,0
4:35.236,99085,p,0,0,0
4:35.292,99105,),0,0,0
4:35.325,99117,(,0,0,1
4:35.386,99139,N,0,0,0
4:35.439,99158,),0,0,1
4:35.569,99205,(,0,0,2
4:35.622,99224,t,0,0,1
4:35.717,99258,),0,0,2
4:38.158   100137,(,0,0,1
4:38.192   100149,N,0,0,0
4:38.222   100160,),0,0,1
4:38.333   100200,(,0,0,2
4:38.425   100233,t,0,0,1
4:38.514   100265,),0,0,2
4:38.856   100388,(,0,0,1
4:38.881   100397,N,0,0,0
4:38.906   100406,),0,0,1
4:39.036   100453,(,0,0,2
4:39.114   100481,t,0,0,4
4:39.219   100519,t,0,0,4
4:39.300   100548,),0,0,2
4:39.522   100628,(,0,0,0
4:39.547   100637,p,0,0,0
4:39.575   100647,),0,0,0
4:39.661   100678,(,0,0,1
4:39.825   100737,N,0,0,0
4:39.972   100790,),0,0,1
4:40.236   100885,(,0,0,2
4:40.267   100896,t,0,0,0
4:40.306   100910,),0,0,2
4:41.664   101399,(,0,0,1
4:41.694   101410,N,0,0,0
4:41.728   101422,),0,0,1
4:41.819   101455,(,0,0,2
4:41.925   101493,t,0,0,4
4:42.247   101609,t,0,0,4
4:42.311   101632,),0,0,2
4:43.044   101896,(,0,0,1
4:43.100   101916,N,0,0,0
4:43.131   101927,),0,0,1
4:43.308   101991,(,0,0,1
4:43.439   102038,N,0,0,0
4:43.467   102048,),0,0,1
4:43.758   102153,(,0,0,2
4:43.789   102164,t,0,0,0
4:43.828   102178,),0,0,2
4:44.703   102493,(,0,0,1
4:44.761   102514,N,0,0,0
4:44.903   102565,),0,0,1
4:45.164   102659,(,0,0,2
4:45.197   102671,t,0,0,0
4:45.233   102684,),0,0,2
4:46.161   103018,(,0,0,1
4:46.178   103024,N,0,0,0
4:46.344   103084,),0,0,1
4:46.586   103171,(,0,0,2
4:46.619   103183,t,0,0,0
4:46.656   103196,),0,0,2
4:47.975   103671,(,0,0,0
4:47.994   103678,p,0,0,0
4:48.022   103688,),0,0,0
4:48.264   103775,(,0,0,1
4:48.281   103781,N,0,0,0
4:48.406   103826,),0,0,1
4:48.592   103893,(,0,0,2
4:48.664   103919,t,0,0,1
4:48.725   103941,),0,0,2
4:48.933   104016,(,0,0,1
4:48.981   104033,N,0,0,0
4:49.136   104089,),0,0,1
4:49.394   104182,(,0,0,2
4:49.428   104194,t,0,0,0
4:49.467   104208,),0,0,2
4:50.314   104513,(,0,0,1
4:50.344   104524,N,0,0,0
4:50.478   104572,),0,0,1
4:50.758   104673,(,0,0,2
4:50.792   104685,t,0,0,0
4:50.831   104699,),0,0,2
4:52.400   105264,(,0,0,1
4:52.414   105269,N,0,0,0
4:52.544   105316,),0,0,1
4:52.814   105413,(,0,0,2
4:52.847   105425,t,0,0,0
4:52.886   105439,),0,0,2
4:53.794   105766,(,0,0,1
4:53.858   105789,N,0,0,0
4:53.906   105806,),0,0,1
4:54.125   105885,),0,0,2
4:54.150   105894,t,0,0,0
4:54.172   105902,(,0,0,2
4:54.428   105994,(,0,0,1
4:54.444   106000,N,0,0,0
4:54.578   106048,),0,0,1
4:54.847   106145,(,0,0,2
4:54.881   106157,t,0,0,0
4:54.919   106171,),0,0,2
4:55.119   106243,(,0,0,1
4:55.222   106280,N,0,0,0
4:55.333   106320,),0,0,1
4:55.544   106396,(,0,0,2
4:55.575   106407,t,0,0,0
4:55.611   106420,),0,0,2
4:55.844   106504,(,0,0,1
4:55.892   106521,N,0,0,0
4:55.969   106549,),0,0,1
4:56.231   106643,(,0,0,2
4:56.261   106654,t,0,0,0
4:56.300   106668,),0,0,2
4:57.208   106995,(,0,0,1
4:57.256   107012,N,0,0,0
4:57.267   107016,),0,0,1
4:57.581   107129,(,0,0,2
4:57.611   107140,t,0,0,0
4:57.650   107154,),0,0,2
4:57.653   107155,(,0,0,1
4:57.853   107227,N,0,0,0
4:58.056   107300,),0,0,1
4:58.258   107373,(,0,0,2
4:58.292   107385,t,0,0,0
4:58.328   107398,),0,0,2
4:59.208   107715,(,0,0,1
4:59.297   107747,N,0,0,0
4:59.339   107762,),0,0,1
4:59.606   107858,(,0,0,2
4:59.636   107869,t,0,0,0
4:59.675   107883,),0,0,2
4:59.900   107964,(,0,0,1
4:59.986   107995,N,0,0,0
5:00.006   108002,),0,0,1
5:00.311   108112,(,0,0,2
5:00.342   108123,t,0,0,0
5:00.381   108137,),0,0,2
5:00.692   108249,(,0,0,1
5:00.717   108258,N,0,0,0
5:00.772   108278,),0,0,1
5:00.983   108354,(,0,0,2
5:01.014   108365,t,0,0,0
5:01.053   108379,),0,0,2
5:01.078   108388,(,0,0,1
5:01.250   108450,N,0,0,0
5:01.383   108498,),0,0,1
5:01.656   108596,(,0,0,2
5:01.686   108607,t,0,0,0
5:01.722   108620,),0,0,2
5:04.375   109575,(,0,0,0
5:04.381   109577,p,0,0,0
5:04.408   109587,),0,0,0
5:04.664   109679,(,0,0,1
5:04.756   109712,N,0,0,0
5:04.875   109755,),0,0,1
5:05.081   109829,(,0,0,2
5:05.108   109839,t,0,0,0
5:05.144   109852,),0,0,2
5:08.756   111152,(,0,0,1
5:08.792   111165,N,0,0,0
5:08.914   111209,),0,0,1
5:09.192   111309,(,0,0,2
5:09.222   111320,t,0,0,0
5:09.261   111334,),0,0,2
5:11.319   112075,(,0,0,1
5:11.358   112089,N,0,0,0
5:11.392   112101,),0,0,1
5:11.550   112158,(,0,0,1
5:11.592   112173,N,0,0,0
5:11.761   112234,),0,0,1
5:12.011   112324,(,0,0,2
5:12.042   112335,t,0,0,0
5:12.081   112349,),0,0,2
5:12.319   112435,(,0,0,1
5:12.392   112461,N,0,0,0
5:12.511   112504,),0,0,1
5:12.728   112582,(,0,0,2
5:12.761   112594,t,0,0,0
5:12.800   112608,),0,0,2
5:14.444   113200,(,0,0,1
5:14.508   113223,N,0,0,0
5:14.647   113273,),0,0,1
5:14.867   113352,(,0,0,2
5:14.894   113362,t,0,0,5
5:14.936   113377,t,0,0,5
5:14.972   113390,),0,0,2
5:16.547   113957,(,0,0,1
5:16.636   113989,N,0,0,0
5:16.753   114031,),0,0,1
5:16.989   114116,(,0,0,2
5:17.022   114128,t,0,0,5
5:17.067   114144,t,0,0,5
5:17.103   114157,),0,0,2
5:17.983   114474,(,0,0,1
5:18.075   114507,N,0,0,0
5:18.119   114523,),0,0,1
5:18.428   114634,(,0,0,2
5:18.461   114646,t,0,0,0
5:18.497   114659,),0,0,2
5:18.717   114738,(,0,0,1
5:18.778   114760,N,0,0,0
5:18.856   114788,),0,0,1
5:19.119   114883,(,0,0,2
5:19.150   114894,t,0,0,0
5:19.186   114907,),0,0,2
5:19.367   114972,(,0,0,1
5:19.397   114983,N,0,0,0
5:19.558   115041,),0,0,1
5:19.836   115141,(,0,0,2
5:19.869   115153,t,0,0,0
5:19.908   115167,),0,0,2
5:20.817   115494,(,0,0,1
5:20.900   115524,N,0,0,0
5:21.017   115566,),0,0,1
5:21.239   115646,(,0,0,2
5:21.269   115657,t,0,0,0
5:21.308   115671,),0,0,2
5:21.517   115746,(,0,0,1
5:21.531   115751,N,0,0,0
5:21.697   115811,),0,0,1
5:21.964   115907,(,0,0,2
5:21.994   115918,t,0,0,0
5:22.033   115932,),0,0,2
5:24.064   116663,(,0,0,0
5:24.072   116666,p,0,0,0
5:24.100   116676,),0,0,0
5:24.353   116767,(,0,0,1
5:24.367   116772,N,0,0,0
5:24.492   116817,),0,0,1
5:25.769   117277,(,0,0,1
5:25.803   117289,N,0,0,0
5:25.967   117348,),0,0,1
5:26.219   117439,(,0,0,2
5:26.250   117450,t,0,0,0
5:26.286   117463,),0,0,2
5:28.458   118245,(,0,0,1
5:28.622   118304,N,0,0,0
5:28.728   118342,),0,0,1
5:28.897   118403,(,0,0,2
5:28.950   118422,t,0,0,0
5:29.022   118448,),0,0,2
5:29.342   118563,(,0,0,1
5:29.356   118568,N,0,0,0
5:29.492   118617,),0,0,1
5:29.808   118731,(,0,0,2
5:29.839   118742,t,0,0,0
5:29.878   118756,),0,0,2
5:31.308   119271,(,0,0,1
5:31.519   119347,N,0,0,0
5:31.664   119399,),0,0,1
5:32.261   119614,(,0,0,1
5:32.275   119619,N,0,0,0
5:32.403   119665,),0,0,1
5:32.706   119774,(,0,0,2
5:32.739   119786,t,0,0,0
5:32.778   119800,),0,0,2
5:34.400   120384,(,0,0,1
5:34.431   120395,N,0,0,0
5:34.575   120447,),0,0,1
5:34.833   120540,(,0,0,2
5:34.864   120551,t,0,0,0
5:34.903   120565,),0,0,2
5:35.100   120636,(,0,0,1
5:35.128   120646,N,0,0,0
5:35.272   120698,),0,0,1
5:35.547   120797,(,0,0,2
5:35.578   120808,t,0,0,0
5:35.614   120821,),0,0,2
5:37.256   121412,(,0,0,1
5:37.278   121420,N,0,0,0
5:37.400   121464,),0,0,1
5:37.694   121570,(,0,0,2
5:37.728   121582,t,0,0,0
5:37.767   121596,),0,0,2
5:37.958   121665,(,0,0,1
5:37.978   121672,N,0,0,0
5:38.144   121732,),0,0,1
5:38.406   121826,(,0,0,2
5:38.436   121837,t,0,0,0
5:38.469   121849,),0,0,2
5:38.633   121908,(,0,0,1
5:38.678   121924,N,0,0,0
5:38.803   121969,),0,0,1
5:39.011   122044,(,0,0,2
5:39.089   122072,t,0,0,1
5:39.147   122093,),0,0,2
5:39.394   122182,(,0,0,1
5:39.408   122187,N,0,0,0
5:39.575   122247,),0,0,1
5:39.828   122338,(,0,0,2
5:39.858   122349,t,0,0,0
5:39.897   122363,),0,0,2
5:40.508   122583,(,0,0,0
5:40.525   122589,p,0,0,0
5:40.556   122600,),0,0,0
5:40.797   122687,(,0,0,1
5:40.811   122692,N,0,0,0
5:40.936   122737,),0,0,1
5:41.194   122830,(,0,0,2
5:41.228   122842,t,0,0,0
5:41.267   122856,),0,0,2
5:41.467   122928,(,0,0,1
5:41.478   122932,N,0,0,0
5:41.636   122989,),0,0,1
5:41.914   123089,(,0,0,2
5:41.944   123100,t,0,0,0
5:41.983   123114,),0,0,2
5:42.869   123433,(,0,0,1
5:42.881   123437,N,0,0,0
5:43.017   123486,),0,0,1
5:43.283   123582,(,0,0,2
5:43.314   123593,t,0,0,0
5:43.350   123606,),0,0,2
5:43.503   123661,(,0,0,1
5:43.569   123685,N,0,0,0
5:43.736   123745,),0,0,1
5:43.981   123833,(,0,0,2
5:44.014   123845,t,0,0,0
5:44.053   123859,),0,0,2
5:44.267   123936,(,0,0,1
5:44.281   123941,N,0,0,0
5:44.478   124012,),0,0,1
5:44.689   124088,(,0,0,2
5:44.719   124099,t,0,0,0
5:44.758   124113,),0,0,2
5:48.439   125438,(,0,0,1
5:48.450   125442,N,0,0,0
5:48.650   125514,),0,0,1
5:48.872   125594,(,0,0,2
5:48.903   125605,t,0,0,0
5:48.942   125619,),0,0,2
5:49.025   125649,(,0,0,1
5:49.147   125693,N,0,0,0
5:49.322   125756,),0,0,1
5:49.556   125840,(,0,0,2
5:49.589   125852,t,0,0,0
5:49.625   125865,),0,0,2
5:51.175   126423,(,0,0,1
5:51.217   126438,N,0,0,0
5:51.353   126487,),0,0,1
5:51.642   126591,(,0,0,2
5:51.672   126602,t,0,0,0
5:51.708   126615,),0,0,2
5:51.806   126650,(,0,0,1
5:51.914   126689,N,0,0,0
5:52.106   126758,),0,0,1
5:52.308   126831,(,0,0,2
5:52.342   126843,t,0,0,0
5:52.378   126856,),0,0,2
5:52.575   126927,(,0,0,1
5:52.592   126933,N,0,0,0
5:52.753   126991,),0,0,1
5:53.000   127080,(,0,0,2
5:53.031   127091,t,0,0,0
5:53.067   127104,),0,0,2
5:53.167   127140,(,0,0,1
5:53.300   127188,N,0,0,0
5:53.428   127234,),0,0,1
5:53.686   127327,(,0,0,2
5:53.717   127338,t,0,0,0
5:53.753   127351,),0,0,2
5:53.953   127423,(,0,0,1
5:53.986   127435,N,0,0,0
5:54.100   127476,),0,0,1
5:54.389   127580,(,0,0,2
5:54.422   127592,t,0,0,0
5:54.458   127605,),0,0,2
5:54.611   127660,(,0,0,1
5:54.669   127681,N,0,0,0
5:54.789   127724,),0,0,1
5:55.083   127830,(,0,0,2
5:55.117   127842,t,0,0,0
5:55.153   127855,),0,0,2
6:02.747   130589,(,0,0,0
6:02.750   130590,p,0,0,0
6:02.783   130602,),0,0,0
6:02.986   130675,(,0,0,1
6:03.033   130692,N,0,0,0
6:03.178   130744,),0,0,1
6:03.442   130839,(,0,0,2
6:03.472   130850,t,0,0,5
6:03.508   130863,t,0,0,5
6:03.536   130873,),0,0,2
6:27.064   139343,(,0,0,1
6:27.106   139358,N,0,0,0
6:27.136   139369,),0,0,1
6:27.214   139397,(,0,0,2
6:27.319   139435,t,0,0,4
6:27.436   139477,t,0,0,4
6:27.519   139507,),0,0,2
6:27.733   139584,(,0,0,1
6:27.792   139605,N,0,0,0
6:27.822   139616,),0,0,1
6:27.903   139645,(,0,0,2
6:27.956   139664,t,0,0,4
6:28.117   139722,t,0,0,4
6:28.244   139768,),0,0,2
6:28.458   139845,(,0,0,1
6:28.483   139854,N,0,0,0
6:28.511   139864,),0,0,1
6:28.611   139900,(,0,0,2
6:28.694   139930,t,0,0,4
6:28.825   139977,t,0,0,4
6:28.881   139997,),0,0,2
6:29.136   140089,(,0,0,1
6:29.181   140105,N,0,0,0
6:29.211   140116,),0,0,1
6:29.303   140149,(,0,0,2
6:29.392   140181,t,0,0,4
6:29.514   140225,t,0,0,4
6:29.594   140254,),0,0,2
6:30.486   140575,(,0,0,1
6:30.547   140597,N,0,0,0
6:30.578   140608,),0,0,1
6:30.742   140667,(,0,0,2
6:30.778   140680,t,0,0,4
6:30.906   140726,t,0,0,4
6:31.006   140762,),0,0,2
6:31.228   140842,(,0,0,1
6:31.258   140853,N,0,0,0
6:31.325   140877,),0,0,1
6:31.358   140889,(,0,0,2
6:31.478   140932,t,0,0,4
6:31.589   140972,t,0,0,4
6:31.689   141008,),0,0,2
6:32.603   141337,(,0,0,1
6:32.633   141348,N,0,0,0
6:32.664   141359,),0,0,1
6:32.758   141393,(,0,0,2
6:32.856   141428,t,0,0,4
6:32.961   141466,t,0,0,4
6:33.064   141503,),0,0,2
6:33.303   141589,(,0,0,1
6:33.339   141602,N,0,0,0
6:33.367   141612,),0,0,1
6:33.481   141653,(,0,0,2
6:33.553   141679,t,0,0,4
6:33.672   141722,t,0,0,4
6:33.792   141765,),0,0,2
6:34.000   141840,(,0,0,1
6:34.025   141849,N,0,0,0
6:34.058   141861,),0,0,1
6:34.181   141905,(,0,0,2
6:34.236   141925,t,0,0,4
6:34.358   141969,t,0,0,4
6:34.461   142006,),0,0,2
6:34.669   142081,(,0,0,1
6:34.708   142095,N,0,0,0
6:34.739   142106,),0,0,1
6:34.819   142135,(,0,0,2
6:34.931   142175,t,0,0,4
6:35.039   142214,t,0,0,4
6:35.119   142243,),0,0,2
6:35.344   142324,(,0,0,1
6:35.403   142345,N,0,0,0
6:35.433   142356,),0,0,1
6:35.533   142392,(,0,0,2
6:35.625   142425,t,0,0,4
6:35.750   142470,t,0,0,4
6:35.839   142502,),0,0,2
6:36.069   142585,(,0,0,1
6:36.108   142599,N,0,0,0
6:36.139   142610,),0,0,1
6:36.186   142627,(,0,0,2
6:36.333   142680,t,0,0,4
6:36.444   142720,t,0,0,4
6:36.556   142760,),0,0,2
6:36.736   142825,(,0,0,1
6:36.792   142845,N,0,0,0
6:36.822   142856,),0,0,1
6:36.944   142900,(,0,0,2
6:37.014   142925,t,0,0,4
6:37.122   142964,t,0,0,4
6:37.203   142993,),0,0,2
6:37.439   143078,(,0,0,1
6:37.461   143086,N,0,0,0
6:37.494   143098,),0,0,1
6:37.558   143121,(,0,0,2
6:37.683   143166,t,0,0,4
6:37.800   143208,t,0,0,4
6:37.897   143243,),0,0,2
6:38.136   143329,(,0,0,1
6:38.158   143337,N,0,0,0
6:38.192   143349,),0,0,1
6:38.278   143380,(,0,0,2
6:38.378   143416,t,0,0,4
6:38.494   143458,t,0,0,4
6:38.572   143486,),0,0,2
6:38.772   143558,(,0,0,1
6:38.847   143585,N,0,0,0
6:38.875   143595,),0,0,1
6:39.003   143641,(,0,0,2
6:39.064   143663,t,0,0,4
6:39.183   143706,t,0,0,4
6:39.275   143739,),0,0,2
6:39.508   143823,(,0,0,1
6:39.544   143836,N,0,0,0
6:39.575   143847,),0,0,1
6:39.686   143887,(,0,0,2
6:39.758   143913,t,0,0,4
6:39.872   143954,t,0,0,4
6:39.961   143986,),0,0,2
6:40.172   144062,(,0,0,1
6:40.217   144078,N,0,0,0
6:40.247   144089,),0,0,1
6:40.383   144138,(,0,0,2
6:40.444   144160,t,0,0,4
6:40.556   144200,t,0,0,4
6:40.658   144237,),0,0,2
6:40.894   144322,(,0,0,1
6:40.925   144333,N,0,0,0
6:40.956   144344,),0,0,1
6:41.022   144368,(,0,0,2
6:41.136   144409,t,0,0,4
6:41.253   144451,t,0,0,4
6:41.344   144484,),0,0,2
6:41.544   144556,(,0,0,1
6:41.622   144584,N,0,0,0
6:41.653   144595,),0,0,1
6:41.781   144641,(,0,0,2
6:41.833   144660,t,0,0,4
6:41.950   144702,t,0,0,4
6:42.047   144737,),0,0,2
6:42.250   144810,(,0,0,1
6:42.317   144834,N,0,0,0
6:42.344   144844,),0,0,1
6:42.422   144872,(,0,0,2
6:42.544   144916,t,0,0,4
6:42.653   144955,t,0,0,4
6:42.736   144985,),0,0,2
6:43.000   145080,(,0,0,1
6:43.031   145091,N,0,0,0
6:43.064   145103,),0,0,1
6:43.158   145137,(,0,0,2
6:43.272   145178,t,0,0,1
6:43.364   145211,),0,0,2
6:43.706   145334,(,0,0,1
6:43.736   145345,N,0,0,0
6:43.767   145356,),0,0,1
6:43.875   145395,(,0,0,2
6:43.969   145429,t,0,0,4
6:44.083   145470,t,0,0,4
6:44.169   145501,),0,0,2
6:44.411   145588,(,0,0,1
6:44.444   145600,N,0,0,0
6:44.475   145611,),0,0,1
6:44.561   145642,(,0,0,2
6:44.672   145682,t,0,0,4
6:44.775   145719,t,0,0,4
6:44.875   145755,),0,0,2
6:45.111   145840,(,0,0,1
6:45.144   145852,N,0,0,0
6:45.175   145863,),0,0,1
6:45.300   145908,(,0,0,2
6:45.383   145938,t,0,0,4
6:45.497   145979,t,0,0,4
6:45.600   146016,),0,0,2
6:45.842   146103,(,0,0,1
6:45.886   146119,N,0,0,0
6:45.914   146129,),0,0,1
6:46.153   146215,(,0,0,2
6:46.225   146241,t,0,0,0
6:46.314   146273,),0,0,2
6:46.578   146368,(,0,0,1
6:46.603   146377,N,0,0,0
6:46.631   146387,),0,0,1
6:46.756   146432,(,0,0,2
6:46.828   146458,t,0,0,4
6:46.942   146499,t,0,0,4
6:47.039   146534,),0,0,2
6:47.244   146608,(,0,0,1
6:47.314   146633,N,0,0,0
6:47.344   146644,),0,0,1
6:47.481   146693,(,0,0,2
6:47.533   146712,t,0,0,4
6:47.642   146751,t,0,0,4
6:47.744   146788,),0,0,2
6:48.006   146882,(,0,0,1
6:48.033   146892,N,0,0,0
6:48.064   146903,),0,0,1
6:48.156   146936,(,0,0,2
6:48.256   146972,t,0,0,4
6:48.372   147014,t,0,0,4
6:48.472   147050,),0,0,2
6:48.711   147136,(,0,0,1
6:48.753   147151,N,0,0,0
6:48.783   147162,),0,0,1
6:48.906   147206,(,0,0,2
6:48.961   147226,t,0,0,4
6:49.083   147270,t,0,0,4
6:49.139   147290,),0,0,2
6:49.381   147377,(,0,0,1
6:49.456   147404,N,0,0,0
6:49.483   147414,),0,0,1
6:49.589   147452,(,0,0,2
6:49.683   147486,t,0,0,4
6:49.797   147527,t,0,0,4
6:49.900   147564,),0,0,2
6:50.144   147652,(,0,0,1
6:50.178   147664,N,0,0,0
6:50.211   147676,),0,0,1
6:50.258   147693,(,0,0,2
6:50.411   147748,t,0,0,4
6:50.528   147790,t,0,0,4
6:50.567   147804,),0,0,2
6:50.828   147898,(,0,0,1
6:50.886   147919,N,0,0,0
6:50.917   147930,),0,0,1
6:51.025   147969,(,0,0,2
6:51.108   147999,t,0,0,4
6:51.231   148043,t,0,0,4
6:51.281   148061,),0,0,2
6:51.531   148151,(,0,0,1
6:51.589   148172,N,0,0,0
6:51.622   148184,),0,0,1
6:51.697   148211,(,0,0,2
6:51.817   148254,t,0,0,4
6:51.922   148292,t,0,0,4
6:52.008   148323,),0,0,2
6:52.250   148410,(,0,0,1
6:52.283   148422,N,0,0,0
6:52.311   148432,),0,0,1
6:52.397   148463,(,0,0,2
6:52.517   148506,t,0,0,4
6:52.631   148547,t,0,0,4
6:52.706   148574,),0,0,2
6:52.983   148674,(,0,0,1
6:53.017   148686,N,0,0,0
6:53.044   148696,),0,0,1
6:53.117   148722,(,0,0,2
6:53.242   148767,t,0,0,4
6:53.350   148806,t,0,0,4
6:53.461   148846,),0,0,2
6:53.683   148926,(,0,0,1
6:53.722   148940,N,0,0,0
6:53.753   148951,),0,0,1
6:53.881   148997,(,0,0,2
6:53.958   149025,t,0,0,4
6:54.069   149065,t,0,0,4
6:54.150   149094,),0,0,2
6:54.406   149186,(,0,0,1
6:54.436   149197,N,0,0,0
6:54.467   149208,),0,0,1
6:54.556   149240,(,0,0,2
6:54.650   149274,t,0,0,4
6:54.761   149314,t,0,0,4
6:54.811   149332,),0,0,2
6:55.106   149438,(,0,0,1
6:55.136   149449,N,0,0,0
6:55.169   149461,),0,0,1
6:55.300   149508,(,0,0,2
6:55.378   149536,t,0,0,4
6:55.494   149578,t,0,0,4
6:55.578   149608,),0,0,2
6:55.822   149696,(,0,0,1
6:55.853   149707,N,0,0,0
6:55.886   149719,),0,0,1
6:55.958   149745,(,0,0,2
6:56.083   149790,t,0,0,4
6:56.192   149829,t,0,0,4
6:56.281   149861,),0,0,2
6:56.500   149940,(,0,0,1
6:56.564   149963,N,0,0,0
6:56.594   149974,),0,0,1
6:56.753   150031,(,0,0,2
6:56.792   150045,t,0,0,4
6:56.906   150086,t,0,0,4
6:56.969   150109,),0,0,2
6:57.250   150210,(,0,0,1
6:57.281   150221,N,0,0,0
6:57.314   150233,),0,0,1
6:57.400   150264,(,0,0,2
6:57.517   150306,t,0,0,4
6:57.636   150349,t,0,0,4
6:57.742   150387,),0,0,2
6:57.981   150473,(,0,0,1
6:58.022   150488,N,0,0,0
6:58.053   150499,),0,0,1
6:58.131   150527,(,0,0,2
6:58.244   150568,t,0,0,4
6:58.361   150610,t,0,0,4
6:58.417   150630,),0,0,2
6:58.714   150737,(,0,0,1
6:58.742   150747,N,0,0,0
6:58.772   150758,),0,0,1
6:58.889   150800,(,0,0,2
6:58.969   150829,t,0,0,4
6:59.081   150869,t,0,0,4
6:59.192   150909,),0,0,2
7:00.153   151255,(,0,0,1
7:00.186   151267,N,0,0,0
7:00.214   151277,),0,0,1
7:00.297   151307,(,0,0,2
7:00.419   151351,t,0,0,4
7:00.531   151391,t,0,0,4
7:00.608   151419,),0,0,2
7:00.878   151516,(,0,0,1
7:00.911   151528,N,0,0,0
7:00.939   151538,),0,0,1
7:01.008   151563,(,0,0,2
7:01.144   151612,t,0,0,4
7:01.253   151651,t,0,0,4
7:01.347   151685,),0,0,2
7:01.606   151778,(,0,0,1
7:01.633   151788,N,0,0,0
7:01.658   151797,),0,0,1
7:01.764   151835,(,0,0,2
7:01.850   151866,t,0,0,4
7:01.964   151907,t,0,0,4
7:02.047   151937,),0,0,2
7:02.283   152022,(,0,0,1
7:02.331   152039,N,0,0,0
7:02.358   152049,),0,0,1
7:02.489   152096,(,0,0,2
7:02.564   152123,t,0,0,4
7:02.678   152164,t,0,0,4
7:02.722   152180,),0,0,2
7:02.994   152278,(,0,0,1
7:03.050   152298,N,0,0,0
7:03.081   152309,),0,0,1
7:03.189   152348,(,0,0,2
7:03.281   152381,t,0,0,4
7:03.392   152421,t,0,0,4
7:03.461   152446,),0,0,2
7:03.714   152537,(,0,0,1
7:03.758   152553,N,0,0,0
7:03.789   152564,),0,0,1
7:03.878   152596,(,0,0,2
7:03.978   152632,t,0,0,4
7:04.092   152673,t,0,0,4
7:04.206   152714,),0,0,2
7:05.886   153319,(,0,0,1
7:05.925   153333,N,0,0,0
7:05.956   153344,),0,0,1
7:06.061   153382,(,0,0,2
7:06.153   153415,t,0,0,4
7:06.269   153457,t,0,0,4
7:06.339   153482,),0,0,2
7:06.575   153567,(,0,0,1
7:06.639   153590,N,0,0,0
7:06.672   153602,),0,0,1
7:06.767   153636,(,0,0,2
7:06.867   153672,t,0,0,4
7:06.975   153711,t,0,0,4
7:07.050   153738,),0,0,2
7:07.325   153837,(,0,0,1
7:07.358   153849,N,0,0,0
7:07.392   153861,),0,0,1
7:07.503   153901,(,0,0,2
7:07.608   153939,t,0,0,4
7:07.719   153979,t,0,0,4
7:07.789   154004,),0,0,2
7:08.047   154097,(,0,0,1
7:08.078   154108,N,0,0,0
7:08.111   154120,),0,0,1
7:08.200   154152,(,0,0,2
7:08.311   154192,t,0,0,4
7:08.419   154231,t,0,0,4
7:08.472   154250,),0,0,2
7:08.756   154352,(,0,0,1
7:08.792   154365,N,0,0,0
7:08.822   154376,),0,0,1
7:08.925   154413,(,0,0,2
7:09.014   154445,t,0,0,4
7:09.128   154486,t,0,0,4
7:09.186   154507,),0,0,2
7:09.453   154603,(,0,0,1
7:09.486   154615,N,0,0,0
7:09.517   154626,),0,0,1
7:09.608   154659,(,0,0,2
7:09.717   154698,t,0,0,4
7:09.833   154740,t,0,0,4
7:09.889   154760,),0,0,2
7:10.158   154857,(,0,0,1
7:10.211   154876,N,0,0,0
7:10.242   154887,),0,0,1
7:10.356   154928,(,0,0,2
7:10.433   154956,t,0,0,4
7:10.550   154998,t,0,0,4
7:10.617   155022,),0,0,2
7:10.886   155119,(,0,0,1
7:10.919   155131,N,0,0,0
7:10.947   155141,),0,0,1
7:11.061   155182,(,0,0,2
7:11.153   155215,t,0,0,4
7:11.264   155255,t,0,0,4
7:11.358   155289,),0,0,2
7:11.589   155372,(,0,0,1
7:11.622   155384,N,0,0,0
7:11.656   155396,),0,0,1
7:11.797   155447,(,0,0,2
7:11.858   155469,t,0,0,4
7:11.972   155510,t,0,0,4
7:12.022   155528,),0,0,2
7:12.317   155634,(,0,0,1
7:12.350   155646,N,0,0,0
7:12.383   155658,),0,0,1
7:12.508   155703,(,0,0,2
7:12.589   155732,t,0,0,4
7:12.694   155770,t,0,0,4
7:12.750   155790,),0,0,2
7:13.728   156142,(,0,0,1
7:13.775   156159,N,0,0,0
7:13.806   156170,),0,0,1
7:13.900   156204,(,0,0,2
7:14.000   156240,t,0,0,4
7:14.103   156277,t,0,0,4
7:14.203   156313,),0,0,2
7:14.450   156402,(,0,0,1
7:14.481   156413,N,0,0,0
7:14.511   156424,),0,0,1
7:14.614   156461,(,0,0,2
7:14.717   156498,t,0,0,4
7:14.836   156541,t,0,0,4
7:14.900   156564,),0,0,2
7:15.178   156664,(,0,0,1
7:15.211   156676,N,0,0,0
7:15.242   156687,),0,0,1
7:15.369   156733,(,0,0,2
7:15.433   156756,t,0,0,4
7:15.547   156797,t,0,0,4
7:15.650   156834,),0,0,2
7:15.869   156913,(,0,0,1
7:15.903   156925,N,0,0,0
7:15.933   156936,),0,0,1
7:16.047   156977,(,0,0,2
7:16.128   157006,t,0,0,4
7:16.247   157049,t,0,0,4
7:16.342   157083,),0,0,2
7:16.564   157163,(,0,0,1
7:16.594   157174,N,0,0,0
7:16.628   157186,),0,0,1
7:16.731   157223,(,0,0,2
7:16.817   157254,t,0,0,4
7:16.931   157295,t,0,0,4
7:17.014   157325,),0,0,2
7:17.264   157415,(,0,0,1
7:17.294   157426,N,0,0,0
7:17.325   157437,),0,0,1
7:17.467   157488,(,0,0,2
7:17.522   157508,t,0,0,4
7:17.636   157549,t,0,0,4
7:17.750   157590,),0,0,2
7:17.964   157667,(,0,0,1
7:17.992   157677,N,0,0,0
7:18.022   157688,),0,0,1
7:18.150   157734,(,0,0,2
7:18.200   157752,t,0,0,4
7:18.325   157797,t,0,0,4
7:18.419   157831,),0,0,2
7:18.597   157895,(,0,0,1
7:18.667   157920,N,0,0,0
7:18.694   157930,),0,0,1
7:18.831   157979,(,0,0,2
7:18.883   157998,t,0,0,4
7:19.000   158040,t,0,0,4
7:19.078   158068,),0,0,2
7:19.339   158162,(,0,0,1
7:19.372   158174,N,0,0,0
7:19.400   158184,),0,0,1
7:19.458   158205,(,0,0,2
7:19.592   158253,t,0,0,4
7:19.719   158299,t,0,0,4
7:19.794   158326,),0,0,2
7:20.031   158411,(,0,0,1
7:20.064   158423,N,0,0,0
7:20.094   158434,),0,0,1
7:20.175   158463,(,0,0,2
7:20.300   158508,t,0,0,4
7:20.397   158543,t,0,0,4
7:20.492   158577,),0,0,2
7:20.728   158662,(,0,0,1
7:20.756   158672,N,0,0,0
7:20.819   158695,),0,0,1
7:20.881   158717,(,0,0,2
7:20.978   158752,t,0,0,4
7:21.097   158795,t,0,0,4
7:21.189   158828,),0,0,2
7:21.400   158904,(,0,0,1
7:21.439   158918,N,0,0,0
7:21.469   158929,),0,0,1
7:21.567   158964,(,0,0,2
7:21.664   158999,t,0,0,4
7:21.778   159040,t,0,0,4
7:21.883   159078,),0,0,2
7:22.131   159167,(,0,0,1
7:22.156   159176,N,0,0,0
7:22.183   159186,),0,0,1
7:22.297   159227,(,0,0,2
7:22.372   159254,t,0,0,4
7:22.503   159301,t,0,0,4
7:22.614   159341,),0,0,2
7:22.800   159408,(,0,0,1
7:22.847   159425,N,0,0,0
7:22.878   159436,),0,0,1
7:22.969   159469,(,0,0,2
7:23.072   159506,t,0,0,4
7:23.189   159548,t,0,0,4
7:23.264   159575,),0,0,2
7:24.133   159888,(,0,0,1
7:24.208   159915,N,0,0,0
7:24.239   159926,),0,0,1
7:24.342   159963,(,0,0,2
7:24.444   160000,t,0,0,4
7:24.561   160042,t,0,0,4
7:24.639   160070,),0,0,2
7:24.897   160163,(,0,0,1
7:24.925   160173,N,0,0,0
7:24.953   160183,),0,0,1
7:25.183   160266,(,0,0,2
7:25.256   160292,t,0,0,0
7:25.353   160327,),0,0,2
7:25.569   160405,(,0,0,1
7:25.606   160418,N,0,0,0
7:25.633   160428,),0,0,1
7:25.736   160465,(,0,0,2
7:25.836   160501,t,0,0,4
7:25.944   160540,t,0,0,4
7:26.044   160576,),0,0,2
7:26.233   160644,(,0,0,1
7:26.292   160665,N,0,0,0
7:26.325   160677,),0,0,1
7:26.414   160709,(,0,0,2
7:26.525   160749,t,0,0,4
7:26.636   160789,t,0,0,4
7:26.750   160830,),0,0,2
7:26.967   160908,(,0,0,1
7:26.994   160918,N,0,0,0
7:27.028   160930,),0,0,1
7:27.144   160972,(,0,0,2
7:27.231   161003,t,0,0,4
7:27.344   161044,t,0,0,4
7:27.428   161074,),0,0,2
7:27.667   161160,(,0,0,1
7:27.694   161170,N,0,0,0
7:27.728   161182,),0,0,1
7:27.808   161211,(,0,0,2
7:27.908   161247,t,0,0,4
7:28.033   161292,t,0,0,4
7:28.128   161326,),0,0,2
7:28.364   161411,(,0,0,1
7:28.389   161420,N,0,0,0
7:28.419   161431,),0,0,1
7:28.506   161462,(,0,0,2
7:28.617   161502,t,0,0,4
7:28.728   161542,t,0,0,4
7:28.814   161573,),0,0,2
7:29.014   161645,(,0,0,1
7:29.083   161670,N,0,0,0
7:29.114   161681,),0,0,1
7:29.189   161708,(,0,0,2
7:29.308   161751,t,0,0,4
7:29.439   161798,t,0,0,4
7:29.511   161824,),0,0,2
7:29.772   161918,(,0,0,1
7:29.800   161928,N,0,0,0
7:29.831   161939,),0,0,1
7:29.936   161977,(,0,0,2
7:30.022   162008,t,0,0,4
7:30.139   162050,t,0,0,4
7:30.219   162079,),0,0,2
7:30.453   162163,(,0,0,1
7:30.503   162181,N,0,0,0
7:30.531   162191,),0,0,1
7:30.619   162223,(,0,0,2
7:30.739   162266,t,0,0,4
7:30.850   162306,t,0,0,4
7:30.942   162339,),0,0,2
7:31.175   162423,(,0,0,1
7:31.208   162435,N,0,0,0
7:31.239   162446,),0,0,1
7:31.325   162477,(,0,0,2
7:31.433   162516,t,0,0,4
7:31.536   162553,t,0,0,4
7:31.642   162591,),0,0,2
7:31.875   162675,(,0,0,1
7:31.906   162686,N,0,0,0
7:31.933   162696,),0,0,1
7:32.050   162738,(,0,0,2
7:32.133   162768,t,0,0,4
7:32.253   162811,t,0,0,4
7:32.339   162842,),0,0,2
7:32.578   162928,(,0,0,1
7:32.608   162939,N,0,0,0
7:32.639   162950,),0,0,1
7:32.719   162979,(,0,0,2
7:32.833   163020,t,0,0,4
7:32.944   163060,t,0,0,4
7:33.033   163092,),0,0,2
7:33.281   163181,(,0,0,1
7:33.317   163194,N,0,0,0
7:33.344   163204,),0,0,1
7:33.419   163231,(,0,0,2
7:33.542   163275,t,0,0,4
7:33.656   163316,t,0,0,4
7:33.769   163357,),0,0,2
7:33.983   163434,(,0,0,1
7:34.033   163452,N,0,0,0
7:34.064   163463,),0,0,1
7:34.125   163485,(,0,0,2
7:34.267   163536,t,0,0,4
7:34.381   163577,t,0,0,4
7:34.439   163598,),0,0,2
7:34.706   163694,(,0,0,1
7:34.750   163710,N,0,0,0
7:34.778   163720,),0,0,1
7:34.908   163767,(,0,0,2
7:34.972   163790,t,0,0,4
7:35.089   163832,t,0,0,4
7:35.161   163858,),0,0,2
7:35.419   163951,(,0,0,1
7:35.453   163963,N,0,0,0
7:35.483   163974,),0,0,1
7:35.617   164022,(,0,0,2
7:35.675   164043,t,0,0,4
7:35.792   164085,t,0,0,4
7:35.867   164112,),0,0,2
7:36.131   164207,(,0,0,1
7:36.158   164217,N,0,0,0
7:36.189   164228,),0,0,1
7:36.308   164271,(,0,0,2
7:36.383   164298,t,0,0,4
7:36.497   164339,t,0,0,4
7:36.597   164375,),0,0,2
7:36.850   164466,(,0,0,1
7:36.883   164478,N,0,0,0
7:36.914   164489,),0,0,1
7:36.989   164516,(,0,0,2
7:37.111   164560,t,0,0,4
7:37.231   164603,t,0,0,4
7:37.300   164628,),0,0,2
7:37.575   164727,(,0,0,1
7:37.603   164737,N,0,0,0
7:37.631   164747,),0,0,1
7:37.756   164792,(,0,0,2
7:37.822   164816,t,0,0,4
7:37.936   164857,t,0,0,4
7:38.067   164904,),0,0,2
7:38.269   164977,(,0,0,1
7:38.314   164993,N,0,0,0
7:38.344   165004,),0,0,1
7:38.483   165054,(,0,0,2
7:38.536   165073,t,0,0,4
7:38.647   165113,t,0,0,4
7:38.739   165146,),0,0,2
7:38.972   165230,(,0,0,1
7:39.008   165243,N,0,0,0
7:39.033   165252,),0,0,1
7:39.153   165295,(,0,0,2
7:39.233   165324,t,0,0,4
7:39.353   165367,t,0,0,4
7:39.433   165396,),0,0,2
7:39.678   165484,(,0,0,1
7:39.725   165501,N,0,0,0
7:39.756   165512,),0,0,1
7:39.886   165559,(,0,0,2
7:39.947   165581,t,0,0,4
7:40.061   165622,t,0,0,4
7:40.186   165667,),0,0,2
7:40.342   165723,(,0,0,1
7:40.411   165748,N,0,0,0
7:40.442   165759,),0,0,1
7:40.550   165798,(,0,0,2
7:40.644   165832,t,0,0,4
7:40.747   165869,t,0,0,4
7:40.842   165903,),0,0,2
7:44.642   167271,(,0,0,1
7:44.667   167280,N,0,0,0
7:44.697   167291,),0,0,1
7:44.792   167325,(,0,0,2
7:44.886   167359,t,0,0,4
7:44.994   167398,t,0,0,4
7:45.106   167438,),0,0,2
7:45.339   167522,(,0,0,1
7:45.361   167530,N,0,0,0
7:45.389   167540,),0,0,1
7:45.503   167581,(,0,0,2
7:45.589   167612,t,0,0,4
7:45.711   167656,t,0,0,4
7:45.822   167696,),0,0,2
7:46.047   167777,(,0,0,1
7:46.072   167786,N,0,0,0
7:46.103   167797,),0,0,1
7:46.194   167830,(,0,0,2
7:46.297   167867,t,0,0,4
7:46.394   167902,t,0,0,4
7:46.506   167942,),0,0,2
7:46.742   168027,(,0,0,1
7:46.764   168035,N,0,0,0
7:46.794   168046,),0,0,1
7:46.919   168091,(,0,0,2
7:46.997   168119,t,0,0,4
7:47.108   168159,t,0,0,4
7:47.203   168193,),0,0,2
7:48.114   168521,(,0,0,1
7:48.161   168538,N,0,0,0
7:48.189   168548,),0,0,1
7:48.317   168594,(,0,0,2
7:48.381   168617,t,0,0,4
7:48.497   168659,t,0,0,4
7:48.578   168688,),0,0,2
7:50.942   169539,(,0,0,1
7:50.989   169556,N,0,0,0
7:51.017   169566,),0,0,1
7:51.122   169604,(,0,0,2
7:51.208   169635,t,0,0,4
7:51.322   169676,t,0,0,4
7:51.375   169695,),0,0,2
7:53.086   170311,(,0,0,1
7:53.119   170323,N,0,0,0
7:53.153   170335,),0,0,1
7:53.244   170368,(,0,0,2
7:53.347   170405,t,0,0,4
7:53.458   170445,t,0,0,4
7:53.517   170466,),0,0,2
7:54.508   170823,(,0,0,1
7:54.539   170834,N,0,0,0
7:54.583   170850,),0,0,1
7:54.692   170889,(,0,0,2
7:54.756   170912,t,0,0,4
7:54.872   170954,t,0,0,4
7:54.919   170971,),0,0,2
7:55.222   171080,(,0,0,1
7:55.250   171090,N,0,0,0
7:55.278   171100,),0,0,1
7:55.367   171132,(,0,0,2
7:55.486   171175,t,0,0,4
7:55.589   171212,t,0,0,4
7:55.617   171222,),0,0,2
7:55.919   171331,(,0,0,1
7:55.961   171346,N,0,0,0
7:55.992   171357,),0,0,1
7:56.094   171394,(,0,0,2
7:56.197   171431,t,0,0,1
7:56.300   171468,),0,0,2
7:56.653   171595,(,0,0,1
7:56.683   171606,N,0,0,0
7:56.714   171617,),0,0,1
7:56.803   171649,(,0,0,2
7:56.925   171693,t,0,0,4
7:57.033   171732,t,0,0,4
7:57.114   171761,),0,0,2
7:57.331   171839,(,0,0,1
7:57.392   171861,N,0,0,0
7:57.422   171872,),0,0,1
7:57.503   171901,(,0,0,2
7:57.636   171949,t,0,0,4
7:57.736   171985,t,0,0,4
7:57.850   172026,),0,0,2
7:58.061   172102,(,0,0,1
7:58.117   172122,N,0,0,0
7:58.147   172133,),0,0,1
7:58.267   172176,(,0,0,2
7:58.347   172205,t,0,0,4
7:58.453   172243,t,0,0,4
7:58.492   172257,),0,0,2
7:58.786   172363,(,0,0,1
7:58.831   172379,N,0,0,0
7:58.861   172390,),0,0,1
7:58.964   172427,(,0,0,2
7:59.075   172467,t,0,0,4
7:59.200   172512,t,0,0,4
7:59.242   172527,),0,0,2
7:59.519   172627,(,0,0,1
7:59.575   172647,N,0,0,0
7:59.603   172657,),0,0,1
7:59.694   172690,(,0,0,2
7:59.811   172732,t,0,0,4
7:59.919   172771,t,0,0,4
8:00.019   172807,),0,0,2
8:00.236   172885,(,0,0,1
8:00.300   172908,N,0,0,0
8:00.333   172920,),0,0,1
8:00.461   172966,(,0,0,2
8:00.553   172999,t,0,0,1
8:00.642   173031,),0,0,2
8:00.986   173155,(,0,0,1
8:01.011   173164,N,0,0,0
8:01.044   173176,),0,0,1
8:01.164   173219,(,0,0,2
8:01.247   173249,t,0,0,4
8:01.356   173288,t,0,0,4
8:01.414   173309,),0,0,2
8:01.658   173397,(,0,0,1
8:01.736   173425,N,0,0,0
8:01.781   173441,),0,0,1
8:01.847   173465,(,0,0,2
8:01.972   173510,t,0,0,4
