Elapsedtime,sample,Type,Sub,Chan,Num
0:00.283,102,(,0,0,0
0:00.333,120,p,0,0,0
0:00.369,133,),0,0,0
0:00.439,158,(,0,0,1
0:00.472,170,N,0,0,0
0:00.531,191,),0,0,1
0:00.711,256,(,0,0,2
0:00.817,294,t,0,0,0
0:00.908,327,),0,0,2
0:01.586,571,(,0,0,1
0:01.617,582,N,0,0,0
0:01.672,602,),0,0,1
0:01.844,664,(,0,0,2
0:01.939,698,t,0,0,0
0:02.028,730,),0,0,2
0:02.514,905,(,0,0,0
0:02.558,921,p,0,0,0
0:02.592,933,),0,0,0
0:02.653,955,(,0,0,1
0:02.681,965,N,0,0,0
0:02.736,985,),0,0,1
0:02.894,1042,(,0,0,2
0:03.000,1080,t,0,0,0
0:03.094,1114,),0,0,2
0:03.508,1263,(,0,0,0
0:03.547,1277,p,0,0,0
0:03.583,1290,),0,0,0
0:03.653,1315,(,0,0,1
0:03.683,1326,N,0,0,0
0:03.736,1345,),0,0,1
0:03.908,1407,(,0,0,2
0:04.011,1444,t,0,0,0
0:04.106,1478,),0,0,2
0:04.561,1642,(,0,0,0
0:04.603,1657,p,0,0,0
0:04.636,1669,),0,0,0
0:04.700,1692,(,0,0,1
0:04.731,1703,N,0,0,0
0:04.786,1723,),0,0,1
0:04.919,1771,(,0,0,2
0:05.019,1807,t,0,0,0
0:05.108,1839,),0,0,2
0:05.781,2081,(,0,0,1
0:05.814,2093,N,0,0,0
0:05.872,2114,),0,0,1
0:06.058,2181,(,0,0,2
0:06.158,2217,t,0,0,0
0:06.256,2252,),0,0,2
0:06.775,2439,(,0,0,0
0:06.828,2458,p,0,0,0
0:06.867,2472,),0,0,0
0:06.942,2499,(,0,0,1
0:06.972,2510,N,0,0,0
0:07.033,2532,),0,0,1
0:07.211,2596,(,0,0,2
0:07.308,2631,t,0,0,0
0:07.400,2664,),0,0,2
0:07.792,2805,(,0,0,0
0:07.839,2822,p,0,0,0
0:07.875,2835,),0,0,0
0:07.947,2861,(,0,0,1
0:07.975,2871,N,0,0,0
0:08.031,2891,),0,0,1
0:08.178,2944,(,0,0,2
0:08.275,2979,t,0,0,0
0:08.367,3012,),0,0,2
0:08.997,3239,(,0,0,1
0:09.028,3250,N,0,0,0
0:09.083,3270,),0,0,1
0:09.258,3333,(,0,0,2
0:09.353,3367,t,0,0,0
0:09.439,3398,),0,0,2
0:09.950,3582,(,0,0,0
0:09.997,3599,p,0,0,0
0:10.033,3612,),0,0,0
0:10.094,3634,(,0,0,1
0:10.125,3645,N,0,0,0
0:10.183,3666,),0,0,1
0:10.369,3733,(,0,0,2
0:10.461,3766,t,0,0,0
0:10.550,3798,),0,0,2
0:11.122,4004,(,0,0,1
0:11.153,4015,N,0,0,0
0:11.214,4037,),0,0,1
0:11.403,4105,(,0,0,2
0:11.497,4139,t,0,0,0
0:11.589,4172,),0,0,2
0:11.892,4281,(,0,0,0
0:11.933,4296,p,0,0,0
0:11.975,4311,),0,0,0
0:12.053,4339,(,0,0,1
0:12.083,4350,N,0,0,0
0:12.144,4372,),0,0,1
0:12.333,4440,(,0,0,2
0:12.425,4473,t,0,0,0
0:12.514,4505,),0,0,2
0:12.861,4630,(,0,0,0
0:12.908,4647,p,0,0,0
0:12.947,4661,),0,0,0
0:13.022,4688,(,0,0,1
0:13.053,4699,N,0,0,0
0:13.106,4718,),0,0,1
0:13.289,4784,(,0,0,2
0:13.386,4819,t,0,0,0
0:13.481,4853,),0,0,2
0:14.092,5073,(,0,0,1
0:14.122,5084,N,0,0,0
0:14.175,5103,),0,0,1
0:14.367,5172,(,0,0,2
0:14.456,5204,t,0,0,0
0:14.542,5235,),0,0,2
0:15.114,5441,(,0,0,1
0:15.144,5452,N,0,0,0
0:15.200,5472,),0,0,1
0:15.364,5531,(,0,0,2
0:15.456,5564,t,0,0,0
0:15.542,5595,),0,0,2
0:15.853,5707,(,0,0,0
0:15.894,5722,p,0,0,0
0:15.933,5736,),0,0,0
0:16.006,5762,(,0,0,1
0:16.036,5773,N,0,0,0
0:16.089,5792,),0,0,1
0:16.253,5851,(,0,0,2
0:16.344,5884,t,0,0,0
0:16.433,5916,),0,0,2
0:17.058,6141,(,0,0,1
0:17.089,6152,N,0,0,0
0:17.142,6171,),0,0,1
0:17.314,6233,(,0,0,2
0:17.419,6271,t,0,0,0
0:17.517,6306,),0,0,2
0:18.256,6572,(,0,0,1
0:18.289,6584,N,0,0,0
0:18.347,6605,),0,0,1
0:18.539,6674,(,0,0,2
0:18.639,6710,t,0,0,0
0:18.736,6745,),0,0,2
0:19.203,6913,(,0,0,0
0:19.244,6928,p,0,0,0
0:19.281,6941,),0,0,0
0:19.350,6966,(,0,0,1
0:19.381,6977,N,0,0,0
0:19.439,6998,),0,0,1
0:19.619,7063,(,0,0,2
0:19.714,7097,t,0,0,0
0:19.800,7128,),0,0,2
0:20.169,7261,(,0,0,0
0:20.217,7278,p,0,0,0
0:20.253,7291,),0,0,0
0:20.325,7317,(,0,0,1
0:20.356,7328,N,0,0,0
0:20.411,7348,),0,0,1
0:20.589,7412,(,0,0,2
0:20.689,7448,t,0,0,0
0:20.781,7481,),0,0,2
0:21.289,7664,(,0,0,0
0:21.336,7681,p,0,0,0
0:21.369,7693,),0,0,0
0:21.439,7718,(,0,0,1
0:21.469,7729,N,0,0,0
0:21.525,7749,),0,0,1
0:21.694,7810,(,0,0,2
0:21.786,7843,t,0,0,0
0:21.875,7875,),0,0,2
0:22.517,8106,(,0,0,1
0:22.544,8116,N,0,0,0
0:22.597,8135,),0,0,1
0:22.764,8195,(,0,0,2
0:22.833,8220,t,0,0,0
0:22.908,8247,),0,0,2
0:23.292,8385,(,0,0,0
0:23.339,8402,p,0,0,0
0:23.375,8415,),0,0,0
0:23.442,8439,(,0,0,1
0:23.472,8450,N,0,0,0
0:23.531,8471,),0,0,1
0:23.658,8517,t,0,0,2
0:23.811,8572,),0,0,2
0:23.958,8625,(,0,0,1
0:24.008,8643,N,0,0,0
0:24.078,8668,),0,0,1
0:24.214,8717,(,0,0,2
0:24.308,8751,t,0,0,0
0:24.389,8780,),0,0,2
0:24.950,8982,(,0,0,0
0:24.994,8998,p,0,0,0
0:25.033,9012,),0,0,0
0:25.100,9036,(,0,0,1
0:25.128,9046,N,0,0,0
0:25.186,9067,),0,0,1
0:25.364,9131,(,0,0,2
0:25.481,9173,t,0,0,0
0:25.581,9209,),0,0,2
0:26.222,9440,(,0,0,1
0:26.253,9451,N,0,0,0
0:26.308,9471,),0,0,1
0:26.478,9532,(,0,0,2
0:26.589,9572,t,0,0,0
0:26.681,9605,),0,0,2
0:27.272,9818,(,0,0,1
0:27.300,9828,N,0,0,0
0:27.358,9849,),0,0,1
0:27.522,9908,(,0,0,2
0:27.625,9945,t,0,0,0
0:27.714,9977,),0,0,2
0:28.292,10185,(,0,0,1
0:28.322,10196,N,0,0,0
0:28.381,10217,),0,0,1
0:28.556,10280,(,0,0,2
0:28.650,10314,t,0,0,0
0:28.736,10345,),0,0,2
0:29.347,10565,(,0,0,1
0:29.378,10576,N,0,0,0
0:29.436,10597,),0,0,1
0:29.611,10660,(,0,0,2
0:29.711,10696,t,0,0,0
0:29.797,10727,),0,0,2
0:30.350,10926,(,0,0,0
0:30.386,10939,p,0,0,0
0:30.425,10953,),0,0,0
0:30.492,10977,(,0,0,1
0:30.522,10988,N,0,0,0
0:30.578,11008,),0,0,1
0:30.767,11076,(,0,0,2
0:30.864,11111,t,0,0,0
0:30.956,11144,),0,0,2
0:31.439,11318,(,0,0,0
0:31.481,11333,p,0,0,0
0:31.517,11346,),0,0,0
0:31.589,11372,(,0,0,1
0:31.619,11383,N,0,0,0
0:31.678,11404,),0,0,1
0:31.850,11466,(,0,0,2
0:31.956,11504,t,0,0,0
0:32.047,11537,),0,0,2
0:32.425,11673,(,0,0,0
0:32.472,11690,p,0,0,0
0:32.511,11704,),0,0,0
0:32.583,11730,(,0,0,1
0:32.617,11742,N,0,0,0
0:32.675,11763,),0,0,1
0:32.853,11827,(,0,0,2
0:32.956,11864,t,0,0,0
0:33.047,11897,),0,0,2
0:33.486,12055,(,0,0,0
0:33.528,12070,p,0,0,0
0:33.564,12083,),0,0,0
0:33.631,12107,(,0,0,1
0:33.661,12118,N,0,0,0
0:33.717,12138,),0,0,1
0:33.881,12197,(,0,0,2
0:33.978,12232,t,0,0,0
0:34.069,12265,),0,0,2
0:34.675,12483,(,0,0,1
0:34.706,12494,N,0,0,0
0:34.761,12514,),0,0,1
0:34.892,12561,(,0,0,2
0:34.994,12598,t,0,0,0
0:35.086,12631,),0,0,2
0:35.725,12861,(,0,0,1
0:35.756,12872,N,0,0,0
0:35.817,12894,),0,0,1
0:35.986,12955,(,0,0,2
0:36.094,12994,t,0,0,0
0:36.194,13030,),0,0,2
0:36.586,13171,(,0,0,0
0:36.633,13188,p,0,0,0
0:36.672,13202,),0,0,0
0:36.742,13227,(,0,0,1
0:36.772,13238,N,0,0,0
0:36.831,13259,),0,0,1
0:36.997,13319,(,0,0,2
0:37.094,13354,t,0,0,0
0:37.192,13389,),0,0,2
0:37.769,13597,(,0,0,1
0:37.800,13608,N,0,0,0
0:37.856,13628,),0,0,1
0:38.033,13692,(,0,0,2
0:38.114,13721,t,0,0,0
0:38.203,13753,),0,0,2
0:38.650,13914,(,0,0,0
0:38.697,13931,p,0,0,0
0:38.731,13943,),0,0,0
0:38.803,13969,(,0,0,1
0:38.836,13981,N,0,0,0
0:38.892,14001,),0,0,1
0:39.069,14065,(,0,0,2
0:39.167,14100,t,0,0,0
0:39.256,14132,),0,0,2
0:39.725,14301,(,0,0,0
0:39.767,14316,p,0,0,0
0:39.800,14328,),0,0,0
0:39.872,14354,(,0,0,1
0:39.903,14365,N,0,0,0
0:39.958,14385,),0,0,1
0:40.125,14445,(,0,0,2
0:40.219,14479,t,0,0,0
0:40.308,14511,),0,0,2
0:40.661,14638,(,0,0,0
0:40.700,14652,p,0,0,0
0:40.736,14665,),0,0,0
0:40.803,14689,(,0,0,1
0:40.828,14698,N,0,0,0
0:40.872,14714,),0,0,1
0:41.017,14766,(,0,0,2
0:41.108,14799,t,0,0,0
0:41.197,14831,),0,0,2
0:41.775,15039,(,0,0,1
0:41.806,15050,N,0,0,0
0:41.864,15071,),0,0,1
0:42.056,15140,(,0,0,2
0:42.156,15176,t,0,0,0
0:42.256,15212,),0,0,2
0:42.914,15449,(,0,0,1
0:42.944,15460,N,0,0,0
0:43.000,15480,),0,0,1
0:43.172,15542,(,0,0,2
0:43.275,15579,t,0,0,0
0:43.369,15613,),0,0,2
0:43.822,15776,(,0,0,0
0:43.864,15791,p,0,0,0
0:43.894,15802,),0,0,0
0:43.956,15824,(,0,0,1
0:43.986,15835,N,0,0,0
0:44.039,15854,),0,0,1
0:44.183,15906,(,0,0,2
0:44.292,15945,t,0,0,0
0:44.389,15980,),0,0,2
0:44.714,16097,(,0,0,0
0:44.756,16112,p,0,0,0
0:44.794,16126,),0,0,0
0:44.867,16152,(,0,0,1
0:44.897,16163,N,0,0,0
0:44.958,16185,),0,0,1
0:45.131,16247,(,0,0,2
0:45.225,16281,t,0,0,0
0:45.311,16312,),0,0,2
0:45.708,16455,(,0,0,0
0:45.753,16471,p,0,0,0
0:45.786,16483,),0,0,0
0:45.861,16510,(,0,0,1
0:45.892,16521,N,0,0,0
0:45.947,16541,),0,0,1
0:46.125,16605,(,0,0,2
0:46.217,16638,t,0,0,0
0:46.303,16669,),0,0,2
0:46.917,16890,(,0,0,1
0:46.944,16900,N,0,0,0
0:46.994,16918,),0,0,1
0:47.164,16979,(,0,0,2
0:47.258,17013,t,0,0,0
0:47.347,17045,),0,0,2
0:47.856,17228,(,0,0,0
0:47.894,17242,p,0,0,0
0:47.925,17253,),0,0,0
0:47.997,17279,(,0,0,1
0:48.025,17289,N,0,0,0
0:48.086,17311,),0,0,1
0:48.267,17376,(,0,0,2
0:48.361,17410,t,0,0,0
0:48.450,17442,),0,0,2
0:48.825,17577,(,0,0,0
0:48.875,17595,p,0,0,0
0:48.911,17608,),0,0,0
0:48.986,17635,(,0,0,1
0:49.017,17646,N,0,0,0
0:49.075,17667,),0,0,1
0:49.261,17734,(,0,0,2
0:49.361,17770,t,0,0,0
0:49.458,17805,),0,0,2
0:49.858,17949,(,0,0,0
0:49.903,17965,p,0,0,0
0:49.939,17978,),0,0,0
0:50.006,18002,(,0,0,1
0:50.036,18013,N,0,0,0
0:50.086,18031,),0,0,1
0:50.250,18090,(,0,0,2
0:50.344,18124,t,0,0,0
0:50.436,18157,),0,0,2
0:51.064,18383,(,0,0,1
0:51.092,18393,N,0,0,0
0:51.147,18413,),0,0,1
0:51.328,18478,(,0,0,2
0:51.417,18510,t,0,0,0
0:51.503,18541,),0,0,2
0:51.961,18706,(,0,0,0
0:52.008,18723,p,0,0,0
0:52.042,18735,),0,0,0
0:52.114,18761,(,0,0,1
0:52.144,18772,N,0,0,0
0:52.203,18793,),0,0,1
0:52.372,18854,(,0,0,2
0:52.456,18884,t,0,0,0
0:52.539,18914,),0,0,2
0:52.908,19047,(,0,0,0
0:52.956,19064,p,0,0,0
0:52.989,19076,),0,0,0
0:53.061,19102,(,0,0,1
0:53.089,19112,N,0,0,0
0:53.144,19132,),0,0,1
0:53.328,19198,(,0,0,2
0:53.422,19232,t,0,0,0
0:53.517,19266,),0,0,2
0:54.136,19489,(,0,0,1
0:54.197,19511,N,0,0,0
0:54.256,19532,),0,0,1
0:54.436,19597,(,0,0,2
0:54.533,19632,t,0,0,0
0:54.625,19665,),0,0,2
0:55.306,19910,(,0,0,1
0:55.336,19921,N,0,0,0
0:55.394,19942,),0,0,1
0:55.578,20008,(,0,0,2
0:55.672,20042,t,0,0,0
0:55.764,20075,),0,0,2
0:56.394,20302,(,0,0,1
0:56.422,20312,N,0,0,0
0:56.483,20334,),0,0,1
0:56.669,20401,(,0,0,2
0:56.764,20435,t,0,0,0
0:56.858,20469,),0,0,2
0:57.222,20600,(,0,0,0
0:57.264,20615,p,0,0,0
0:57.300,20628,),0,0,0
0:57.372,20654,(,0,0,1
0:57.403,20665,N,0,0,0
0:57.461,20686,),0,0,1
0:57.633,20748,(,0,0,2
0:57.725,20781,t,0,0,0
0:57.808,20811,),0,0,2
0:58.375,21015,(,0,0,1
0:58.406,21026,N,0,0,0
0:58.458,21045,),0,0,1
0:58.622,21104,(,0,0,2
0:58.714,21137,t,0,0,0
0:58.800,21168,),0,0,2
0:59.381,21377,(,0,0,1
0:59.408,21387,N,0,0,0
0:59.467,21408,),0,0,1
0:59.644,21472,(,0,0,2
0:59.742,21507,t,0,0,0
0:59.839,21542,),0,0,2
1:00.286,21703,(,0,0,0
1:00.336,21721,p,0,0,0
1:00.372,21734,),0,0,0
1:00.444,21760,(,0,0,1
1:00.475,21771,N,0,0,0
1:00.536,21793,),0,0,1
1:00.719,21859,(,0,0,2
1:00.825,21897,t,0,0,0
1:00.922,21932,),0,0,2
1:01.314,22073,(,0,0,0
1:01.358,22089,p,0,0,0
1:01.394,22102,),0,0,0
1:01.467,22128,(,0,0,1
1:01.500,22140,N,0,0,0
1:01.556,22160,),0,0,1
1:01.733,22224,(,0,0,2
1:01.833,22260,t,0,0,0
1:01.922,22292,),0,0,2
1:02.461,22486,(,0,0,1
1:02.492,22497,N,0,0,0
1:02.547,22517,),0,0,1
1:02.719,22579,(,0,0,2
1:02.817,22614,t,0,0,0
1:02.908,22647,),0,0,2
1:03.436,22837,(,0,0,0
1:03.478,22852,p,0,0,0
1:03.517,22866,),0,0,0
1:03.583,22890,(,0,0,1
1:03.614,22901,N,0,0,0
1:03.675,22923,),0,0,1
1:03.842,22983,(,0,0,2
1:03.939,23018,t,0,0,0
1:04.031,23051,),0,0,2
1:04.422,23192,(,0,0,0
1:04.472,23210,p,0,0,0
1:04.506,23222,),0,0,0
1:04.572,23246,(,0,0,1
1:04.603,23257,N,0,0,0
1:04.661,23278,),0,0,1
1:04.822,23336,(,0,0,2
1:04.889,23360,t,0,0,0
1:04.967,23388,),0,0,2
1:05.447,23561,(,0,0,0
1:05.486,23575,p,0,0,0
1:05.528,23590,),0,0,0
1:05.592,23613,(,0,0,1
1:05.622,23624,N,0,0,0
1:05.681,23645,),0,0,1
1:05.856,23708,(,0,0,2
1:05.964,23747,t,0,0,0
1:06.067,23784,),0,0,2
1:06.575,23967,(,0,0,0
1:06.622,23984,p,0,0,0
1:06.658,23997,),0,0,0
1:06.728,24022,(,0,0,1
1:06.758,24033,N,0,0,0
1:06.817,24054,),0,0,1
1:07.000,24120,(,0,0,2
1:07.108,24159,t,0,0,0
1:07.203,24193,),0,0,2
1:07.858,24429,(,0,0,1
1:07.889,24440,N,0,0,0
1:07.947,24461,),0,0,1
1:08.100,24516,(,0,0,2
1:08.203,24553,t,0,0,0
1:08.294,24586,),0,0,2
1:08.683,24726,(,0,0,0
1:08.725,24741,p,0,0,0
1:08.764,24755,),0,0,0
1:08.833,24780,(,0,0,1
1:08.864,24791,N,0,0,0
1:08.919,24811,),0,0,1
1:09.081,24869,(,0,0,2
1:09.175,24903,t,0,0,0
1:09.264,24935,),0,0,2
1:09.628,25066,(,0,0,0
1:09.672,25082,p,0,0,0
1:09.714,25097,),0,0,0
1:09.781,25121,(,0,0,1
1:09.811,25132,N,0,0,0
1:09.867,25152,),0,0,1
1:10.031,25211,(,0,0,2
1:10.139,25250,t,0,0,0
1:10.233,25284,),0,0,2
1:10.722,25460,(,0,0,0
1:10.761,25474,p,0,0,0
1:10.797,25487,),0,0,0
1:10.850,25506,(,0,0,1
1:10.875,25515,N,0,0,0
1:10.922,25532,),0,0,1
1:11.078,25588,(,0,0,2
1:11.175,25623,t,0,0,0
1:11.264,25655,),0,0,2
1:11.764,25835,(,0,0,0
1:11.806,25850,p,0,0,0
1:11.839,25862,),0,0,0
1:11.903,25885,(,0,0,1
1:11.933,25896,N,0,0,0
1:11.992,25917,),0,0,1
1:12.156,25976,(,0,0,2
1:12.269,26017,t,0,0,0
1:12.367,26052,),0,0,2
1:12.744,26188,(,0,0,0
1:12.786,26203,p,0,0,0
1:12.822,26216,),0,0,0
1:12.897,26243,(,0,0,1
1:12.928,26254,N,0,0,0
1:12.989,26276,),0,0,1
1:13.169,26341,(,0,0,2
1:13.269,26377,t,0,0,0
1:13.369,26413,),0,0,2
1:13.811,26572,(,0,0,0
1:13.856,26588,p,0,0,0
1:13.894,26602,),0,0,0
1:13.961,26626,(,0,0,1
1:13.992,26637,N,0,0,0
1:14.044,26656,),0,0,1
1:14.206,26714,(,0,0,2
1:14.314,26753,t,0,0,0
1:14.400,26784,),0,0,2
1:14.889,26960,(,0,0,0
1:14.936,26977,p,0,0,0
1:14.975,26991,),0,0,0
1:15.047,27017,(,0,0,1
1:15.075,27027,N,0,0,0
1:15.131,27047,),0,0,1
1:15.294,27106,(,0,0,2
1:15.389,27140,t,0,0,0
1:15.481,27173,),0,0,2
1:15.922,27332,(,0,0,0
1:15.967,27348,p,0,0,0
1:16.003,27361,),0,0,0
1:16.067,27384,(,0,0,1
1:16.094,27394,N,0,0,0
1:16.150,27414,),0,0,1
1:16.314,27473,(,0,0,2
1:16.406,27506,t,0,0,0
1:16.494,27538,),0,0,2
1:16.836,27661,(,0,0,0
1:16.869,27673,p,0,0,0
1:16.906,27686,),0,0,0
1:16.967,27708,(,0,0,1
1:16.997,27719,N,0,0,0
1:17.056,27740,),0,0,1
1:17.228,27802,(,0,0,2
1:17.333,27840,t,0,0,0
1:17.428,27874,),0,0,2
1:18.081,28109,(,0,0,1
1:18.111,28120,N,0,0,0
1:18.169,28141,),0,0,1
1:18.350,28206,(,0,0,2
1:18.453,28243,t,0,0,0
1:18.547,28277,),0,0,2
1:19.208,28515,(,0,0,1
1:19.239,28526,N,0,0,0
1:19.294,28546,),0,0,1
1:19.478,28612,(,0,0,2
1:19.583,28650,t,0,0,0
1:19.672,28682,),0,0,2
1:20.125,28845,(,0,0,0
1:20.172,28862,p,0,0,0
1:20.211,28876,),0,0,0
1:20.283,28902,(,0,0,1
1:20.314,28913,N,0,0,0
1:20.375,28935,),0,0,1
1:20.542,28995,(,0,0,2
1:20.636,29029,t,0,0,0
1:20.728,29062,),0,0,2
1:21.347,29285,(,0,0,1
1:21.378,29296,N,0,0,0
1:21.431,29315,),0,0,1
1:21.606,29378,(,0,0,2
1:21.697,29411,t,0,0,0
1:21.789,29444,),0,0,2
1:22.417,29670,(,0,0,1
1:22.444,29680,N,0,0,0
1:22.500,29700,),0,0,1
1:22.669,29761,(,0,0,2
1:22.761,29794,t,0,0,0
1:22.842,29823,),0,0,2
1:23.292,29985,(,0,0,0
1:23.336,30001,p,0,0,0
1:23.372,30014,),0,0,0
1:23.442,30039,(,0,0,1
1:23.469,30049,N,0,0,0
1:23.528,30070,),0,0,1
1:23.711,30136,(,0,0,2
1:23.806,30170,t,0,0,0
1:23.897,30203,),0,0,2
1:24.289,30344,(,0,0,0
1:24.342,30363,p,0,0,0
1:24.375,30375,),0,0,0
1:24.453,30403,(,0,0,1
1:24.483,30414,N,0,0,0
1:24.544,30436,),0,0,1
1:24.725,30501,(,0,0,2
1:24.839,30542,t,0,0,0
1:24.936,30577,),0,0,2
1:25.306,30710,(,0,0,0
1:25.350,30726,p,0,0,0
1:25.389,30740,),0,0,0
1:25.464,30767,(,0,0,1
1:25.494,30778,N,0,0,0
1:25.553,30799,),0,0,1
1:25.733,30864,(,0,0,2
1:25.833,30900,t,0,0,0
1:25.925,30933,),0,0,2
1:26.306,31070,(,0,0,0
1:26.347,31085,p,0,0,0
1:26.389,31100,),0,0,0
1:26.456,31124,(,0,0,1
1:26.486,31135,N,0,0,0
1:26.544,31156,),0,0,1
1:26.717,31218,(,0,0,2
1:26.817,31254,t,0,0,0
1:26.908,31287,),0,0,2
1:27.336,31441,(,0,0,0
1:27.378,31456,p,0,0,0
1:27.414,31469,),0,0,0
1:27.483,31494,(,0,0,1
1:27.514,31505,N,0,0,0
1:27.569,31525,),0,0,1
1:27.725,31581,(,0,0,2
1:27.819,31615,t,0,0,0
1:27.908,31647,),0,0,2
1:28.467,31848,(,0,0,1
1:28.497,31859,N,0,0,0
1:28.553,31879,),0,0,1
1:28.725,31941,(,0,0,2
1:28.806,31970,t,0,0,0
1:28.878,31996,),0,0,2
1:29.333,32160,(,0,0,0
1:29.381,32177,p,0,0,0
1:29.414,32189,),0,0,0
1:29.483,32214,(,0,0,1
1:29.514,32225,N,0,0,0
1:29.569,32245,),0,0,1
1:29.744,32308,(,0,0,2
1:29.844,32344,t,0,0,0
1:29.936,32377,),0,0,2
1:30.567,32604,(,0,0,1
1:30.597,32615,N,0,0,0
1:30.653,32635,),0,0,1
1:30.839,32702,(,0,0,2
1:30.933,32736,t,0,0,0
1:31.028,32770,),0,0,2
1:31.481,32933,(,0,0,0
1:31.531,32951,p,0,0,0
1:31.567,32964,),0,0,0
1:31.639,32990,(,0,0,1
1:31.669,33001,N,0,0,0
1:31.731,33023,),0,0,1
1:31.911,33088,(,0,0,2
1:32.008,33123,t,0,0,0
1:32.097,33155,),0,0,2
1:32.436,33277,(,0,0,0
1:32.478,33292,p,0,0,0
1:32.514,33305,),0,0,0
1:32.586,33331,(,0,0,1
1:32.617,33342,N,0,0,0
1:32.672,33362,),0,0,1
1:32.853,33427,(,0,0,2
1:32.944,33460,t,0,0,0
1:33.036,33493,),0,0,2
1:33.600,33696,(,0,0,1
1:33.631,33707,N,0,0,0
1:33.686,33727,),0,0,1
1:33.856,33788,(,0,0,2
1:33.947,33821,t,0,0,0
1:34.036,33853,),0,0,2
1:34.667,34080,(,0,0,1
1:34.694,34090,N,0,0,0
1:34.747,34109,),0,0,1
1:34.867,34152,(,0,0,2
1:34.964,34187,t,0,0,0
1:35.053,34219,),0,0,2
1:35.600,34416,(,0,0,0
1:35.642,34431,p,0,0,0
1:35.681,34445,),0,0,0
1:35.747,34469,(,0,0,1
1:35.778,34480,N,0,0,0
1:35.839,34502,),0,0,1
1:36.019,34567,(,0,0,2
1:36.128,34606,t,0,0,0
1:36.228,34642,),0,0,2
1:36.647,34793,(,0,0,0
1:36.694,34810,p,0,0,0
1:36.733,34824,),0,0,0
1:36.803,34849,(,0,0,1
1:36.833,34860,N,0,0,0
1:36.892,34881,),0,0,1
1:37.064,34943,(,0,0,2
1:37.169,34981,t,0,0,0
1:37.267,35016,),0,0,2
1:37.692,35169,(,0,0,0
1:37.731,35183,p,0,0,0
1:37.769,35197,),0,0,0
1:37.833,35220,(,0,0,1
1:37.861,35230,N,0,0,0
1:37.917,35250,),0,0,1
1:38.069,35305,(,0,0,2
1:38.164,35339,t,0,0,0
1:38.258,35373,),0,0,2
1:38.775,35559,(,0,0,0
1:38.822,35576,p,0,0,0
1:38.864,35591,),0,0,0
1:38.931,35615,(,0,0,1
1:38.961,35626,N,0,0,0
1:39.019,35647,),0,0,1
1:39.194,35710,(,0,0,2
1:39.297,35747,t,0,0,0
1:39.383,35778,),0,0,2
1:39.844,35944,(,0,0,0
1:39.889,35960,p,0,0,0
1:39.922,35972,),0,0,0
1:39.992,35997,(,0,0,1
1:40.022,36008,N,0,0,0
1:40.078,36028,),0,0,1
1:40.247,36089,(,0,0,2
1:40.339,36122,t,0,0,0
1:40.428,36154,),0,0,2
1:40.797,36287,(,0,0,0
1:40.831,36299,p,0,0,0
1:40.861,36310,),0,0,0
1:40.914,36329,(,0,0,1
1:40.944,36340,N,0,0,0
1:41.000,36360,),0,0,1
1:41.169,36421,(,0,0,2
1:41.261,36454,t,0,0,0
1:41.353,36487,),0,0,2
1:41.778,36640,(,0,0,0
1:41.822,36656,p,0,0,0
1:41.861,36670,),0,0,0
1:41.931,36695,(,0,0,1
1:41.961,36706,N,0,0,0
1:42.014,36725,),0,0,1
1:42.194,36790,(,0,0,2
1:42.289,36824,t,0,0,0
1:42.383,36858,),0,0,2
1:43.058,37101,(,0,0,1
1:43.092,37113,N,0,0,0
1:43.147,37133,),0,0,1
1:43.336,37201,(,0,0,2
1:43.442,37239,t,0,0,0
1:43.536,37273,),0,0,2
1:44.019,37447,(,0,0,0
1:44.056,37460,p,0,0,0
1:44.086,37471,),0,0,0
1:44.144,37492,(,0,0,1
1:44.175,37503,N,0,0,0
1:44.233,37524,),0,0,1
1:44.417,37590,(,0,0,2
1:44.511,37624,t,0,0,0
1:44.603,37657,),0,0,2
1:45.122,37844,(,0,0,1
1:45.153,37855,N,0,0,0
1:45.208,37875,),0,0,1
1:45.375,37935,(,0,0,2
1:45.469,37969,t,0,0,0
1:45.561,38002,),0,0,2
1:46.111,38200,(,0,0,1
1:46.144,38212,N,0,0,0
1:46.200,38232,),0,0,1
1:46.378,38296,(,0,0,2
1:46.472,38330,t,0,0,0
1:46.558,38361,),0,0,2
1:47.108,38559,(,0,0,1
1:47.139,38570,N,0,0,0
1:47.197,38591,),0,0,1
1:47.372,38654,(,0,0,2
1:47.469,38689,t,0,0,0
1:47.558,38721,),0,0,2
1:48.197,38951,(,0,0,1
1:48.228,38962,N,0,0,0
1:48.283,38982,),0,0,1
1:48.464,39047,(,0,0,2
1:48.556,39080,t,0,0,0
1:48.650,39114,),0,0,2
1:49.058,39261,(,0,0,0
1:49.106,39278,p,0,0,0
1:49.144,39292,),0,0,0
1:49.208,39315,(,0,0,1
1:49.239,39326,N,0,0,0
1:49.294,39346,),0,0,1
1:49.469,39409,(,0,0,2
1:49.567,39444,t,0,0,0
1:49.661,39478,),0,0,2
1:50.067,39624,(,0,0,0
1:50.106,39638,p,0,0,0
1:50.142,39651,),0,0,0
1:50.208,39675,(,0,0,1
1:50.239,39686,N,0,0,0
1:50.294,39706,),0,0,1
1:50.481,39773,(,0,0,2
1:50.578,39808,t,0,0,0
1:50.669,39841,),0,0,2
1:51.169,40021,(,0,0,0
1:51.211,40036,p,0,0,0
1:51.247,40049,),0,0,0
1:51.314,40073,(,0,0,1
1:51.344,40084,N,0,0,0
1:51.397,40103,),0,0,1
1:51.569,40165,(,0,0,2
1:51.667,40200,t,0,0,0
1:51.756,40232,),0,0,2
1:52.217,40398,(,0,0,0
1:52.258,40413,p,0,0,0
1:52.294,40426,),0,0,0
1:52.358,40449,(,0,0,1
1:52.386,40459,N,0,0,0
1:52.442,40479,),0,0,1
1:52.600,40536,(,0,0,2
1:52.703,40573,t,0,0,0
1:52.792,40605,),0,0,2
1:53.133,40728,(,0,0,0
1:53.175,40743,p,0,0,0
1:53.214,40757,),0,0,0
1:53.292,40785,(,0,0,1
1:53.322,40796,N,0,0,0
1:53.381,40817,),0,0,1
1:53.569,40885,(,0,0,2
1:53.667,40920,t,0,0,0
1:53.758,40953,),0,0,2
1:54.222,41120,(,0,0,0
1:54.272,41138,p,0,0,0
1:54.308,41151,),0,0,0
1:54.386,41179,(,0,0,1
1:54.417,41190,N,0,0,0
1:54.472,41210,),0,0,1
1:54.653,41275,(,0,0,2
1:54.756,41312,t,0,0,0
1:54.850,41346,),0,0,2
1:55.342,41523,(,0,0,0
1:55.386,41539,p,0,0,0
1:55.422,41552,),0,0,0
1:55.492,41577,(,0,0,1
1:55.522,41588,N,0,0,0
1:55.578,41608,),0,0,1
1:55.750,41670,(,0,0,2
1:55.847,41705,t,0,0,0
1:55.936,41737,),0,0,2
1:56.339,41882,(,0,0,0
1:56.383,41898,p,0,0,0
1:56.419,41911,),0,0,0
1:56.481,41933,(,0,0,1
1:56.508,41943,N,0,0,0
1:56.564,41963,),0,0,1
1:56.733,42024,(,0,0,2
1:56.833,42060,t,0,0,0
1:56.928,42094,),0,0,2
1:57.283,42222,(,0,0,0
1:57.325,42237,p,0,0,0
1:57.364,42251,),0,0,0
1:57.433,42276,(,0,0,1
1:57.464,42287,N,0,0,0
1:57.519,42307,),0,0,1
1:57.692,42369,(,0,0,2
1:57.789,42404,t,0,0,0
1:57.883,42438,),0,0,2
1:58.364,42611,(,0,0,0
1:58.406,42626,p,0,0,0
1:58.436,42637,),0,0,0
1:58.506,42662,(,0,0,1
1:58.533,42672,N,0,0,0
1:58.586,42691,),0,0,1
1:58.769,42757,(,0,0,2
1:58.842,42783,t,0,0,0
1:58.917,42810,),0,0,2
1:59.472,43010,(,0,0,1
1:59.503,43021,N,0,0,0
1:59.525,43029,),0,0,1
1:59.742,43107,(,0,0,2
1:59.842,43143,t,0,0,0
1:59.939,43178,),0,0,2
2:00.336,43321,(,0,0,0
2:00.381,43337,p,0,0,0
2:00.422,43352,),0,0,0
2:00.500,43380,(,0,0,1
2:00.531,43391,N,0,0,0
2:00.592,43413,),0,0,1
2:00.792,43485,(,0,0,2
2:00.892,43521,t,0,0,0
2:00.981,43553,),0,0,2
2:01.347,43685,(,0,0,0
2:01.397,43703,p,0,0,0
2:01.433,43716,),0,0,0
2:01.514,43745,(,0,0,1
2:01.544,43756,N,0,0,0
2:01.600,43776,),0,0,1
2:01.783,43842,(,0,0,2
2:01.878,43876,t,0,0,0
2:01.964,43907,),0,0,2
2:02.347,44045,(,0,0,0
2:02.392,44061,p,0,0,0
2:02.431,44075,),0,0,0
2:02.503,44101,(,0,0,1
2:02.533,44112,N,0,0,0
2:02.589,44132,),0,0,1
2:02.761,44194,(,0,0,2
2:02.853,44227,t,0,0,0
2:02.939,44258,),0,0,2
2:03.497,44459,(,0,0,1
2:03.528,44470,N,0,0,0
2:03.581,44489,),0,0,1
2:03.739,44546,(,0,0,2
2:03.833,44580,t,0,0,0
2:03.919,44611,),0,0,2
2:04.256,44732,(,0,0,0
2:04.297,44747,p,0,0,0
2:04.339,44762,),0,0,0
2:04.408,44787,(,0,0,1
2:04.439,44798,N,0,0,0
2:04.492,44817,),0,0,1
2:04.656,44876,(,0,0,2
2:04.753,44911,t,0,0,0
2:04.839,44942,),0,0,2
2:05.386,45139,(,0,0,1
2:05.417,45150,N,0,0,0
2:05.472,45170,),0,0,1
2:05.647,45233,(,0,0,2
2:05.747,45269,t,0,0,0
2:05.842,45303,),0,0,2
2:06.500,45540,(,0,0,1
2:06.531,45551,N,0,0,0
2:06.586,45571,),0,0,1
2:06.761,45634,(,0,0,2
2:06.864,45671,t,0,0,0
2:06.956,45704,),0,0,2
2:07.503,45901,(,0,0,0
2:07.550,45918,p,0,0,0
2:07.583,45930,),0,0,0
2:07.661,45958,(,0,0,1
2:07.692,45969,N,0,0,0
2:07.750,45990,),0,0,1
2:07.933,46056,(,0,0,2
2:08.025,46089,t,0,0,0
2:08.108,46119,),0,0,2
2:08.517,46266,(,0,0,0
2:08.561,46282,p,0,0,0
2:08.600,46296,),0,0,0
2:08.669,46321,(,0,0,1
2:08.703,46333,N,0,0,0
2:08.758,46353,),0,0,1
2:08.933,46416,(,0,0,2
2:09.028,46450,t,0,0,0
2:09.111,46480,),0,0,2
2:09.550,46638,(,0,0,0
2:09.594,46654,p,0,0,0
2:09.636,46669,),0,0,0
2:09.697,46691,(,0,0,1
2:09.725,46701,N,0,0,0
2:09.778,46720,),0,0,1
2:09.942,46779,(,0,0,2
2:10.036,46813,t,0,0,0
2:10.128,46846,),0,0,2
2:10.614,47021,(,0,0,0
2:10.658,47037,p,0,0,0
2:10.692,47049,),0,0,0
2:10.750,47070,(,0,0,1
2:10.778,47080,N,0,0,0
2:10.822,47096,),0,0,1
2:10.958,47145,(,0,0,2
2:11.061,47182,t,0,0,0
2:11.156,47216,),0,0,2
2:11.675,47403,(,0,0,0
2:11.722,47420,p,0,0,0
2:11.758,47433,),0,0,0
2:11.831,47459,(,0,0,1
2:11.861,47470,N,0,0,0
2:11.922,47492,),0,0,1
2:12.119,47563,(,0,0,2
2:12.219,47599,t,0,0,0
2:12.317,47634,),0,0,2
2:12.697,47771,(,0,0,0
2:12.744,47788,p,0,0,0
2:12.783,47802,),0,0,0
2:12.858,47829,(,0,0,1
2:12.889,47840,N,0,0,0
2:12.947,47861,),0,0,1
2:13.131,47927,(,0,0,2
2:13.225,47961,t,0,0,0
2:13.317,47994,),0,0,2
2:13.747,48149,(,0,0,0
2:13.792,48165,p,0,0,0
2:13.828,48178,),0,0,0
2:13.892,48201,(,0,0,1
2:13.922,48212,N,0,0,0
2:13.978,48232,),0,0,1
2:14.133,48288,(,0,0,2
2:14.233,48324,t,0,0,0
2:14.328,48358,),0,0,2
2:14.992,48597,(,0,0,1
2:15.022,48608,N,0,0,0
2:15.081,48629,),0,0,1
2:15.250,48690,(,0,0,2
2:15.342,48723,t,0,0,0
2:15.425,48753,),0,0,2
2:15.911,48928,(,0,0,0
2:15.953,48943,p,0,0,0
2:15.986,48955,),0,0,0
2:16.053,48979,(,0,0,1
2:16.081,48989,N,0,0,0
2:16.136,49009,),0,0,1
2:16.297,49067,(,0,0,2
2:16.386,49099,t,0,0,0
2:16.475,49131,),0,0,2
2:16.844,49264,(,0,0,0
2:16.878,49276,p,0,0,0
2:16.908,49287,),0,0,0
2:16.967,49308,(,0,0,1
2:16.994,49318,N,0,0,0
2:17.053,49339,),0,0,1
2:17.219,49399,(,0,0,2
2:17.322,49436,t,0,0,0
2:17.419,49471,),0,0,2
2:17.858,49629,(,0,0,0
2:17.894,49642,p,0,0,0
2:17.936,49657,),0,0,0
2:18.006,49682,(,0,0,1
2:18.039,49694,N,0,0,0
2:18.097,49715,),0,0,1
2:18.289,49784,(,0,0,2
2:18.392,49821,t,0,0,0
2:18.483,49854,),0,0,2
2:18.992,50037,(,0,0,0
2:19.036,50053,p,0,0,0
2:19.075,50067,),0,0,0
2:19.147,50093,(,0,0,1
2:19.181,50105,N,0,0,0
2:19.236,50125,),0,0,1
2:19.425,50193,(,0,0,2
2:19.522,50228,t,0,0,0
2:19.614,50261,),0,0,2
2:20.086,50431,(,0,0,0
2:20.122,50444,p,0,0,0
2:20.156,50456,),0,0,0
2:20.225,50481,(,0,0,1
2:20.256,50492,N,0,0,0
2:20.311,50512,),0,0,1
2:20.483,50574,(,0,0,2
2:20.578,50608,t,0,0,0
2:20.669,50641,),0,0,2
2:21.050,50778,(,0,0,0
2:21.092,50793,p,0,0,0
2:21.131,50807,),0,0,0
2:21.200,50832,(,0,0,1
2:21.228,50842,N,0,0,0
2:21.283,50862,),0,0,1
2:21.458,50925,(,0,0,2
2:21.553,50959,t,0,0,0
2:21.644,50992,),0,0,2
2:22.019,51127,(,0,0,0
2:22.061,51142,p,0,0,0
2:22.100,51156,),0,0,0
2:22.172,51182,(,0,0,1
2:22.203,51193,N,0,0,0
2:22.258,51213,),0,0,1
2:22.419,51271,(,0,0,2
2:22.511,51304,t,0,0,0
2:22.600,51336,),0,0,2
2:23.003,51481,(,0,0,0
2:23.044,51496,p,0,0,0
2:23.081,51509,),0,0,0
2:23.147,51533,(,0,0,1
2:23.175,51543,N,0,0,0
2:23.228,51562,),0,0,1
2:23.394,51622,(,0,0,2
2:23.494,51658,t,0,0,0
2:23.589,51692,),0,0,2
2:24.089,51872,(,0,0,0
2:24.128,51886,p,0,0,0
2:24.167,51900,),0,0,0
2:24.242,51927,(,0,0,1
2:24.272,51938,N,0,0,0
2:24.331,51959,),0,0,1
2:24.519,52027,(,0,0,2
2:24.617,52062,t,0,0,0
2:24.708,52095,),0,0,2
2:25.083,52230,(,0,0,0
2:25.133,52248,p,0,0,0
2:25.169,52261,),0,0,0
2:25.244,52288,(,0,0,1
2:25.278,52300,N,0,0,0
2:25.336,52321,),0,0,1
2:25.528,52390,(,0,0,2
2:25.617,52422,t,0,0,0
2:25.708,52455,),0,0,2
2:26.139,52610,(,0,0,0
2:26.181,52625,p,0,0,0
2:26.219,52639,),0,0,0
2:26.294,52666,(,0,0,1
2:26.325,52677,N,0,0,0
2:26.381,52697,),0,0,1
2:26.553,52759,(,0,0,2
2:26.647,52793,t,0,0,0
2:26.736,52825,),0,0,2
2:27.419,53071,(,0,0,1
2:27.447,53081,N,0,0,0
2:27.500,53100,),0,0,1
2:27.669,53161,(,0,0,2
2:27.758,53193,t,0,0,0
2:27.844,53224,),0,0,2
2:28.353,53407,(,0,0,0
2:28.394,53422,p,0,0,0
2:28.431,53435,),0,0,0
2:28.497,53459,(,0,0,1
2:28.528,53470,N,0,0,0
2:28.583,53490,),0,0,1
2:28.767,53556,(,0,0,2
2:28.842,53583,t,0,0,0
2:28.919,53611,),0,0,2
2:29.553,53839,(,0,0,1
2:29.583,53850,N,0,0,0
2:29.642,53871,),0,0,1
2:29.831,53939,(,0,0,2
2:29.931,53975,t,0,0,0
2:30.022,54008,),0,0,2
2:30.683,54246,(,0,0,1
2:30.714,54257,N,0,0,0
2:30.775,54279,),0,0,1
2:30.947,54341,(,0,0,2
2:31.047,54377,t,0,0,0
2:31.136,54409,),0,0,2
2:31.664,54599,(,0,0,0
2:31.711,54616,p,0,0,0
2:31.744,54628,),0,0,0
2:31.808,54651,(,0,0,1
2:31.839,54662,N,0,0,0
2:31.892,54681,),0,0,1
2:32.044,54736,(,0,0,2
2:32.133,54768,t,0,0,0
2:32.228,54802,),0,0,2
2:32.797,55007,(,0,0,1
2:32.828,55018,N,0,0,0
2:32.886,55039,),0,0,1
2:33.058,55101,(,0,0,2
2:33.161,55138,t,0,0,0
2:33.250,55170,),0,0,2
2:33.847,55385,(,0,0,1
2:33.878,55396,N,0,0,0
2:33.933,55416,),0,0,1
2:34.108,55479,(,0,0,2
2:34.203,55513,t,0,0,0
2:34.292,55545,),0,0,2
2:34.881,55757,(,0,0,1
2:34.908,55767,N,0,0,0
2:34.958,55785,),0,0,1
2:35.136,55849,(,0,0,2
2:35.233,55884,t,0,0,0
2:35.328,55918,),0,0,2
2:35.881,56117,(,0,0,0
2:35.922,56132,p,0,0,0
2:35.964,56147,),0,0,0
2:36.039,56174,(,0,0,1
2:36.067,56184,N,0,0,0
2:36.128,56206,),0,0,1
2:36.311,56272,(,0,0,2
2:36.408,56307,t,0,0,0
2:36.500,56340,),0,0,2
2:37.092,56553,(,0,0,1
2:37.122,56564,N,0,0,0
2:37.178,56584,),0,0,1
2:37.350,56646,(,0,0,2
2:37.442,56679,t,0,0,0
2:37.533,56712,),0,0,2
2:38.125,56925,(,0,0,1
2:38.156,56936,N,0,0,0
2:38.211,56956,),0,0,1
2:38.397,57023,(,0,0,2
2:38.500,57060,t,0,0,0
2:38.589,57092,),0,0,2
2:39.028,57250,(,0,0,0
2:39.072,57266,p,0,0,0
2:39.106,57278,),0,0,0
2:39.172,57302,(,0,0,1
2:39.203,57313,N,0,0,0
2:39.258,57333,),0,0,1
2:39.439,57398,(,0,0,2
2:39.531,57431,t,0,0,0
2:39.622,57464,),0,0,2
2:40.058,57621,(,0,0,0
2:40.100,57636,p,0,0,0
2:40.136,57649,),0,0,0
2:40.211,57676,(,0,0,1
2:40.239,57686,N,0,0,0
2:40.297,57707,),0,0,1
2:40.472,57770,(,0,0,2
2:40.558,57801,t,0,0,0
2:40.647,57833,),0,0,2
2:40.936,57937,(,0,0,0
2:40.983,57954,p,0,0,0
2:41.022,57968,),0,0,0
2:41.094,57994,(,0,0,1
2:41.125,58005,N,0,0,0
2:41.181,58025,),0,0,1
2:41.353,58087,(,0,0,2
2:41.447,58121,t,0,0,0
2:41.539,58154,),0,0,2
2:42.133,58368,(,0,0,1
2:42.167,58380,N,0,0,0
2:42.225,58401,),0,0,1
2:42.408,58467,(,0,0,2
2:42.514,58505,t,0,0,0
2:42.606,58538,),0,0,2
2:43.275,58779,(,0,0,1
2:43.306,58790,N,0,0,0
2:43.361,58810,),0,0,1
2:43.542,58875,(,0,0,2
2:43.639,58910,t,0,0,0
2:43.733,58944,),0,0,2
2:44.189,59108,(,0,0,0
2:44.233,59124,p,0,0,0
2:44.264,59135,),0,0,0
2:44.331,59159,(,0,0,1
2:44.358,59169,N,0,0,0
2:44.414,59189,),0,0,1
2:44.569,59245,(,0,0,2
2:44.678,59284,t,0,0,0
2:44.775,59319,),0,0,2
2:45.139,59450,(,0,0,0
2:45.181,59465,p,0,0,0
2:45.219,59479,),0,0,0
2:45.286,59503,(,0,0,1
2:45.317,59514,N,0,0,0
2:45.372,59534,),0,0,1
2:45.542,59595,(,0,0,2
2:45.642,59631,t,0,0,0
2:45.736,59665,),0,0,2
2:46.281,59861,(,0,0,1
2:46.311,59872,N,0,0,0
2:46.369,59893,),0,0,1
2:46.539,59954,(,0,0,2
2:46.633,59988,t,0,0,0
2:46.722,60020,),0,0,2
2:47.289,60224,(,0,0,1
2:47.319,60235,N,0,0,0
2:47.381,60257,),0,0,1
2:47.556,60320,(,0,0,2
2:47.650,60354,t,0,0,0
2:47.742,60387,),0,0,2
2:48.142,60531,(,0,0,0
2:48.192,60549,p,0,0,0
2:48.228,60562,),0,0,0
2:48.300,60588,(,0,0,1
2:48.328,60598,N,0,0,0
2:48.389,60620,),0,0,1
2:48.553,60679,(,0,0,2
2:48.650,60714,t,0,0,0
2:48.742,60747,),0,0,2
2:49.061,60862,(,0,0,0
2:49.103,60877,p,0,0,0
2:49.142,60891,),0,0,0
2:49.217,60918,(,0,0,1
2:49.247,60929,N,0,0,0
2:49.306,60950,),0,0,1
2:49.492,61017,(,0,0,2
2:49.594,61054,t,0,0,0
2:49.692,61089,),0,0,2
2:50.106,61238,(,0,0,0
2:50.139,61250,p,0,0,0
2:50.181,61265,),0,0,0
2:50.253,61291,(,0,0,1
2:50.283,61302,N,0,0,0
2:50.339,61322,),0,0,1
2:50.511,61384,(,0,0,2
2:50.606,61418,t,0,0,0
2:50.694,61450,),0,0,2
2:51.297,61667,(,0,0,1
2:51.325,61677,N,0,0,0
2:51.350,61686,),0,0,1
2:51.539,61754,(,0,0,2
2:51.636,61789,t,0,0,0
2:51.725,61821,),0,0,2
2:52.161,61978,(,0,0,0
2:52.200,61992,p,0,0,0
2:52.236,62005,),0,0,0
2:52.303,62029,(,0,0,1
2:52.333,62040,N,0,0,0
2:52.392,62061,),0,0,1
2:52.564,62123,(,0,0,2
2:52.658,62157,t,0,0,0
2:52.744,62188,),0,0,2
2:53.039,62294,(,0,0,0
2:53.081,62309,p,0,0,0
2:53.119,62323,),0,0,0
2:53.192,62349,(,0,0,1
2:53.219,62359,N,0,0,0
2:53.278,62380,),0,0,1
2:53.464,62447,(,0,0,2
2:53.561,62482,t,0,0,0
2:53.653,62515,),0,0,2
2:54.175,62703,(,0,0,0
2:54.222,62720,p,0,0,0
2:54.256,62732,),0,0,0
2:54.333,62760,(,0,0,1
2:54.364,62771,N,0,0,0
2:54.422,62792,),0,0,1
2:54.597,62855,(,0,0,2
2:54.694,62890,t,0,0,0
2:54.786,62923,),0,0,2
2:55.317,63114,(,0,0,0
2:55.361,63130,p,0,0,0
2:55.400,63144,),0,0,0
2:55.469,63169,(,0,0,1
2:55.500,63180,N,0,0,0
2:55.556,63200,),0,0,1
2:55.731,63263,(,0,0,2
2:55.822,63296,t,0,0,0
2:55.911,63328,),0,0,2
2:56.344,63484,(,0,0,0
2:56.394,63502,p,0,0,0
2:56.428,63514,),0,0,0
2:56.500,63540,(,0,0,1
2:56.531,63551,N,0,0,0
2:56.589,63572,),0,0,1
2:56.761,63634,(,0,0,2
2:56.867,63672,t,0,0,0
2:56.964,63707,),0,0,2
2:57.322,63836,(,0,0,0
2:57.367,63852,p,0,0,0
2:57.403,63865,),0,0,0
2:57.467,63888,(,0,0,1
2:57.497,63899,N,0,0,0
2:57.550,63918,),0,0,1
2:57.717,63978,(,0,0,2
2:57.814,64013,t,0,0,0
2:57.903,64045,),0,0,2
2:58.319,64195,(,0,0,0
2:58.361,64210,p,0,0,0
2:58.394,64222,),0,0,0
2:58.458,64245,(,0,0,1
2:58.489,64256,N,0,0,0
2:58.542,64275,),0,0,1
2:58.711,64336,(,0,0,2
2:58.797,64367,t,0,0,0
2:58.867,64392,),0,0,2
2:59.517,64626,(,0,0,1
2:59.550,64638,N,0,0,0
2:59.608,64659,),0,0,1
2:59.794,64726,(,0,0,2
2:59.883,64758,t,0,0,0
2:59.972,64790,),0,0,2
3:00.639,65030,(,0,0,1
3:00.669,65041,N,0,0,0
3:00.728,65062,),0,0,1
3:00.894,65122,(,0,0,2
3:01.008,65163,t,0,0,0
3:01.100,65196,),0,0,2
3:01.528,65350,(,0,0,0
3:01.572,65366,p,0,0,0
3:01.611,65380,),0,0,0
3:01.681,65405,(,0,0,1
3:01.711,65416,N,0,0,0
3:01.767,65436,),0,0,1
3:01.928,65494,(,0,0,2
3:02.022,65528,t,0,0,0
3:02.103,65557,),0,0,2
3:02.578,65728,(,0,0,0
3:02.617,65742,p,0,0,0
3:02.653,65755,),0,0,0
3:02.719,65779,(,0,0,1
3:02.750,65790,N,0,0,0
3:02.803,65809,),0,0,1
3:02.972,65870,(,0,0,2
3:03.064,65903,t,0,0,0
3:03.156,65936,),0,0,2
3:03.639,66110,(,0,0,0
3:03.683,66126,p,0,0,0
3:03.722,66140,),0,0,0
3:03.789,66164,(,0,0,1
3:03.819,66175,N,0,0,0
3:03.878,66196,),0,0,1
3:04.053,66259,(,0,0,2
3:04.158,66297,t,0,0,0
3:04.247,66329,),0,0,2
3:04.828,66538,(,0,0,1
3:04.856,66548,N,0,0,0
3:04.903,66565,),0,0,1
3:05.069,66625,(,0,0,2
3:05.167,66660,t,0,0,0
3:05.256,66692,),0,0,2
3:05.594,66814,(,0,0,0
3:05.639,66830,p,0,0,0
3:05.681,66845,),0,0,0
3:05.750,66870,(,0,0,1
3:05.783,66882,N,0,0,0
3:05.844,66904,),0,0,1
3:06.022,66968,(,0,0,2
3:06.122,67004,t,0,0,0
3:06.211,67036,),0,0,2
3:06.519,67147,(,0,0,0
3:06.561,67162,p,0,0,0
3:06.603,67177,),0,0,0
3:06.681,67205,(,0,0,1
3:06.714,67217,N,0,0,0
3:06.772,67238,),0,0,1
3:06.950,67302,(,0,0,2
3:07.044,67336,t,0,0,0
3:07.128,67366,),0,0,2
3:07.717,67578,(,0,0,1
3:07.747,67589,N,0,0,0
3:07.803,67609,),0,0,1
3:07.969,67669,(,0,0,2
3:08.056,67700,t,0,0,0
3:08.136,67729,),0,0,2
3:08.850,67986,(,0,0,1
3:08.881,67997,N,0,0,0
3:08.936,68017,),0,0,1
3:09.100,68076,(,0,0,2
3:09.194,68110,t,0,0,0
3:09.281,68141,),0,0,2
3:09.586,68251,(,0,0,0
3:09.622,68264,p,0,0,0
3:09.661,68278,),0,0,0
3:09.725,68301,(,0,0,1
3:09.753,68311,N,0,0,0
3:09.808,68331,),0,0,1
3:09.967,68388,(,0,0,2
3:10.056,68420,t,0,0,0
3:10.144,68452,),0,0,2
3:10.356,68528,(,0,0,0
3:10.394,68542,p,0,0,0
3:10.433,68556,),0,0,0
3:10.506,68582,(,0,0,1
3:10.536,68593,N,0,0,0
3:10.589,68612,),0,0,1
3:10.767,68676,(,0,0,2
3:10.831,68699,t,0,0,0
3:10.906,68726,),0,0,2
3:11.136,68809,(,0,0,0
3:11.181,68825,p,0,0,0
3:11.219,68839,),0,0,0
3:11.303,68869,(,0,0,1
3:11.333,68880,N,0,0,0
3:11.389,68900,),0,0,1
3:11.567,68964,(,0,0,2
3:11.656,68996,t,0,0,0
3:11.744,69028,),0,0,2
3:12.069,69145,(,0,0,0
3:12.114,69161,p,0,0,0
3:12.156,69176,),0,0,0
3:12.239,69206,(,0,0,1
3:12.269,69217,N,0,0,0
3:12.328,69238,),0,0,1
3:12.494,69298,(,0,0,2
3:12.586,69331,t,0,0,0
3:12.675,69363,),0,0,2
3:12.950,69462,(,0,0,0
3:13.003,69481,p,0,0,0
3:13.042,69495,),0,0,0
3:13.122,69524,(,0,0,1
3:13.150,69534,N,0,0,0
3:13.208,69555,),0,0,1
3:13.381,69617,(,0,0,2
3:13.467,69648,t,0,0,0
3:13.556,69680,),0,0,2
3:13.894,69802,(,0,0,0
3:13.936,69817,p,0,0,0
3:13.975,69831,),0,0,0
3:14.044,69856,(,0,0,1
3:14.069,69865,N,0,0,0
3:14.117,69882,),0,0,1
3:14.289,69944,(,0,0,2
3:14.375,69975,t,0,0,0
3:14.461,70006,),0,0,2
3:15.297,70307,(,0,0,1
3:15.328,70318,N,0,0,0
3:15.383,70338,),0,0,1
3:15.561,70402,(,0,0,2
3:15.656,70436,t,0,0,0
3:15.747,70469,),0,0,2
3:16.403,70705,(,0,0,0
3:16.444,70720,p,0,0,0
3:16.483,70734,),0,0,0
3:16.550,70758,(,0,0,1
3:16.581,70769,N,0,0,0
3:16.636,70789,),0,0,1
3:16.794,70846,(,0,0,2
3:16.864,70871,t,0,0,0
3:16.936,70897,),0,0,2
3:17.650,71154,(,0,0,1
3:17.681,71165,N,0,0,0
3:17.736,71185,),0,0,1
3:17.922,71252,(,0,0,2
3:18.028,71290,t,0,0,0
3:18.125,71325,),0,0,2
3:18.917,71610,(,0,0,1
3:18.947,71621,N,0,0,0
3:19.006,71642,),0,0,1
3:19.183,71706,(,0,0,2
3:19.286,71743,t,0,0,0
3:19.381,71777,),0,0,2
3:20.094,72034,(,0,0,1
3:20.125,72045,N,0,0,0
3:20.181,72065,),0,0,1
3:20.367,72132,(,0,0,2
3:20.461,72166,t,0,0,0
3:20.553,72199,),0,0,2
3:21.144,72412,(,0,0,0
3:21.186,72427,p,0,0,0
3:21.222,72440,),0,0,0
3:21.286,72463,(,0,0,1
3:21.314,72473,N,0,0,0
3:21.367,72492,),0,0,1
3:21.531,72551,(,0,0,2
3:21.622,72584,t,0,0,0
3:21.714,72617,),0,0,2
3:22.236,72805,(,0,0,0
3:22.281,72821,p,0,0,0
3:22.314,72833,),0,0,0
3:22.378,72856,(,0,0,1
3:22.408,72867,N,0,0,0
3:22.464,72887,),0,0,1
3:22.642,72951,(,0,0,2
3:22.736,72985,t,0,0,0
3:22.825,73017,),0,0,2
3:23.447,73241,(,0,0,1
3:23.478,73252,N,0,0,0
3:23.533,73272,),0,0,1
3:23.717,73338,(,0,0,2
3:23.819,73375,t,0,0,0
3:23.911,73408,),0,0,2
3:24.614,73661,(,0,0,1
3:24.644,73672,N,0,0,0
3:24.703,73693,),0,0,1
3:24.881,73757,(,0,0,2
3:24.989,73796,t,0,0,0
3:25.083,73830,),0,0,2
3:25.661,74038,(,0,0,0
3:25.711,74056,p,0,0,0
3:25.744,74068,),0,0,0
3:25.814,74093,(,0,0,1
3:25.844,74104,N,0,0,0
3:25.900,74124,),0,0,1
3:26.064,74183,(,0,0,2
3:26.147,74213,t,0,0,0
3:26.236,74245,),0,0,2
3:26.750,74430,(,0,0,0
3:26.800,74448,p,0,0,0
3:26.836,74461,),0,0,0
3:26.897,74483,(,0,0,1
3:26.925,74493,N,0,0,0
3:26.981,74513,),0,0,1
3:27.142,74571,(,0,0,2
3:27.233,74604,t,0,0,0
3:27.322,74636,),0,0,2
3:27.728,74782,(,0,0,0
3:27.772,74798,p,0,0,0
3:27.806,74810,),0,0,0
3:27.869,74833,(,0,0,1
3:27.900,74844,N,0,0,0
3:27.956,74864,),0,0,1
3:28.128,74926,(,0,0,2
3:28.231,74963,t,0,0,0
3:28.319,74995,),0,0,2
3:28.786,75163,(,0,0,0
3:28.822,75176,p,0,0,0
3:28.850,75186,),0,0,0
3:28.903,75205,(,0,0,1
3:28.933,75216,N,0,0,0
3:28.989,75236,),0,0,1
3:29.169,75301,(,0,0,2
3:29.269,75337,t,0,0,0
3:29.367,75372,),0,0,2
3:30.061,75622,(,0,0,1
3:30.092,75633,N,0,0,0
3:30.153,75655,),0,0,1
3:30.336,75721,(,0,0,2
3:30.431,75755,t,0,0,0
3:30.522,75788,),0,0,2
3:31.044,75976,(,0,0,0
3:31.086,75991,p,0,0,0
3:31.119,76003,),0,0,0
3:31.192,76029,(,0,0,1
3:31.219,76039,N,0,0,0
3:31.278,76060,),0,0,1
3:31.444,76120,(,0,0,2
3:31.550,76158,t,0,0,0
3:31.639,76190,),0,0,2
3:32.036,76333,(,0,0,0
3:32.075,76347,p,0,0,0
3:32.108,76359,),0,0,0
3:32.178,76384,(,0,0,1
3:32.208,76395,N,0,0,0
3:32.269,76417,),0,0,1
3:32.453,76483,(,0,0,2
3:32.550,76518,t,0,0,0
3:32.647,76553,),0,0,2
3:33.258,76773,(,0,0,1
3:33.289,76784,N,0,0,0
3:33.344,76804,),0,0,1
3:33.511,76864,(,0,0,2
3:33.608,76899,t,0,0,0
3:33.697,76931,),0,0,2
3:34.181,77105,(,0,0,0
3:34.219,77119,p,0,0,0
3:34.253,77131,),0,0,0
3:34.317,77154,(,0,0,1
3:34.344,77164,N,0,0,0
3:34.394,77182,),0,0,1
3:34.556,77240,(,0,0,2
3:34.661,77278,t,0,0,0
3:34.750,77310,),0,0,2
3:35.158,77457,(,0,0,0
3:35.200,77472,p,0,0,0
3:35.236,77485,),0,0,0
3:35.308,77511,(,0,0,1
3:35.339,77522,N,0,0,0
3:35.397,77543,),0,0,1
3:35.572,77606,(,0,0,2
3:35.678,77644,t,0,0,0
3:35.764,77675,),0,0,2
3:36.106,77798,(,0,0,0
3:36.158,77817,p,0,0,0
3:36.194,77830,),0,0,0
3:36.278,77860,(,0,0,1
3:36.308,77871,N,0,0,0
3:36.369,77893,),0,0,1
3:36.542,77955,(,0,0,2
3:36.644,77992,t,0,0,0
3:36.742,78027,),0,0,2
3:37.103,78157,(,0,0,0
3:37.144,78172,p,0,0,0
3:37.186,78187,),0,0,0
3:37.264,78215,(,0,0,1
3:37.294,78226,N,0,0,0
3:37.356,78248,),0,0,1
3:37.533,78312,(,0,0,2
3:37.625,78345,t,0,0,0
3:37.714,78377,),0,0,2
3:38.139,78530,(,0,0,0
3:38.183,78546,p,0,0,0
3:38.222,78560,),0,0,0
3:38.292,78585,(,0,0,1
3:38.322,78596,N,0,0,0
3:38.378,78616,),0,0,1
3:38.544,78676,(,0,0,2
3:38.642,78711,t,0,0,0
3:38.736,78745,),0,0,2
3:39.189,78908,(,0,0,0
3:39.231,78923,p,0,0,0
3:39.264,78935,),0,0,0
3:39.333,78960,(,0,0,1
3:39.364,78971,N,0,0,0
3:39.419,78991,),0,0,1
3:39.592,79053,(,0,0,2
3:39.697,79091,t,0,0,0
3:39.786,79123,),0,0,2
3:40.219,79279,(,0,0,0
3:40.258,79293,p,0,0,0
3:40.297,79307,),0,0,0
3:40.364,79331,(,0,0,1
3:40.394,79342,N,0,0,0
3:40.447,79361,),0,0,1
3:40.606,79418,(,0,0,2
3:40.706,79454,t,0,0,0
3:40.794,79486,),0,0,2
3:41.300,79668,(,0,0,1
3:41.331,79679,N,0,0,0
3:41.383,79698,),0,0,1
3:41.556,79760,(,0,0,2
3:41.658,79797,t,0,0,0
3:41.753,79831,),0,0,2
3:42.383,80058,(,0,0,1
3:42.414,80069,N,0,0,0
3:42.472,80090,),0,0,1
3:42.658,80157,(,0,0,2
3:42.767,80196,t,0,0,0
3:42.858,80229,),0,0,2
3:43.369,80413,(,0,0,0
3:43.414,80429,p,0,0,0
3:43.456,80444,),0,0,0
3:43.528,80470,(,0,0,1
3:43.558,80481,N,0,0,0
3:43.617,80502,),0,0,1
3:43.800,80568,(,0,0,2
3:43.889,80600,t,0,0,0
3:43.978,80632,),0,0,2
3:44.442,80799,(,0,0,0
3:44.489,80816,p,0,0,0
3:44.519,80827,),0,0,0
3:44.592,80853,(,0,0,1
3:44.619,80863,N,0,0,0
3:44.678,80884,),0,0,1
3:44.844,80944,(,0,0,2
3:44.939,80978,t,0,0,0
3:45.028,81010,),0,0,2
3:45.314,81113,(,0,0,0
3:45.353,81127,p,0,0,0
3:45.392,81141,),0,0,0
3:45.464,81167,(,0,0,1
3:45.492,81177,N,0,0,0
3:45.544,81196,),0,0,1
3:45.708,81255,(,0,0,2
3:45.794,81286,t,0,0,0
3:45.881,81317,),0,0,2
3:46.189,81428,(,0,0,0
3:46.228,81442,p,0,0,0
3:46.267,81456,),0,0,0
3:46.339,81482,(,0,0,1
3:46.369,81493,N,0,0,0
3:46.425,81513,),0,0,1
3:46.600,81576,(,0,0,2
3:46.692,81609,t,0,0,0
3:46.783,81642,),0,0,2
3:47.164,81779,(,0,0,0
3:47.214,81797,p,0,0,0
3:47.253,81811,),0,0,0
3:47.325,81837,(,0,0,1
3:47.356,81848,N,0,0,0
3:47.411,81868,),0,0,1
3:47.578,81928,(,0,0,2
3:47.683,81966,t,0,0,0
3:47.778,82000,),0,0,2
3:48.486,82255,(,0,0,1
3:48.517,82266,N,0,0,0
3:48.569,82285,),0,0,1
3:48.742,82347,(,0,0,2
3:48.850,82386,t,0,0,0
3:48.942,82419,),0,0,2
3:49.403,82585,(,0,0,0
3:49.467,82608,p,0,0,0
3:49.500,82620,),0,0,0
3:49.569,82645,(,0,0,1
3:49.600,82656,N,0,0,0
3:49.661,82678,),0,0,1
3:49.842,82743,(,0,0,2
3:49.933,82776,t,0,0,0
3:50.019,82807,),0,0,2
3:50.469,82969,(,0,0,0
3:50.514,82985,p,0,0,0
3:50.547,82997,),0,0,0
3:50.619,83023,(,0,0,1
3:50.650,83034,N,0,0,0
3:50.708,83055,),0,0,1
3:50.881,83117,(,0,0,2
3:50.975,83151,t,0,0,0
3:51.067,83184,),0,0,2
3:51.725,83421,(,0,0,1
3:51.753,83431,N,0,0,0
3:51.806,83450,),0,0,1
3:51.969,83509,(,0,0,2
3:52.067,83544,t,0,0,0
3:52.156,83576,),0,0,2
3:52.758,83793,(,0,0,1
3:52.789,83804,N,0,0,0
3:52.833,83820,),0,0,1
3:52.972,83870,(,0,0,2
3:53.064,83903,t,0,0,0
3:53.153,83935,),0,0,2
3:53.733,84144,(,0,0,1
3:53.764,84155,N,0,0,0
3:53.825,84177,),0,0,1
3:54.017,84246,(,0,0,2
3:54.122,84284,t,0,0,0
3:54.219,84319,),0,0,2
3:54.631,84467,(,0,0,0
3:54.675,84483,p,0,0,0
3:54.711,84496,),0,0,0
3:54.786,84523,(,0,0,1
3:54.817,84534,N,0,0,0
3:54.872,84554,),0,0,1
3:55.061,84622,(,0,0,2
3:55.156,84656,t,0,0,0
3:55.250,84690,),0,0,2
3:55.831,84899,(,0,0,1
3:55.861,84910,N,0,0,0
3:55.917,84930,),0,0,1
3:56.075,84987,(,0,0,2
3:56.169,85021,t,0,0,0
3:56.258,85053,),0,0,2
3:56.881,85277,(,0,0,1
3:56.908,85287,N,0,0,0
3:56.967,85308,),0,0,1
3:57.128,85366,(,0,0,2
3:57.217,85398,t,0,0,0
3:57.303,85429,),0,0,2
3:57.681,85565,(,0,0,0
3:57.725,85581,p,0,0,0
3:57.761,85594,),0,0,0
3:57.831,85619,(,0,0,1
3:57.858,85629,N,0,0,0
3:57.914,85649,),0,0,1
3:58.083,85710,(,0,0,2
3:58.178,85744,t,0,0,0
3:58.269,85777,),0,0,2
3:58.686,85927,(,0,0,0
3:58.731,85943,p,0,0,0
3:58.767,85956,),0,0,0
3:58.817,85974,(,0,0,1
3:58.842,85983,N,0,0,0
3:58.886,85999,),0,0,1
3:59.039,86054,(,0,0,2
3:59.136,86089,t,0,0,0
3:59.225,86121,),0,0,2
3:59.747,86309,(,0,0,0
3:59.789,86324,p,0,0,0
3:59.831,86339,),0,0,0
3:59.897,86363,(,0,0,1
3:59.928,86374,N,0,0,0
3:59.983,86394,),0,0,1
4:00.164,86459,(,0,0,2
4:00.264,86495,t,0,0,0
4:00.361,86530,),0,0,2
4:00.917,86730,(,0,0,0
4:00.958,86745,p,0,0,0
4:01.000,86760,),0,0,0
4:01.069,86785,(,0,0,1
4:01.100,86796,N,0,0,0
4:01.164,86819,),0,0,1
4:01.353,86887,(,0,0,2
4:01.453,86923,t,0,0,0
4:01.550,86958,),0,0,2
4:02.072,87146,(,0,0,1
4:02.100,87156,N,0,0,0
4:02.153,87175,),0,0,1
4:02.333,87240,(,0,0,2
4:02.428,87274,t,0,0,0
4:02.517,87306,),0,0,2
4:02.875,87435,(,0,0,0
4:02.917,87450,p,0,0,0
4:02.956,87464,),0,0,0
4:03.031,87491,(,0,0,1
4:03.061,87502,N,0,0,0
4:03.117,87522,),0,0,1
4:03.281,87581,(,0,0,2
4:03.369,87613,t,0,0,0
4:03.453,87643,),0,0,2
4:04.014,87845,(,0,0,1
4:04.042,87855,N,0,0,0
4:04.097,87875,),0,0,1
4:04.261,87934,(,0,0,2
4:04.353,87967,t,0,0,0
4:04.442,87999,),0,0,2
4:04.794,88126,(,0,0,0
4:04.828,88138,p,0,0,0
4:04.858,88149,),0,0,0
4:04.914,88169,(,0,0,1
4:04.942,88179,N,0,0,0
4:04.997,88199,),0,0,1
4:05.175,88263,(,0,0,2
4:05.269,88297,t,0,0,0
4:05.364,88331,),0,0,2
4:05.967,88548,(,0,0,1
4:05.997,88559,N,0,0,0
4:06.053,88579,),0,0,1
4:06.239,88646,(,0,0,2
4:06.339,88682,t,0,0,0
4:06.428,88714,),0,0,2
4:07.133,88968,(,0,0,1
4:07.164,88979,N,0,0,0
4:07.219,88999,),0,0,1
4:07.403,89065,(,0,0,2
4:07.503,89101,t,0,0,0
4:07.597,89135,),0,0,2
4:08.289,89384,(,0,0,1
4:08.319,89395,N,0,0,0
4:08.378,89416,),0,0,1
4:08.556,89480,(,0,0,2
4:08.650,89514,t,0,0,0
4:08.739,89546,),0,0,2
4:09.147,89693,(,0,0,0
4:09.192,89709,p,0,0,0
4:09.228,89722,),0,0,0
4:09.294,89746,(,0,0,1
4:09.322,89756,N,0,0,0
4:09.378,89776,),0,0,1
4:09.539,89834,(,0,0,2
4:09.628,89866,t,0,0,0
4:09.717,89898,),0,0,2
4:10.214,90077,(,0,0,0
4:10.253,90091,p,0,0,0
4:10.292,90105,),0,0,0
4:10.350,90126,(,0,0,1
4:10.381,90137,N,0,0,0
4:10.433,90156,),0,0,1
4:10.608,90219,(,0,0,2
4:10.703,90253,t,0,0,0
4:10.792,90285,),0,0,2
4:11.269,90457,(,0,0,0
4:11.308,90471,p,0,0,0
4:11.347,90485,),0,0,0
4:11.417,90510,(,0,0,1
4:11.450,90522,N,0,0,0
4:11.508,90543,),0,0,1
4:11.700,90612,(,0,0,2
4:11.797,90647,t,0,0,0
4:11.889,90680,),0,0,2
4:12.372,90854,(,0,0,0
4:12.417,90870,p,0,0,0
4:12.456,90884,),0,0,0
4:12.531,90911,(,0,0,1
4:12.561,90922,N,0,0,0
4:12.622,90944,),0,0,1
4:12.806,91010,(,0,0,2
4:12.897,91043,t,0,0,0
4:12.989,91076,),0,0,2
4:13.347,91205,(,0,0,0
4:13.394,91222,p,0,0,0
4:13.433,91236,),0,0,0
4:13.508,91263,(,0,0,1
4:13.539,91274,N,0,0,0
4:13.594,91294,),0,0,1
4:13.769,91357,(,0,0,2
4:13.858,91389,t,0,0,0
4:13.944,91420,),0,0,2
4:14.350,91566,(,0,0,0
4:14.394,91582,p,0,0,0
4:14.431,91595,),0,0,0
4:14.503,91621,(,0,0,1
4:14.533,91632,N,0,0,0
4:14.589,91652,),0,0,1
4:14.764,91715,(,0,0,2
4:14.869,91753,t,0,0,0
4:14.961,91786,),0,0,2
4:15.614,92021,(,0,0,1
4:15.644,92032,N,0,0,0
4:15.697,92051,),0,0,1
4:15.861,92110,(,0,0,2
4:15.961,92146,t,0,0,0
4:16.050,92178,),0,0,2
4:16.533,92352,(,0,0,0
4:16.575,92367,p,0,0,0
4:16.606,92378,),0,0,0
4:16.669,92401,(,0,0,1
4:16.697,92411,N,0,0,0
4:16.753,92431,),0,0,1
4:16.883,92478,(,0,0,2
4:16.981,92513,t,0,0,0
4:17.069,92545,),0,0,2
4:17.628,92746,(,0,0,1
4:17.661,92758,N,0,0,0
4:17.719,92779,),0,0,1
4:17.900,92844,(,0,0,2
4:18.003,92881,t,0,0,0
4:18.089,92912,),0,0,2
4:18.711,93136,(,0,0,1
4:18.742,93147,N,0,0,0
4:18.800,93168,),0,0,1
4:18.983,93234,(,0,0,2
4:19.078,93268,t,0,0,0
4:19.169,93301,),0,0,2
4:19.733,93504,(,0,0,0
4:19.778,93520,p,0,0,0
4:19.811,93532,),0,0,0
4:19.875,93555,(,0,0,1
4:19.906,93566,N,0,0,0
4:19.958,93585,),0,0,1
4:20.097,93635,(,0,0,2
4:20.206,93674,t,0,0,0
4:20.300,93708,),0,0,2
4:20.950,93942,(,0,0,1
4:20.978,93952,N,0,0,0
4:21.036,93973,),0,0,1
4:21.189,94028,(,0,0,2
4:21.292,94065,t,0,0,0
4:21.381,94097,),0,0,2
4:21.808,94251,(,0,0,0
4:21.853,94267,p,0,0,0
4:21.892,94281,),0,0,0
4:21.958,94305,(,0,0,1
4:21.989,94316,N,0,0,0
4:22.047,94337,),0,0,1
4:22.222,94400,(,0,0,2
4:22.325,94437,t,0,0,0
4:22.419,94471,),0,0,2
4:22.986,94675,(,0,0,1
4:23.017,94686,N,0,0,0
4:23.075,94707,),0,0,1
4:23.244,94768,(,0,0,2
4:23.353,94807,t,0,0,0
4:23.444,94840,),0,0,2
4:24.089,95072,(,0,0,1
4:24.119,95083,N,0,0,0
4:24.175,95103,),0,0,1
4:24.350,95166,(,0,0,2
4:24.450,95202,t,0,0,0
4:24.544,95236,),0,0,2
4:25.194,95470,(,0,0,1
4:25.222,95480,N,0,0,0
4:25.247,95489,),0,0,1
4:25.453,95563,(,0,0,2
4:25.564,95603,t,0,0,0
4:25.664,95639,),0,0,2
4:26.044,95776,(,0,0,0
4:26.081,95789,p,0,0,0
4:26.111,95800,),0,0,0
4:26.183,95826,(,0,0,1
4:26.217,95838,N,0,0,0
4:26.275,95859,),0,0,1
4:26.450,95922,(,0,0,2
4:26.558,95961,t,0,0,0
4:26.656,95996,),0,0,2
4:27.100,96156,(,0,0,0
4:27.142,96171,p,0,0,0
4:27.178,96184,),0,0,0
4:27.242,96207,(,0,0,1
4:27.272,96218,N,0,0,0
4:27.328,96238,),0,0,1
4:27.497,96299,(,0,0,2
4:27.594,96334,t,0,0,0
4:27.686,96367,),0,0,2
4:28.164,96539,(,0,0,0
4:28.206,96554,p,0,0,0
4:28.239,96566,),0,0,0
4:28.306,96590,(,0,0,1
4:28.336,96601,N,0,0,0
4:28.392,96621,),0,0,1
4:28.553,96679,(,0,0,2
4:28.658,96717,t,0,0,0
4:28.753,96751,),0,0,2
4:29.367,96972,(,0,0,1
4:29.400,96984,N,0,0,0
4:29.458,97005,),0,0,1
4:29.628,97066,(,0,0,2
4:29.733,97104,t,0,0,0
4:29.828,97138,),0,0,2
4:30.261,97294,(,0,0,0
4:30.306,97310,p,0,0,0
4:30.342,97323,),0,0,0
4:30.414,97349,(,0,0,1
4:30.444,97360,N,0,0,0
4:30.500,97380,),0,0,1
4:30.664,97439,(,0,0,2
4:30.761,97474,t,0,0,0
4:30.853,97507,),0,0,2
4:31.419,97711,(,0,0,1
4:31.450,97722,N,0,0,0
4:31.506,97742,),0,0,1
4:31.692,97809,(,0,0,2
4:31.786,97843,t,0,0,0
4:31.878,97876,),0,0,2
4:32.283,98022,(,0,0,0
4:32.328,98038,p,0,0,0
4:32.364,98051,),0,0,0
4:32.431,98075,(,0,0,1
4:32.461,98086,N,0,0,0
4:32.519,98107,),0,0,1
4:32.697,98171,(,0,0,2
4:32.797,98207,t,0,0,0
4:32.892,98241,),0,0,2
4:33.317,98394,(,0,0,0
4:33.358,98409,p,0,0,0
4:33.392,98421,),0,0,0
4:33.464,98447,(,0,0,1
4:33.494,98458,N,0,0,0
4:33.553,98479,),0,0,1
4:33.725,98541,(,0,0,2
4:33.819,98575,t,0,0,0
4:33.908,98607,),0,0,2
4:34.406,98786,(,0,0,1
4:34.436,98797,N,0,0,0
4:34.461,98806,),0,0,1
4:34.658,98877,(,0,0,2
4:34.750,98910,t,0,0,0
4:34.825,98937,),0,0,2
4:36.581,99569,(,0,0,0
4:36.608,99579,p,0,0,0
4:36.633,99588,),0,0,0
4:36.800,99648,(,0,0,1
4:36.947,99701,N,0,0,0
4:37.047,99737,),0,0,1
4:37.561,99922,(,0,0,2
4:37.611,99940,t,0,0,0
4:37.633,99948,),0,0,2
4:37.911   100048,(,0,0,1
4:38.050   100098,N,0,0,0
4:38.133   100128,),0,0,1
4:38.725   100341,(,0,0,2
4:38.756   100352,t,0,0,0
4:38.789   100364,),0,0,2
4:38.956   100424,(,0,0,1
4:39.094   100474,N,0,0,0
4:39.214   100517,),0,0,1
4:39.800   100728,(,0,0,2
4:39.831   100739,t,0,0,0
4:39.864   100751,),0,0,2
4:40.006   100802,(,0,0,1
4:40.158   100857,N,0,0,0
4:40.250   100890,),0,0,1
4:40.883   101118,(,0,0,2
4:40.911   101128,t,0,0,0
4:40.942   101139,),0,0,2
4:41.069   101185,(,0,0,1
4:41.228   101242,N,0,0,0
4:41.333   101280,),0,0,1
4:41.939   101498,(,0,0,2
4:41.967   101508,t,0,0,0
4:42.000   101520,),0,0,2
4:42.150   101574,(,0,0,1
4:42.306   101630,N,0,0,0
4:42.414   101669,),0,0,1
4:42.889   101840,(,0,0,2
4:42.917   101850,t,0,0,0
4:42.950   101862,),0,0,2
4:43.100   101916,(,0,0,1
4:43.267   101976,N,0,0,0
4:43.367   102012,),0,0,1
4:43.803   102169,t,0,0,2
4:43.881   102197,),0,0,2
4:44.036   102253,(,0,0,1
4:44.192   102309,N,0,0,0
4:44.281   102341,),0,0,1
4:44.861   102550,(,0,0,2
4:44.892   102561,t,0,0,0
4:44.925   102573,),0,0,2
4:45.067   102624,(,0,0,1
4:45.214   102677,N,0,0,0
4:45.314   102713,),0,0,1
4:45.878   102916,(,0,0,2
4:45.908   102927,t,0,0,0
4:45.942   102939,),0,0,2
4:46.103   102997,(,0,0,1
4:46.242   103047,N,0,0,0
4:46.317   103074,),0,0,1
4:46.761   103234,t,0,0,2
4:46.803   103249,),0,0,2
4:46.967   103308,(,0,0,1
4:47.108   103359,N,0,0,0
4:47.192   103389,),0,0,1
4:47.728   103582,(,0,0,2
4:47.756   103592,t,0,0,0
4:47.792   103605,),0,0,2
4:47.953   103663,(,0,0,1
4:48.111   103720,N,0,0,0
4:48.231   103763,),0,0,1
4:48.725   103941,(,0,0,2
4:48.783   103962,t,0,0,0
4:48.808   103971,),0,0,2
4:48.894   104002,(,0,0,0
4:48.919   104011,p,0,0,0
4:48.947   104021,),0,0,0
4:49.106   104078,(,0,0,1
4:49.250   104130,N,0,0,0
4:49.347   104165,),0,0,1
4:49.869   104353,(,0,0,2
4:49.917   104370,t,0,0,0
4:49.942   104379,),0,0,2
4:50.225   104481,(,0,0,1
4:50.378   104536,N,0,0,0
4:50.481   104573,),0,0,1
4:51.067   104784,(,0,0,2
4:51.097   104795,t,0,0,0
4:51.131   104807,),0,0,2
4:51.275   104859,(,0,0,1
4:51.419   104911,N,0,0,0
4:51.514   104945,),0,0,1
4:52.108   105159,(,0,0,2
4:52.139   105170,t,0,0,0
4:52.169   105181,),0,0,2
4:52.325   105237,(,0,0,1
4:52.464   105287,N,0,0,0
4:52.544   105316,),0,0,1
4:53.161   105538,(,0,0,2
4:53.189   105548,t,0,0,0
4:53.222   105560,),0,0,2
4:53.383   105618,(,0,0,1
4:53.522   105668,N,0,0,0
4:53.600   105696,),0,0,1
4:54.200   105912,),0,0,2
4:54.236   105925,t,0,0,0
4:54.272   105938,(,0,0,2
4:54.483   106014,(,0,0,1
4:54.642   106071,N,0,0,0
4:54.750   106110,),0,0,1
4:55.281   106301,(,0,0,2
4:55.308   106311,t,0,0,0
4:55.342   106323,),0,0,2
4:55.483   106374,(,0,0,1
4:55.644   106432,N,0,0,0
4:55.731   106463,),0,0,1
4:56.275   106659,(,0,0,2
4:56.303   106669,t,0,0,0
4:56.336   106681,),0,0,2
4:56.475   106731,(,0,0,1
4:56.631   106787,N,0,0,0
4:56.731   106823,),0,0,1
4:57.358   107049,(,0,0,2
4:57.389   107060,t,0,0,0
4:57.422   107072,),0,0,2
4:57.556   107120,(,0,0,1
4:57.728   107182,N,0,0,0
4:57.811   107212,),0,0,1
4:58.403   107425,(,0,0,2
4:58.433   107436,t,0,0,0
4:58.467   107448,),0,0,2
4:58.614   107501,(,0,0,1
4:58.758   107553,N,0,0,0
4:58.828   107578,),0,0,1
4:59.297   107747,(,0,0,2
4:59.325   107757,t,0,0,0
4:59.361   107770,),0,0,2
4:59.517   107826,(,0,0,1
4:59.669   107881,N,0,0,0
4:59.781   107921,),0,0,1
5:00.311   108112,(,0,0,2
5:00.342   108123,t,0,0,0
5:00.375   108135,),0,0,2
5:00.536   108193,(,0,0,1
5:00.678   108244,N,0,0,0
5:00.778   108280,),0,0,1
5:01.436   108517,t,0,0,2
5:01.481   108533,),0,0,2
5:01.667   108600,(,0,0,1
5:01.817   108654,N,0,0,0
5:01.914   108689,),0,0,1
5:02.556   108920,(,0,0,2
5:02.583   108930,t,0,0,0
5:02.614   108941,),0,0,2
5:02.764   108995,(,0,0,1
5:02.914   109049,N,0,0,0
5:03.011   109084,),0,0,1
5:03.528   109270,(,0,0,2
5:03.556   109280,t,0,0,0
5:03.589   109292,),0,0,2
5:03.719   109339,(,0,0,1
5:03.875   109395,N,0,0,0
5:03.961   109426,),0,0,1
5:04.447   109601,),0,0,2
5:04.486   109615,t,0,0,0
5:04.525   109629,(,0,0,2
5:04.742   109707,(,0,0,1
5:04.864   109751,N,0,0,0
5:04.964   109787,),0,0,1
5:05.586   110011,(,0,0,2
5:05.617   110022,t,0,0,0
5:05.650   110034,),0,0,2
5:05.800   110088,(,0,0,1
5:05.972   110150,N,0,0,0
5:06.081   110189,),0,0,1
5:06.686   110407,t,0,0,2
5:06.728   110422,),0,0,2
5:06.908   110487,(,0,0,1
5:07.072   110546,N,0,0,0
5:07.178   110584,),0,0,1
5:07.656   110756,),0,0,2
5:07.694   110770,t,0,0,0
5:07.733   110784,(,0,0,2
5:07.942   110859,(,0,0,1
5:08.064   110903,N,0,0,0
5:08.161   110938,),0,0,1
5:08.628   111106,(,0,0,2
5:08.656   111116,t,0,0,0
5:08.689   111128,),0,0,2
5:08.844   111184,(,0,0,1
5:08.983   111234,N,0,0,0
5:09.064   111263,),0,0,1
5:09.611   111460,(,0,0,2
5:09.639   111470,t,0,0,0
5:09.669   111481,),0,0,2
5:09.808   111531,(,0,0,1
5:09.953   111583,N,0,0,0
5:10.047   111617,),0,0,1
5:10.525   111789,),0,0,2
5:10.556   111800,t,0,0,0
5:10.586   111811,(,0,0,2
5:10.597   111815,(,0,0,0
5:10.622   111824,p,0,0,0
5:10.650   111834,),0,0,0
5:10.789   111884,(,0,0,1
5:10.900   111924,N,0,0,0
5:11.011   111964,),0,0,1
5:11.483   112134,(,0,0,2
5:11.514   112145,t,0,0,0
5:11.547   112157,),0,0,2
5:11.694   112210,(,0,0,1
5:11.864   112271,N,0,0,0
5:11.961   112306,),0,0,1
5:12.522   112508,),0,0,2
5:12.564   112523,t,0,0,0
5:12.603   112537,(,0,0,2
5:12.606   112538,(,0,0,0
5:12.636   112549,p,0,0,0
5:12.664   112559,),0,0,0
5:12.831   112619,(,0,0,1
5:12.983   112674,N,0,0,0
5:13.078   112708,),0,0,1
5:13.714   112937,),0,0,2
5:13.742   112947,t,0,0,0
5:13.769   112957,(,0,0,2
5:13.783   112962,(,0,0,0
5:13.808   112971,p,0,0,0
5:13.833   112980,),0,0,0
5:13.994   113038,(,0,0,1
5:14.119   113083,N,0,0,0
5:14.197   113111,),0,0,1
5:14.853   113347,t,0,0,2
5:14.894   113362,),0,0,2
5:15.081   113429,(,0,0,1
5:15.211   113476,N,0,0,0
5:15.289   113504,),0,0,1
5:15.847   113705,(,0,0,2
5:15.878   113716,t,0,0,0
5:15.908   113727,),0,0,2
5:16.047   113777,(,0,0,1
5:16.203   113833,N,0,0,0
5:16.328   113878,),0,0,1
5:16.869   114073,(,0,0,2
5:16.897   114083,t,0,0,0
5:16.931   114095,),0,0,2
5:17.056   114140,(,0,0,1
5:17.214   114197,N,0,0,0
5:17.311   114232,),0,0,1
5:17.867   114432,),0,0,2
5:17.908   114447,t,0,0,0
5:17.947   114461,(,0,0,2
5:18.147   114533,(,0,0,1
5:18.319   114595,N,0,0,0
5:18.403   114625,),0,0,1
5:18.983   114834,(,0,0,2
5:19.014   114845,t,0,0,0
5:19.047   114857,),0,0,2
5:19.206   114914,(,0,0,1
5:19.372   114974,N,0,0,0
5:19.475   115011,),0,0,1
5:20.014   115205,(,0,0,2
5:20.042   115215,t,0,0,0
5:20.075   115227,),0,0,2
5:20.214   115277,(,0,0,1
5:20.372   115334,N,0,0,0
5:20.461   115366,),0,0,1
5:21.067   115584,(,0,0,2
5:21.097   115595,t,0,0,0
5:21.131   115607,),0,0,2
5:21.283   115662,(,0,0,1
5:21.419   115711,N,0,0,0
5:21.528   115750,),0,0,1
5:22.092   115953,t,0,0,2
5:22.133   115968,),0,0,2
5:22.311   116032,(,0,0,1
5:22.444   116080,N,0,0,0
5:22.542   116115,),0,0,1
5:23.031   116291,(,0,0,2
5:23.061   116302,t,0,0,0
5:23.092   116313,),0,0,2
5:23.233   116364,(,0,0,1
5:23.400   116424,N,0,0,0
5:23.508   116463,),0,0,1
5:24.081   116669,(,0,0,2
5:24.111   116680,t,0,0,0
5:24.144   116692,),0,0,2
5:24.300   116748,(,0,0,1
5:24.450   116802,N,0,0,0
5:24.544   116836,),0,0,1
5:25.139   117050,(,0,0,2
5:25.169   117061,t,0,0,0
5:25.203   117073,),0,0,2
5:25.344   117124,(,0,0,1
5:25.508   117183,N,0,0,0
5:25.586   117211,),0,0,1
5:26.172   117422,(,0,0,2
5:26.203   117433,t,0,0,0
5:26.236   117445,),0,0,2
5:26.403   117505,(,0,0,1
5:26.553   117559,N,0,0,0
5:26.633   117588,),0,0,1
5:27.150   117774,(,0,0,2
5:27.178   117784,t,0,0,0
5:27.211   117796,),0,0,2
5:27.353   117847,(,0,0,1
5:27.508   117903,N,0,0,0
5:27.608   117939,),0,0,1
5:28.142   118131,(,0,0,2
5:28.172   118142,t,0,0,0
5:28.206   118154,),0,0,2
5:28.358   118209,(,0,0,1
5:28.492   118257,N,0,0,0
5:28.594   118294,),0,0,1
5:29.169   118501,(,0,0,2
5:29.197   118511,t,0,0,0
5:29.231   118523,),0,0,2
5:29.361   118570,(,0,0,1
5:29.525   118629,N,0,0,0
5:29.625   118665,),0,0,1
5:30.236   118885,),0,0,2
5:30.272   118898,t,0,0,0
5:30.308   118911,(,0,0,2
5:30.311   118912,(,0,0,0
5:30.339   118922,p,0,0,0
5:30.364   118931,),0,0,0
5:30.531   118991,(,0,0,1
5:30.697   119051,N,0,0,0
5:30.808   119091,),0,0,1
5:31.364   119291,(,0,0,2
5:31.394   119302,t,0,0,0
5:31.428   119314,),0,0,2
5:31.589   119372,(,0,0,1
5:31.739   119426,N,0,0,0
5:31.842   119463,),0,0,1
5:32.375   119655,(,0,0,2
5:32.403   119665,t,0,0,0
5:32.436   119677,),0,0,2
5:32.586   119731,(,0,0,1
5:32.736   119785,N,0,0,0
5:32.842   119823,),0,0,1
5:33.467   120048,(,0,0,2
5:33.494   120058,t,0,0,0
5:33.531   120071,),0,0,2
5:33.672   120122,(,0,0,1
5:33.828   120178,N,0,0,0
5:33.911   120208,),0,0,1
5:34.481   120413,),0,0,2
5:34.517   120426,t,0,0,0
5:34.550   120438,(,0,0,2
5:34.767   120516,(,0,0,1
5:34.869   120553,N,0,0,0
5:34.931   120575,),0,0,1
5:35.503   120781,(,0,0,2
5:35.533   120792,t,0,0,0
5:35.567   120804,),0,0,2
5:35.714   120857,(,0,0,1
5:35.872   120914,N,0,0,0
5:35.958   120945,),0,0,1
5:36.481   121133,(,0,0,2
5:36.511   121144,t,0,0,0
5:36.544   121156,),0,0,2
5:36.686   121207,(,0,0,1
5:36.853   121267,N,0,0,0
5:36.956   121304,),0,0,1
5:37.564   121523,(,0,0,2
5:37.594   121534,t,0,0,0
5:37.631   121547,),0,0,2
5:37.789   121604,(,0,0,1
5:37.942   121659,N,0,0,0
5:38.042   121695,),0,0,1
5:38.128   121726,(,0,0,2
5:38.281   121781,t,0,0,4
5:38.600   121896,t,0,0,4
5:38.642   121911,),0,0,2
5:38.711   121936,(,0,0,0
5:38.736   121945,p,0,0,0
5:38.761   121954,),0,0,0
5:38.922   122012,(,0,0,1
5:39.061   122062,N,0,0,0
5:39.156   122096,),0,0,1
5:39.747   122309,(,0,0,2
5:39.778   122320,t,0,0,0
5:39.811   122332,),0,0,2
5:39.967   122388,(,0,0,1
5:40.111   122440,N,0,0,0
5:40.222   122480,),0,0,1
5:40.792   122685,),0,0,2
5:40.817   122694,t,0,0,0
5:40.842   122703,(,0,0,2
5:41.028   122770,(,0,0,1
5:41.181   122825,N,0,0,0
5:41.272   122858,),0,0,1
5:41.503   122941,(,0,0,2
5:41.578   122968,t,0,0,4
5:41.881   123077,t,0,0,4
5:41.917   123090,),0,0,2
5:41.978   123112,(,0,0,0
5:42.011   123124,p,0,0,0
5:42.039   123134,),0,0,0
5:42.208   123195,(,0,0,1
5:42.361   123250,N,0,0,0
5:42.472   123290,),0,0,1
5:43.086   123511,),0,0,2
5:43.122   123524,t,0,0,0
5:43.158   123537,(,0,0,2
5:43.161   123538,(,0,0,0
5:43.189   123548,p,0,0,0
5:43.217   123558,),0,0,0
5:43.383   123618,(,0,0,1
5:43.528   123670,N,0,0,0
5:43.625   123705,),0,0,1
5:44.200   123912,(,0,0,2
5:44.228   123922,t,0,0,0
5:44.261   123934,),0,0,2
5:44.425   123993,(,0,0,1
5:44.564   124043,N,0,0,0
5:44.672   124082,),0,0,1
5:45.267   124296,(,0,0,2
5:45.297   124307,t,0,0,0
5:45.328   124318,),0,0,2
5:45.461   124366,(,0,0,1
5:45.622   124424,N,0,0,0
5:45.700   124452,),0,0,1
5:46.342   124683,(,0,0,2
5:46.372   124694,t,0,0,0
5:46.403   124705,),0,0,2
5:46.547   124757,(,0,0,1
5:46.692   124809,N,0,0,0
5:46.789   124844,),0,0,1
5:47.411   125068,(,0,0,2
5:47.439   125078,t,0,0,0
5:47.475   125091,),0,0,2
5:47.644   125152,(,0,0,1
5:47.803   125209,N,0,0,0
5:47.903   125245,),0,0,1
5:48.497   125459,(,0,0,2
5:48.528   125470,t,0,0,0
5:48.561   125482,),0,0,2
5:48.725   125541,(,0,0,1
5:48.872   125594,N,0,0,0
5:48.972   125630,),0,0,1
5:49.600   125856,(,0,0,2
5:49.631   125867,t,0,0,0
5:49.664   125879,),0,0,2
5:49.808   125931,(,0,0,1
5:49.956   125984,N,0,0,0
5:50.069   126025,),0,0,1
5:50.672   126242,(,0,0,2
5:50.703   126253,t,0,0,0
5:50.736   126265,),0,0,2
5:50.889   126320,(,0,0,1
5:51.047   126377,N,0,0,0
5:51.125   126405,),0,0,1
5:51.750   126630,(,0,0,2
5:51.781   126641,t,0,0,0
5:51.814   126653,),0,0,2
5:51.956   126704,(,0,0,1
5:52.114   126761,N,0,0,0
5:52.192   126789,),0,0,1
5:52.664   126959,),0,0,2
5:52.700   126972,t,0,0,0
5:52.733   126984,(,0,0,2
5:52.897   127043,(,0,0,1
5:53.050   127098,N,0,0,0
5:53.136   127129,),0,0,1
5:53.744   127348,(,0,0,2
5:53.775   127359,t,0,0,0
5:53.808   127371,),0,0,2
5:53.972   127430,(,0,0,1
5:54.131   127487,N,0,0,0
5:54.236   127525,),0,0,1
5:54.867   127752,),0,0,2
5:54.897   127763,t,0,0,0
5:54.928   127774,(,0,0,2
5:54.942   127779,(,0,0,0
5:54.967   127788,p,0,0,0
5:54.994   127798,),0,0,0
5:55.150   127854,(,0,0,1
5:55.306   127910,N,0,0,0
5:55.422   127952,),0,0,1
5:56.000   128160,(,0,0,2
5:56.028   128170,t,0,0,0
5:56.058   128181,),0,0,2
5:56.189   128228,(,0,0,1
5:56.350   128286,N,0,0,0
5:56.453   128323,),0,0,1
5:56.928   128494,(,0,0,2
5:56.958   128505,t,0,0,0
5:56.992   128517,),0,0,2
5:57.125   128565,(,0,0,1
5:57.292   128625,N,0,0,0
5:57.369   128653,),0,0,1
5:57.892   128841,(,0,0,2
5:57.922   128852,t,0,0,0
5:57.956   128864,),0,0,2
5:58.108   128919,(,0,0,1
5:58.256   128972,N,0,0,0
5:58.339   129002,),0,0,1
5:58.903   129205,(,0,0,2
5:58.931   129215,t,0,0,0
5:58.964   129227,),0,0,2
5:59.108   129279,(,0,0,1
5:59.258   129333,N,0,0,0
5:59.353   129367,),0,0,1
5:59.969   129589,(,0,0,2
5:59.997   129599,t,0,0,0
6:00.031   129611,),0,0,2
6:00.194   129670,(,0,0,1
6:00.333   129720,N,0,0,0
6:00.422   129752,),0,0,1
6:00.958   129945,(,0,0,2
6:00.986   129955,t,0,0,0
6:01.019   129967,),0,0,2
6:01.181   130025,(,0,0,1
6:01.336   130081,N,0,0,0
6:01.436   130117,),0,0,1
6:01.992   130317,(,0,0,2
6:02.022   130328,t,0,0,0
6:02.053   130339,),0,0,2
6:02.175   130383,(,0,0,1
6:02.339   130442,N,0,0,0
6:02.422   130472,),0,0,1
6:03.042   130695,(,0,0,2
6:03.069   130705,t,0,0,0
6:03.103   130717,),0,0,2
6:03.233   130764,(,0,0,1
6:03.392   130821,N,0,0,0
6:03.486   130855,),0,0,1
6:04.067   131064,(,0,0,2
6:04.097   131075,t,0,0,0
6:04.131   131087,),0,0,2
6:04.283   131142,(,0,0,1
6:04.425   131193,N,0,0,0
6:04.536   131233,),0,0,1
6:04.956   131384,(,0,0,2
6:04.983   131394,t,0,0,0
6:05.017   131406,),0,0,2
6:05.164   131459,(,0,0,1
6:05.317   131514,N,0,0,0
6:05.417   131550,),0,0,1
6:05.986   131755,(,0,0,2
6:06.017   131766,t,0,0,0
6:06.050   131778,),0,0,2
6:06.217   131838,(,0,0,1
6:06.356   131888,N,0,0,0
6:06.469   131929,),0,0,1
6:07.067   132144,(,0,0,2
6:07.097   132155,t,0,0,0
6:07.133   132168,),0,0,2
6:07.278   132220,(,0,0,1
6:07.428   132274,N,0,0,0
6:07.536   132313,),0,0,1
6:08.078   132508,(,0,0,2
6:08.108   132519,t,0,0,0
6:08.142   132531,),0,0,2
6:08.292   132585,(,0,0,1
6:08.458   132645,N,0,0,0
6:08.583   132690,),0,0,1
6:09.081   132869,(,0,0,2
6:09.108   132879,t,0,0,0
6:09.142   132891,),0,0,2
6:09.281   132941,(,0,0,1
6:09.428   132994,N,0,0,0
6:09.511   133024,),0,0,1
6:10.061   133222,(,0,0,2
6:10.089   133232,t,0,0,0
6:10.122   133244,),0,0,2
6:10.267   133296,(,0,0,1
6:10.414   133349,N,0,0,0
6:10.503   133381,),0,0,1
6:11.125   133605,(,0,0,2
6:11.156   133616,t,0,0,0
6:11.189   133628,),0,0,2
6:11.339   133682,(,0,0,1
6:11.489   133736,N,0,0,0
6:11.583   133770,),0,0,1
6:12.100   133956,(,0,0,2
6:12.156   133976,t,0,0,0
6:12.192   133989,),0,0,2
6:12.267   134016,(,0,0,0
6:12.292   134025,p,0,0,0
6:12.319   134035,),0,0,0
6:12.481   134093,(,0,0,1
6:12.633   134148,N,0,0,0
6:12.733   134184,),0,0,1
6:13.283   134382,(,0,0,2
6:13.311   134392,t,0,0,0
6:13.344   134404,),0,0,2
6:13.492   134457,(,0,0,1
6:13.647   134513,N,0,0,0
6:13.733   134544,),0,0,1
6:14.244   134728,(,0,0,2
6:14.275   134739,t,0,0,0
6:14.308   134751,),0,0,2
6:14.453   134803,(,0,0,1
6:14.597   134855,N,0,0,0
6:14.700   134892,),0,0,1
6:15.306   135110,(,0,0,2
6:15.333   135120,t,0,0,0
6:15.367   135132,),0,0,2
6:15.517   135186,(,0,0,1
6:15.672   135242,N,0,0,0
6:15.767   135276,),0,0,1
6:16.342   135483,),0,0,2
6:16.375   135495,t,0,0,0
6:16.408   135507,(,0,0,2
6:16.414   135509,(,0,0,0
6:16.444   135520,p,0,0,0
6:16.472   135530,),0,0,0
6:16.642   135591,(,0,0,1
6:16.772   135638,N,0,0,0
6:16.850   135666,),0,0,1
6:17.306   135830,(,0,0,2
6:17.333   135840,t,0,0,0
6:17.367   135852,),0,0,2
6:17.525   135909,(,0,0,1
6:17.669   135961,N,0,0,0
6:17.781   136001,),0,0,1
6:18.264   136175,(,0,0,2
6:18.294   136186,t,0,0,0
6:18.328   136198,),0,0,2
6:18.475   136251,(,0,0,1
6:18.625   136305,N,0,0,0
6:18.700   136332,),0,0,1
6:19.208   136515,(,0,0,2
6:19.258   136533,t,0,0,0
6:19.289   136544,),0,0,2
6:19.372   136574,(,0,0,0
6:19.397   136583,p,0,0,0
6:19.425   136593,),0,0,0
6:19.583   136650,(,0,0,1
6:19.739   136706,N,0,0,0
6:19.847   136745,),0,0,1
6:19.961   136786,(,0,0,2
6:20.072   136826,t,0,0,4
6:20.406   136946,t,0,0,4
6:20.442   136959,),0,0,2
6:20.703   137053,(,0,0,1
6:20.869   137113,N,0,0,0
6:20.947   137141,),0,0,1
6:21.544   137356,(,0,0,2
6:21.572   137366,t,0,0,0
6:21.606   137378,),0,0,2
6:21.739   137426,(,0,0,1
6:21.892   137481,N,0,0,0
6:21.981   137513,),0,0,1
6:22.536   137713,),0,0,2
6:22.575   137727,t,0,0,0
6:22.611   137740,(,0,0,2
6:22.817   137814,(,0,0,1
6:22.942   137859,N,0,0,0
6:23.031   137891,),0,0,1
6:23.700   138132,(,0,0,2
6:23.728   138142,t,0,0,0
6:23.764   138155,),0,0,2
6:23.922   138212,(,0,0,1
6:24.078   138268,N,0,0,0
6:24.156   138296,),0,0,1
6:24.783   138522,(,0,0,2
6:24.811   138532,t,0,0,0
6:24.844   138544,),0,0,2
6:25.003   138601,(,0,0,1
6:25.147   138653,N,0,0,0
6:25.264   138695,),0,0,1
6:25.739   138866,t,0,0,2
6:25.814   138893,),0,0,2
6:25.986   138955,(,0,0,1
6:26.125   139005,N,0,0,0
6:26.231   139043,),0,0,1
6:26.836   139261,(,0,0,2
6:26.867   139272,t,0,0,0
6:26.900   139284,),0,0,2
6:27.061   139342,(,0,0,1
6:27.208   139395,N,0,0,0
6:27.311   139432,),0,0,1
6:27.911   139648,(,0,0,2
6:27.942   139659,t,0,0,0
6:27.975   139671,),0,0,2
6:28.119   139723,(,0,0,1
6:28.272   139778,N,0,0,0
6:28.378   139816,),0,0,1
6:28.872   139994,(,0,0,2
6:28.900   140004,t,0,0,0
6:28.933   140016,),0,0,2
6:29.092   140073,(,0,0,1
6:29.233   140124,N,0,0,0
6:29.331   140159,),0,0,1
6:29.867   140352,(,0,0,2
6:29.900   140364,t,0,0,0
6:29.933   140376,),0,0,2
6:30.111   140440,(,0,0,1
6:30.256   140492,N,0,0,0
6:30.347   140525,),0,0,1
6:30.917   140730,(,0,0,2
6:30.947   140741,t,0,0,0
6:30.983   140754,),0,0,2
6:31.136   140809,(,0,0,1
6:31.281   140861,N,0,0,0
6:31.358   140889,),0,0,1
6:32.003   141121,(,0,0,2
6:32.031   141131,t,0,0,0
6:32.061   141142,),0,0,2
6:32.208   141195,(,0,0,1
6:32.353   141247,N,0,0,0
6:32.439   141278,),0,0,1
6:33.075   141507,(,0,0,2
6:33.106   141518,t,0,0,0
6:33.136   141529,),0,0,2
6:33.286   141583,(,0,0,1
6:33.436   141637,N,0,0,0
6:33.528   141670,),0,0,1
6:34.064   141863,(,0,0,2
6:34.092   141873,t,0,0,0
6:34.128   141886,),0,0,2
6:34.561   142042,(,0,0,0
6:34.586   142051,p,0,0,0
6:34.614   142061,),0,0,0
6:34.756   142112,(,0,0,1
6:34.842   142143,N,0,0,0
6:34.911   142168,),0,0,1
6:34.981   142193,(,0,0,2
6:35.147   142253,t,0,0,1
6:35.228   142282,),0,0,2
6:35.561   142402,(,0,0,1
6:35.578   142408,N,0,0,0
6:35.600   142416,),0,0,1
6:35.806   142490,(,0,0,2
6:35.917   142530,t,0,0,0
6:36.011   142564,),0,0,2
6:36.597   142775,(,0,0,1
6:36.619   142783,N,0,0,0
6:36.642   142791,),0,0,1
6:36.861   142870,(,0,0,2
6:36.972   142910,t,0,0,0
6:37.067   142944,),0,0,2
6:37.578   143128,(,0,0,1
6:37.594   143134,N,0,0,0
6:37.614   143141,),0,0,1
6:37.814   143213,(,0,0,2
6:37.914   143249,t,0,0,0
6:37.997   143279,),0,0,2
6:38.439   143438,(,0,0,1
6:38.478   143452,N,0,0,0
6:38.500   143460,),0,0,1
6:38.692   143529,(,0,0,2
6:38.792   143565,t,0,0,0
6:38.886   143599,),0,0,2
6:39.428   143794,(,0,0,1
6:39.475   143811,N,0,0,0
6:39.494   143818,),0,0,1
6:39.697   143891,(,0,0,2
6:39.797   143927,t,0,0,0
6:39.892   143961,),0,0,2
6:40.561   144202,(,0,0,1
6:40.581   144209,N,0,0,0
6:40.603   144217,),0,0,1
6:40.789   144284,(,0,0,2
6:40.867   144312,t,0,0,0
6:40.950   144342,),0,0,2
6:41.611   144580,(,0,0,1
6:41.636   144589,N,0,0,0
6:41.658   144597,),0,0,1
6:41.872   144674,(,0,0,2
6:41.967   144708,t,0,0,0
6:42.058   144741,),0,0,2
6:42.767   144996,(,0,0,1
6:42.789   145004,N,0,0,0
6:42.811   145012,),0,0,1
6:43.017   145086,(,0,0,2
6:43.114   145121,t,0,0,0
6:43.203   145153,),0,0,2
6:43.914   145409,(,0,0,1
6:43.936   145417,N,0,0,0
6:43.958   145425,),0,0,1
6:44.161   145498,(,0,0,2
6:44.261   145534,t,0,0,0
6:44.358   145569,),0,0,2
6:45.000   145800,(,0,0,1
6:45.019   145807,N,0,0,0
6:45.042   145815,),0,0,1
6:45.250   145890,(,0,0,2
6:45.342   145923,t,0,0,0
6:45.431   145955,),0,0,2
6:45.994   146158,(,0,0,1
6:46.014   146165,N,0,0,0
6:46.036   146173,),0,0,1
6:46.247   146249,(,0,0,2
6:46.333   146280,t,0,0,0
6:46.422   146312,),0,0,2
6:46.997   146519,(,0,0,1
6:47.019   146527,N,0,0,0
6:47.042   146535,),0,0,1
6:47.167   146580,t,0,0,2
6:47.333   146640,),0,0,2
6:47.508   146703,(,0,0,1
6:47.536   146713,N,0,0,0
6:47.556   146720,),0,0,1
6:47.756   146792,(,0,0,2
6:47.856   146828,t,0,0,0
6:47.939   146858,),0,0,2
6:48.675   147123,(,0,0,1
6:48.700   147132,N,0,0,0
6:48.722   147140,),0,0,1
6:48.939   147218,(,0,0,2
6:49.050   147258,t,0,0,0
6:49.147   147293,),0,0,2
6:49.708   147495,(,0,0,1
6:49.728   147502,N,0,0,0
6:49.750   147510,),0,0,1
6:49.944   147580,(,0,0,2
6:50.033   147612,t,0,0,0
6:50.108   147639,),0,0,2
6:50.750   147870,(,0,0,1
6:50.772   147878,N,0,0,0
6:50.794   147886,),0,0,1
6:51.006   147962,(,0,0,2
6:51.103   147997,t,0,0,0
6:51.194   148030,),0,0,2
6:51.858   148269,(,0,0,1
6:51.878   148276,N,0,0,0
6:51.897   148283,),0,0,1
6:52.100   148356,(,0,0,2
6:52.197   148391,t,0,0,0
6:52.283   148422,),0,0,2
6:52.656   148556,(,0,0,0
6:52.675   148563,p,0,0,0
6:52.789   148604,),0,0,0
6:52.872   148634,(,0,0,1
6:52.886   148639,N,0,0,0
6:52.903   148645,),0,0,1
6:53.089   148712,(,0,0,2
6:53.197   148751,t,0,0,0
6:53.289   148784,),0,0,2
6:53.825   148977,(,0,0,1
6:53.847   148985,N,0,0,0
6:53.872   148994,),0,0,1
6:54.097   149075,(,0,0,2
6:54.200   149112,t,0,0,0
6:54.292   149145,),0,0,2
6:54.908   149367,(,0,0,1
6:54.928   149374,N,0,0,0
6:54.950   149382,),0,0,1
6:55.172   149462,(,0,0,2
6:55.269   149497,t,0,0,0
6:55.358   149529,),0,0,2
6:56.056   149780,(,0,0,1
6:56.069   149785,N,0,0,0
6:56.089   149792,),0,0,1
6:56.283   149862,(,0,0,2
6:56.386   149899,t,0,0,0
6:56.472   149930,),0,0,2
6:57.064   150143,(,0,0,1
6:57.103   150157,N,0,0,0
6:57.128   150166,),0,0,1
6:57.319   150235,(,0,0,2
6:57.411   150268,t,0,0,0
6:57.503   150301,),0,0,2
6:58.025   150489,(,0,0,1
6:58.075   150507,N,0,0,0
6:58.097   150515,),0,0,1
6:58.308   150591,(,0,0,2
6:58.406   150626,t,0,0,0
6:58.497   150659,),0,0,2
6:59.092   150873,(,0,0,1
6:59.111   150880,N,0,0,0
6:59.133   150888,),0,0,1
6:59.331   150959,(,0,0,2
6:59.442   150999,t,0,0,0
6:59.536   151033,),0,0,2
7:00.242   151287,(,0,0,1
7:00.267   151296,N,0,0,0
7:00.286   151303,),0,0,1
7:00.506   151382,(,0,0,2
7:00.606   151418,t,0,0,0
7:00.703   151453,),0,0,2
7:01.331   151679,(,0,0,1
7:01.353   151687,N,0,0,0
7:01.375   151695,),0,0,1
7:01.589   151772,(,0,0,2
7:01.683   151806,t,0,0,0
7:01.772   151838,),0,0,2
7:02.289   152024,(,0,0,1
7:02.311   152032,N,0,0,0
7:02.331   152039,),0,0,1
7:02.533   152112,(,0,0,2
7:02.631   152147,t,0,0,0
7:02.719   152179,),0,0,2
7:03.325   152397,(,0,0,1
7:03.342   152403,N,0,0,0
7:03.364   152411,),0,0,1
7:03.561   152482,(,0,0,2
7:03.653   152515,t,0,0,0
7:03.739   152546,),0,0,2
7:04.311   152752,(,0,0,1
7:04.353   152767,N,0,0,0
7:04.372   152774,),0,0,1
7:04.561   152842,(,0,0,2
7:04.661   152878,t,0,0,0
7:04.750   152910,),0,0,2
7:05.306   153110,(,0,0,1
7:05.347   153125,N,0,0,0
7:05.369   153133,),0,0,1
7:05.589   153212,(,0,0,2
7:05.703   153253,t,0,0,0
7:05.811   153292,),0,0,2
7:06.128   153406,(,0,0,0
7:06.186   153427,p,0,0,0
7:06.244   153448,),0,0,0
7:06.372   153494,(,0,0,1
7:06.392   153501,N,0,0,0
7:06.411   153508,),0,0,1
7:06.625   153585,(,0,0,2
7:06.739   153626,t,0,0,0
7:06.833   153660,),0,0,2
7:07.422   153872,(,0,0,1
7:07.444   153880,N,0,0,0
7:07.464   153887,),0,0,1
7:07.683   153966,(,0,0,2
7:07.781   154001,t,0,0,0
7:07.867   154032,),0,0,2
7:08.472   154250,(,0,0,1
7:08.494   154258,N,0,0,0
7:08.517   154266,),0,0,1
7:08.722   154340,(,0,0,2
7:08.814   154373,t,0,0,0
7:08.900   154404,),0,0,2
7:09.542   154635,(,0,0,1
7:09.561   154642,N,0,0,0
7:09.583   154650,),0,0,1
7:09.783   154722,(,0,0,2
7:09.881   154757,t,0,0,0
7:09.975   154791,),0,0,2
7:10.253   154891,(,0,0,0
7:10.275   154899,p,0,0,0
7:10.386   154939,),0,0,0
7:10.500   154980,(,0,0,1
7:10.517   154986,N,0,0,0
7:10.536   154993,),0,0,1
7:10.744   155068,(,0,0,2
7:10.808   155091,t,0,0,0
7:10.886   155119,),0,0,2
7:11.439   155318,(,0,0,1
7:11.461   155326,N,0,0,0
7:11.483   155334,),0,0,1
7:11.686   155407,(,0,0,2
7:11.792   155445,t,0,0,0
7:11.883   155478,),0,0,2
7:12.586   155731,(,0,0,1
7:12.608   155739,N,0,0,0
7:12.636   155749,),0,0,1
7:12.867   155832,(,0,0,2
7:12.972   155870,t,0,0,0
7:13.067   155904,),0,0,2
7:13.700   156132,(,0,0,1
7:13.722   156140,N,0,0,0
7:13.744   156148,),0,0,1
7:13.950   156222,(,0,0,2
7:14.044   156256,t,0,0,0
7:14.125   156285,),0,0,2
7:14.656   156476,(,0,0,1
7:14.681   156485,N,0,0,0
7:14.700   156492,),0,0,1
7:14.908   156567,(,0,0,2
7:15.000   156600,t,0,0,0
7:15.086   156631,),0,0,2
7:17.786   157603,(,0,0,1
7:17.806   157610,N,0,0,0
7:17.825   157617,),0,0,1
7:18.050   157698,(,0,0,2
7:18.156   157736,t,0,0,0
7:18.247   157769,),0,0,2
7:18.892   158001,(,0,0,1
7:18.914   158009,N,0,0,0
7:18.936   158017,),0,0,1
7:19.147   158093,(,0,0,2
7:19.250   158130,t,0,0,0
7:19.344   158164,),0,0,2
7:20.039   158414,(,0,0,1
7:20.058   158421,N,0,0,0
7:20.078   158428,),0,0,1
7:20.294   158506,(,0,0,2
7:20.386   158539,t,0,0,0
7:20.481   158573,),0,0,2
7:23.003   159481,(,0,0,1
7:23.022   159488,N,0,0,0
7:23.044   159496,),0,0,1
7:23.258   159573,(,0,0,2
7:23.361   159610,t,0,0,0
7:23.456   159644,),0,0,2
7:24.172   159902,(,0,0,1
7:24.194   159910,N,0,0,0
7:24.217   159918,),0,0,1
7:24.450   160002,(,0,0,2
7:24.544   160036,t,0,0,0
7:24.639   160070,),0,0,2
7:25.306   160310,(,0,0,1
7:25.331   160319,N,0,0,0
7:25.353   160327,),0,0,1
7:25.556   160400,(,0,0,2
7:25.656   160436,t,0,0,0
7:25.747   160469,),0,0,2
7:26.300   160668,(,0,0,1
7:26.322   160676,N,0,0,0
7:26.342   160683,),0,0,1
7:26.553   160759,(,0,0,2
7:26.658   160797,t,0,0,0
7:26.750   160830,),0,0,2
7:27.369   161053,(,0,0,1
7:27.389   161060,N,0,0,0
7:27.411   161068,),0,0,1
7:27.603   161137,(,0,0,2
7:27.703   161173,t,0,0,0
7:27.792   161205,),0,0,2
7:38.822   165176,(,0,0,1
7:38.844   165184,N,0,0,0
7:38.867   165192,),0,0,1
7:39.072   165266,(,0,0,2
7:39.164   165299,t,0,0,0
7:39.253   165331,),0,0,2
7:40.883   165918,(,0,0,1
7:40.903   165925,N,0,0,0
7:40.928   165934,),0,0,1
7:41.142   166011,(,0,0,2
7:41.242   166047,t,0,0,0
7:41.333   166080,),0,0,2
7:42.017   166326,(,0,0,1
7:42.042   166335,N,0,0,0
7:42.064   166343,),0,0,1
7:42.281   166421,(,0,0,2
7:42.372   166454,t,0,0,0
7:42.464   166487,),0,0,2
7:45.097   167435,(,0,0,1
7:45.117   167442,N,0,0,0
7:45.139   167450,),0,0,1
7:45.347   167525,(,0,0,2
7:45.447   167561,t,0,0,0
7:45.533   167592,),0,0,2
7:50.297   169307,(,0,0,1
7:50.314   169313,N,0,0,0
7:50.336   169321,),0,0,1
7:50.550   169398,(,0,0,2
7:50.650   169434,t,0,0,0
7:50.742   169467,),0,0,2
7:51.272   169658,(,0,0,1
7:51.294   169666,N,0,0,0
7:51.314   169673,),0,0,1
7:51.519   169747,(,0,0,2
7:51.622   169784,t,0,0,0
7:51.711   169816,),0,0,2
7:52.283   170022,(,0,0,1
7:52.308   170031,N,0,0,0
7:52.328   170038,),0,0,1
7:52.531   170111,(,0,0,2
7:52.628   170146,t,0,0,0
7:52.714   170177,),0,0,2
7:53.258   170373,(,0,0,1
7:53.281   170381,N,0,0,0
7:53.300   170388,),0,0,1
7:53.511   170464,(,0,0,2
7:53.611   170500,t,0,0,0
7:53.700   170532,),0,0,2
7:54.278   170740,(,0,0,1
7:54.325   170757,N,0,0,0
7:54.347   170765,),0,0,1
7:54.556   170840,(,0,0,2
7:54.667   170880,t,0,0,0
7:54.764   170915,),0,0,2
7:55.300   171108,(,0,0,1
7:55.325   171117,N,0,0,0
7:55.347   171125,),0,0,1
7:55.553   171199,(,0,0,2
7:55.656   171236,t,0,0,0
7:55.744   171268,),0,0,2
7:56.297   171467,(,0,0,1
7:56.319   171475,N,0,0,0
7:56.342   171483,),0,0,1
7:56.533   171552,(,0,0,2
7:56.631   171587,t,0,0,0
7:56.719   171619,),0,0,2
7:57.331   171839,(,0,0,1
7:57.350   171846,N,0,0,0
7:57.372   171854,),0,0,1
7:57.572   171926,(,0,0,2
7:57.678   171964,t,0,0,0
7:57.767   171996,),0,0,2
7:58.381   172217,(,0,0,1
7:58.400   172224,N,0,0,0
7:58.422   172232,),0,0,1
7:58.631   172307,(,0,0,2
7:58.722   172340,t,0,0,0
7:58.794   172366,),0,0,2
7:59.342   172563,(,0,0,1
7:59.367   172572,N,0,0,0
7:59.389   172580,),0,0,1
7:59.617   172662,(,0,0,2
7:59.717   172698,t,0,0,0
7:59.814   172733,),0,0,2
8:00.411   172948,(,0,0,1
8:00.433   172956,N,0,0,0
8:00.458   172965,),0,0,1
8:00.675   173043,(,0,0,2
8:00.772   173078,t,0,0,0
8:00.864   173111,),0,0,2
8:01.461   173326,(,0,0,1
8:01.486   173335,N,0,0,0
8:01.506   173342,),0,0,1
8:01.728   173422,(,0,0,2
8:01.819   173455,t,0,0,0
8:01.911   173488,),0,0,2
8:02.506   173702,(,0,0,1
8:02.525   173709,N,0,0,0
8:02.547   173717,),0,0,1
8:02.747   173789,(,0,0,2
8:02.847   173825,t,0,0,0
8:02.936   173857,),0,0,2
8:03.425   174033,(,0,0,1
8:03.442   174039,N,0,0,0
8:03.464   174047,),0,0,1
8:03.650   174114,(,0,0,2
8:03.742   174147,t,0,0,0
8:03.825   174177,),0,0,2
8:04.381   174377,(,0,0,1
8:04.403   174385,N,0,0,0
8:04.422   174392,),0,0,1
8:04.617   174462,(,0,0,2
8:04.714   174497,t,0,0,0
8:04.789   174524,),0,0,2
8:05.375   174735,(,0,0,1
8:05.400   174744,N,0,0,0
8:05.419   174751,),0,0,1
8:05.647   174833,(,0,0,2
8:05.750   174870,t,0,0,0
8:05.844   174904,),0,0,2
8:06.478   175132,(,0,0,1
8:06.503   175141,N,0,0,0
8:06.525   175149,),0,0,1
8:06.761   175234,(,0,0,2
8:06.861   175270,t,0,0,0
8:06.953   175303,),0,0,2
8:07.497   175499,(,0,0,1
8:07.519   175507,N,0,0,0
8:07.542   175515,),0,0,1
8:07.756   175592,(,0,0,2
8:07.844   175624,t,0,0,0
8:07.931   175655,),0,0,2
8:08.511   175864,(,0,0,1
8:08.536   175873,N,0,0,0
8:08.558   175881,),0,0,1
8:08.764   175955,(,0,0,2
8:08.867   175992,t,0,0,0
8:08.958   176025,),0,0,2
8:09.600   176256,(,0,0,1
8:09.619   176263,N,0,0,0
8:09.642   176271,),0,0,1
8:09.839   176342,(,0,0,2
8:09.931   176375,t,0,0,0
8:10.019   176407,),0,0,2
8:10.608   176619,(,0,0,1
8:10.622   176624,N,0,0,0
8:10.644   176632,),0,0,1
8:10.803   176689,(,0,0,2
8:10.886   176719,t,0,0,0
8:10.975   176751,),0,0,2
8:11.469   176929,(,0,0,1
8:11.489   176936,N,0,0,0
8:11.511   176944,),0,0,1
8:11.722   177020,(,0,0,2
8:11.831   177059,t,0,0,0
8:11.928   177094,),0,0,2
8:12.486   177295,(,0,0,1
8:12.533   177312,N,0,0,0
8:12.556   177320,),0,0,1
8:12.775   177399,(,0,0,2
8:12.881   177437,t,0,0,0
8:12.975   177471,),0,0,2
8:13.625   177705,(,0,0,1
8:13.650   177714,N,0,0,0
8:13.669   177721,),0,0,1
8:13.886   177799,(,0,0,2
8:13.978   177832,t,0,0,0
8:14.061   177862,),0,0,2
8:14.703   178093,(,0,0,1
8:14.725   178101,N,0,0,0
8:14.744   178108,),0,0,1
8:14.947   178181,(,0,0,2
8:15.042   178215,t,0,0,0
8:15.131   178247,),0,0,2
8:15.647   178433,(,0,0,1
8:15.669   178441,N,0,0,0
8:15.692   178449,),0,0,1
8:15.889   178520,(,0,0,2
8:15.986   178555,t,0,0,0
8:16.078   178588,),0,0,2
8:16.642   178791,(,0,0,1
8:16.667   178800,N,0,0,0
8:16.686   178807,),0,0,1
8:16.853   178867,(,0,0,2
8:16.942   178899,t,0,0,0
8:17.031   178931,),0,0,2
8:17.425   179073,(,0,0,0
8:17.436   179077,p,0,0,0
8:17.578   179128,),0,0,0
8:17.706   179174,(,0,0,1
8:17.725   179181,N,0,0,0
8:17.744   179188,),0,0,1
8:17.958   179265,(,0,0,2
8:18.053   179299,t,0,0,0
8:18.147   179333,),0,0,2
8:18.806   179570,(,0,0,1
8:18.825   179577,N,0,0,0
8:18.847   179585,),0,0,1
8:19.067   179664,(,0,0,2
8:19.167   179700,t,0,0,0
8:19.264   179735,),0,0,2
8:19.808   179931,(,0,0,1
8:19.831   179939,N,0,0,0
8:19.850   179946,),0,0,1
8:20.033   180012,(,0,0,2
8:20.147   180053,t,0,0,0
8:20.244   180088,),0,0,2
8:20.822   180296,(,0,0,1
8:20.847   180305,N,0,0,0
8:20.867   180312,),0,0,1
8:21.078   180388,(,0,0,2
8:21.178   180424,t,0,0,0
8:21.264   180455,),0,0,2
8:21.839   180662,(,0,0,1
8:21.858   180669,N,0,0,0
8:21.886   180679,),0,0,1
8:22.086   180751,(,0,0,2
8:22.175   180783,t,0,0,0
8:22.261   180814,),0,0,2
8:23.789   181364,(,0,0,1
8:23.811   181372,N,0,0,0
8:23.847   181385,),0,0,1
8:24.056   181460,(,0,0,2
8:24.156   181496,t,0,0,0
8:24.247   181529,),0,0,2
8:24.806   181730,(,0,0,1
8:24.825   181737,N,0,0,0
8:24.847   181745,),0,0,1
8:25.056   181820,(,0,0,2
8:25.147   181853,t,0,0,0
8:25.239   181886,),0,0,2
8:25.850   182106,(,0,0,1
8:25.867   182112,N,0,0,0
8:25.886   182119,),0,0,1
8:26.069   182185,(,0,0,2
8:26.169   182221,t,0,0,0
8:26.264   182255,),0,0,2
8:26.869   182473,(,0,0,1
8:26.886   182479,N,0,0,0
8:26.908   182487,),0,0,1
8:27.106   182558,(,0,0,2
8:27.206   182594,t,0,0,0
8:27.300   182628,),0,0,2
8:27.867   182832,(,0,0,1
8:27.883   182838,N,0,0,0
8:27.906   182846,),0,0,1
8:28.356   183008,(,0,0,2
8:28.386   183019,t,0,0,5
8:28.431   183035,t,0,0,5
8:28.661   183118,),0,0,2
8:29.386   183379,(,0,0,1
8:29.408   183387,N,0,0,0
8:29.428   183394,),0,0,1
8:29.622   183464,(,0,0,2
8:29.742   183507,t,0,0,0
8:29.836   183541,),0,0,2
8:30.531   183791,(,0,0,1
8:30.556   183800,N,0,0,0
8:30.578   183808,),0,0,1
8:30.794   183886,(,0,0,2
8:30.917   183930,t,0,0,0
8:31.014   183965,),0,0,2
8:31.622   184184,(,0,0,1
8:31.644   184192,N,0,0,0
8:31.667   184200,),0,0,1
8:31.864   184271,(,0,0,2
8:31.969   184309,t,0,0,0
8:32.056   184340,),0,0,2
8:32.581   184529,(,0,0,1
8:32.631   184547,N,0,0,0
8:32.653   184555,),0,0,1
8:32.856   184628,(,0,0,2
8:32.956   184664,t,0,0,0
8:33.044   184696,),0,0,2
8:33.631   184907,(,0,0,1
8:33.650   184914,N,0,0,0
8:33.672   184922,),0,0,1
8:33.867   184992,(,0,0,2
8:33.961   185026,t,0,0,0
8:34.044   185056,),0,0,2
8:34.683   185286,(,0,0,1
8:34.700   185292,N,0,0,0
8:34.722   185300,),0,0,1
8:34.872   185354,(,0,0,2
8:34.981   185393,t,0,0,0
8:35.075   185427,),0,0,2
8:35.650   185634,(,0,0,1
8:35.672   185642,N,0,0,0
8:35.692   185649,),0,0,1
8:35.906   185726,(,0,0,2
8:36.000   185760,t,0,0,0
8:36.097   185795,),0,0,2
8:37.531   186311,(,0,0,1
8:37.581   186329,N,0,0,0
8:37.603   186337,),0,0,1
8:37.814   186413,(,0,0,2
8:37.911   186448,t,0,0,0
8:37.997   186479,),0,0,2
8:40.533   187392,(,0,0,1
8:40.556   187400,N,0,0,0
8:40.578   187408,),0,0,1
8:40.758   187473,(,0,0,2
8:40.844   187504,t,0,0,0
8:40.928   187534,),0,0,2
8:41.564   187763,(,0,0,1
8:41.589   187772,N,0,0,0
8:41.611   187780,),0,0,1
8:41.842   187863,(,0,0,2
8:41.939   187898,t,0,0,0
8:42.033   187932,),0,0,2
8:42.767   188196,(,0,0,1
8:42.789   188204,N,0,0,0
8:42.811   188212,),0,0,1
8:43.008   188283,(,0,0,2
8:43.111   188320,t,0,0,0
8:43.200   188352,),0,0,2
8:44.794   188926,(,0,0,1
8:44.814   188933,N,0,0,0
8:44.833   188940,),0,0,1
8:45.044   189016,(,0,0,2
8:45.142   189051,t,0,0,0
8:45.233   189084,),0,0,2
8:45.858   189309,(,0,0,1
8:45.881   189317,N,0,0,0
8:45.903   189325,),0,0,1
8:46.103   189397,(,0,0,2
8:46.203   189433,t,0,0,0
8:46.292   189465,),0,0,2
8:47.861   190030,(,0,0,1
8:47.914   190049,N,0,0,0
8:47.936   190057,),0,0,1
8:48.150   190134,(,0,0,2
8:48.244   190168,t,0,0,0
8:48.336   190201,),0,0,2
8:48.917   190410,(,0,0,1
8:48.942   190419,N,0,0,0
8:48.961   190426,),0,0,1
8:49.164   190499,(,0,0,2
8:49.269   190537,t,0,0,0
8:49.364   190571,),0,0,2
8:51.019   191167,(,0,0,1
8:51.039   191174,N,0,0,0
8:51.058   191181,),0,0,1
8:51.253   191251,(,0,0,2
8:51.344   191284,t,0,0,0
8:51.433   191316,),0,0,2
8:51.944   191500,(,0,0,1
8:51.964   191507,N,0,0,0
8:51.983   191514,),0,0,1
8:52.189   191588,(,0,0,2
8:52.292   191625,t,0,0,0
8:52.383   191658,),0,0,2
8:52.889   191840,(,0,0,1
8:52.906   191846,N,0,0,0
8:52.928   191854,),0,0,1
8:53.128   191926,(,0,0,2
8:53.233   191964,t,0,0,0
8:53.325   191997,),0,0,2
8:53.961   192226,(,0,0,1
8:53.986   192235,N,0,0,0
8:54.008   192243,),0,0,1
8:54.236   192325,(,0,0,2
8:54.331   192359,t,0,0,0
8:54.422   192392,),0,0,2
8:55.067   192624,(,0,0,1
8:55.089   192632,N,0,0,0
8:55.111   192640,),0,0,1
8:55.314   192713,(,0,0,2
8:55.411   192748,t,0,0,0
8:55.503   192781,),0,0,2
8:56.997   193319,(,0,0,1
8:57.019   193327,N,0,0,0
8:57.039   193334,),0,0,1
8:57.233   193404,(,0,0,2
8:57.325   193437,t,0,0,0
8:57.414   193469,),0,0,2
8:57.994   193678,(,0,0,1
8:58.014   193685,N,0,0,0
8:58.033   193692,),0,0,1
8:58.228   193762,(,0,0,2
8:58.322   193796,t,0,0,0
8:58.411   193828,),0,0,2
8:58.956   194024,(,0,0,1
8:59.008   194043,N,0,0,0
8:59.028   194050,),0,0,1
8:59.236   194125,(,0,0,2
8:59.353   194167,t,0,0,0
8:59.453   194203,),0,0,2
9:00.042   194415,(,0,0,1
9:00.061   194422,N,0,0,0
9:00.083   194430,),0,0,1
9:00.303   194509,(,0,0,2
9:00.408   194547,t,0,0,0
9:00.508   194583,),0,0,2
9:01.069   194785,(,0,0,1
9:01.092   194793,N,0,0,0
9:01.111   194800,),0,0,1
9:01.328   194878,(,0,0,2
9:01.428   194914,t,0,0,0
9:01.519   194947,),0,0,2
9:02.133   195168,(,0,0,1
9:02.158   195177,N,0,0,0
9:02.181   195185,),0,0,1
9:02.378   195256,(,0,0,2
9:02.478   195292,t,0,0,0
9:02.564   195323,),0,0,2
9:03.206   195554,(,0,0,1
9:03.222   195560,N,0,0,0
9:03.242   195567,),0,0,1
9:03.447   195641,(,0,0,2
9:03.544   195676,t,0,0,0
9:03.633   195708,),0,0,2
9:04.211   195916,(,0,0,1
9:04.231   195923,N,0,0,0
9:04.256   195932,),0,0,1
9:04.453   196003,(,0,0,2
9:04.544   196036,t,0,0,0
9:04.633   196068,),0,0,2
9:05.181   196265,(,0,0,1
9:05.203   196273,N,0,0,0
9:05.222   196280,),0,0,1
9:05.428   196354,(,0,0,2
9:05.533   196392,t,0,0,0
9:05.631   196427,),0,0,2
9:12.572   198926,(,0,0,1
9:12.603   198937,N,0,0,0
9:12.664   198959,),0,0,1
9:12.839   199022,(,0,0,2
9:12.944   199060,t,0,0,0
9:13.039   199094,),0,0,2
9:13.697   199331,(,0,0,1
9:13.731   199343,N,0,0,0
9:13.786   199363,),0,0,1
9:13.958   199425,(,0,0,2
9:14.039   199454,t,0,0,0
9:14.122   199484,),0,0,2
9:14.594   199654,(,0,0,0
9:14.639   199670,p,0,0,0
9:14.672   199682,),0,0,0
9:14.742   199707,(,0,0,1
9:14.772   199718,N,0,0,0
9:14.825   199737,),0,0,1
9:14.978   199792,(,0,0,2
9:15.078   199828,t,0,0,0
9:15.167   199860,),0,0,2
9:15.528   199990,(,0,0,0
9:15.567   200004,p,0,0,0
9:15.606   200018,),0,0,0
9:15.669   200041,(,0,0,1
9:15.697   200051,N,0,0,0
9:15.753   200071,),0,0,1
9:15.922   200132,(,0,0,2
9:16.019   200167,t,0,0,0
9:16.114   200201,),0,0,2
9:16.419   200311,(,0,0,0
9:16.461   200326,p,0,0,0
9:16.500   200340,),0,0,0
9:16.567   200364,(,0,0,1
9:16.597   200375,N,0,0,0
9:16.650   200394,),0,0,1
9:16.783   200442,(,0,0,2
9:16.878   200476,t,0,0,0
9:16.969   200509,),0,0,2
9:17.314   200633,(,0,0,0
9:17.361   200650,p,0,0,0
9:17.403   200665,),0,0,0
9:17.483   200694,(,0,0,1
9:17.514   200705,N,0,0,0
9:17.578   200728,),0,0,1
9:17.767   200796,(,0,0,2
9:17.878   200836,t,0,0,0
9:17.972   200870,),0,0,2
9:18.653   201115,(,0,0,1
9:18.686   201127,N,0,0,0
9:18.744   201148,),0,0,1
9:18.928   201214,(,0,0,2
9:19.019   201247,t,0,0,0
9:19.111   201280,),0,0,2
9:19.553   201439,(,0,0,0
9:19.600   201456,p,0,0,0
9:19.633   201468,),0,0,0
9:19.700   201492,(,0,0,1
9:19.731   201503,N,0,0,0
9:19.786   201523,),0,0,1
9:19.958   201585,(,0,0,2
9:20.036   201613,t,0,0,0
9:20.131   201647,),0,0,2
9:20.647   201833,(,0,0,0
9:20.692   201849,p,0,0,0
9:20.725   201861,),0,0,0
9:20.797   201887,(,0,0,1
9:20.828   201898,N,0,0,0
9:20.883   201918,),0,0,1
9:21.053   201979,(,0,0,2
9:21.142   202011,t,0,0,0
9:21.231   202043,),0,0,2
9:21.750   202230,(,0,0,0
9:21.789   202244,p,0,0,0
9:21.825   202257,),0,0,0
9:21.886   202279,(,0,0,1
9:21.914   202289,N,0,0,0
9:21.967   202308,),0,0,1
9:22.131   202367,(,0,0,2
9:22.222   202400,t,0,0,0
9:22.314   202433,),0,0,2
9:22.883   202638,(,0,0,1
9:22.914   202649,N,0,0,0
9:22.972   202670,),0,0,1
9:23.153   202735,(,0,0,2
9:23.247   202769,t,0,0,0
9:23.339   202802,),0,0,2
9:23.708   202935,(,0,0,0
9:23.753   202951,p,0,0,0
9:23.794   202966,),0,0,0
9:23.869   202993,(,0,0,1
9:23.903   203005,N,0,0,0
9:23.961   203026,),0,0,1
9:24.150   203094,(,0,0,2
9:24.247   203129,t,0,0,0
9:24.339   203162,),0,0,2
9:24.794   203326,(,0,0,0
9:24.836   203341,p,0,0,0
9:24.875   203355,),0,0,0
9:24.953   203383,(,0,0,1
9:24.983   203394,N,0,0,0
9:25.039   203414,),0,0,1
9:25.211   203476,(,0,0,2
9:25.311   203512,t,0,0,0
9:25.403   203545,),0,0,2
9:25.889   203720,(,0,0,0
9:25.931   203735,p,0,0,0
9:25.964   203747,),0,0,0
9:26.019   203767,(,0,0,1
9:26.047   203777,N,0,0,0
9:26.100   203796,),0,0,1
9:26.272   203858,(,0,0,2
9:26.367   203892,t,0,0,0
9:26.458   203925,),0,0,2
9:26.922   204092,(,0,0,0
9:26.972   204110,p,0,0,0
9:27.006   204122,),0,0,0
9:27.075   204147,(,0,0,1
9:27.106   204158,N,0,0,0
9:27.164   204179,),0,0,1
9:27.325   204237,(,0,0,2
9:27.431   204275,t,0,0,0
9:27.522   204308,),0,0,2
9:28.081   204509,(,0,0,1
9:28.111   204520,N,0,0,0
9:28.167   204540,),0,0,1
9:28.331   204599,(,0,0,2
9:28.431   204635,t,0,0,0
9:28.522   204668,),0,0,2
9:29.044   204856,(,0,0,1
9:29.075   204867,N,0,0,0
9:29.131   204887,),0,0,1
9:29.294   204946,(,0,0,2
9:29.408   204987,t,0,0,0
9:29.511   205024,),0,0,2
9:29.994   205198,(,0,0,0
9:30.044   205216,p,0,0,0
9:30.081   205229,),0,0,0
9:30.158   205257,(,0,0,1
9:30.192   205269,N,0,0,0
9:30.250   205290,),0,0,1
9:30.419   205351,(,0,0,2
9:30.522   205388,t,0,0,0
9:30.619   205423,),0,0,2
9:31.111   205600,(,0,0,0
9:31.156   205616,p,0,0,0
9:31.192   205629,),0,0,0
9:31.261   205654,(,0,0,1
9:31.292   205665,N,0,0,0
9:31.350   205686,),0,0,1
9:31.517   205746,(,0,0,2
9:31.625   205785,t,0,0,0
9:31.717   205818,),0,0,2
9:32.083   205950,(,0,0,0
9:32.128   205966,p,0,0,0
9:32.167   205980,),0,0,0
9:32.236   206005,(,0,0,1
9:32.267   206016,N,0,0,0
9:32.322   206036,),0,0,1
9:32.483   206094,(,0,0,2
9:32.586   206131,t,0,0,0
9:32.675   206163,),0,0,2
9:33.019   206287,(,0,0,0
9:33.058   206301,p,0,0,0
9:33.094   206314,),0,0,0
9:33.161   206338,(,0,0,1
9:33.192   206349,N,0,0,0
9:33.247   206369,),0,0,1
9:33.403   206425,(,0,0,2
9:33.497   206459,t,0,0,0
9:33.583   206490,),0,0,2
9:34.000   206640,(,0,0,0
9:34.042   206655,p,0,0,0
9:34.081   206669,),0,0,0
9:34.150   206694,(,0,0,1
9:34.181   206705,N,0,0,0
9:34.236   206725,),0,0,1
9:34.408   206787,(,0,0,2
9:34.506   206822,t,0,0,0
9:34.600   206856,),0,0,2
9:35.125   207045,(,0,0,1
9:35.156   207056,N,0,0,0
9:35.211   207076,),0,0,1
9:35.383   207138,(,0,0,2
9:35.497   207179,t,0,0,0
9:35.600   207216,),0,0,2
9:35.933   207336,(,0,0,0
9:35.978   207352,p,0,0,0
9:36.014   207365,),0,0,0
9:36.089   207392,(,0,0,1
9:36.117   207402,N,0,0,0
9:36.175   207423,),0,0,1
9:36.347   207485,(,0,0,2
9:36.450   207522,t,0,0,0
9:36.542   207555,),0,0,2
9:36.936   207697,(,0,0,0
9:36.978   207712,p,0,0,0
9:37.019   207727,),0,0,0
9:37.092   207753,(,0,0,1
9:37.122   207764,N,0,0,0
9:37.181   207785,),0,0,1
9:37.364   207851,(,0,0,2
9:37.467   207888,t,0,0,0
9:37.556   207920,),0,0,2
9:37.981   208073,(,0,0,0
9:38.022   208088,p,0,0,0
9:38.061   208102,),0,0,0
9:38.136   208129,(,0,0,1
9:38.167   208140,N,0,0,0
9:38.225   208161,),0,0,1
9:38.392   208221,(,0,0,2
9:38.494   208258,t,0,0,0
9:38.583   208290,),0,0,2
9:39.067   208464,(,0,0,0
9:39.111   208480,p,0,0,0
9:39.147   208493,),0,0,0
9:39.211   208516,(,0,0,1
9:39.242   208527,N,0,0,0
9:39.297   208547,),0,0,1
9:39.444   208600,(,0,0,2
9:39.550   208638,t,0,0,0
9:39.639   208670,),0,0,2
9:39.972   208790,(,0,0,0
9:40.019   208807,p,0,0,0
9:40.058   208821,),0,0,0
9:40.131   208847,(,0,0,1
9:40.158   208857,N,0,0,0
9:40.214   208877,),0,0,1
9:40.367   208932,(,0,0,2
9:40.464   208967,t,0,0,0
9:40.547   208997,),0,0,2
9:40.825   209097,(,0,0,0
9:40.867   209112,p,0,0,0
9:40.906   209126,),0,0,0
9:40.975   209151,(,0,0,1
9:41.006   209162,N,0,0,0
9:41.064   209183,),0,0,1
9:41.231   209243,(,0,0,2
9:41.336   209281,t,0,0,0
9:41.428   209314,),0,0,2
9:42.117   209562,(,0,0,1
9:42.147   209573,N,0,0,0
9:42.203   209593,),0,0,1
9:42.372   209654,(,0,0,2
9:42.483   209694,t,0,0,0
9:42.581   209729,),0,0,2
9:43.089   209912,(,0,0,0
9:43.128   209926,p,0,0,0
9:43.164   209939,),0,0,0
9:43.231   209963,(,0,0,1
9:43.261   209974,N,0,0,0
9:43.317   209994,),0,0,1
9:43.489   210056,(,0,0,2
9:43.594   210094,t,0,0,0
9:43.683   210126,),0,0,2
9:44.069   210265,(,0,0,0
9:44.119   210283,p,0,0,0
9:44.153   210295,),0,0,0
9:44.225   210321,(,0,0,1
9:44.256   210332,N,0,0,0
9:44.317   210354,),0,0,1
9:44.492   210417,(,0,0,2
9:44.592   210453,t,0,0,0
9:44.675   210483,),0,0,2
9:45.250   210690,(,0,0,1
9:45.281   210701,N,0,0,0
9:45.336   210721,),0,0,1
9:45.506   210782,(,0,0,2
9:45.600   210816,t,0,0,0
9:45.683   210846,),0,0,2
9:46.317   211074,(,0,0,1
9:46.347   211085,N,0,0,0
9:46.403   211105,),0,0,1
9:46.561   211162,(,0,0,2
9:46.656   211196,t,0,0,0
9:46.739   211226,),0,0,2
9:47.194   211390,(,0,0,0
9:47.242   211407,p,0,0,0
9:47.275   211419,),0,0,0
9:47.344   211444,(,0,0,1
9:47.375   211455,N,0,0,0
9:47.431   211475,),0,0,1
9:47.600   211536,(,0,0,2
9:47.706   211574,t,0,0,0
9:47.800   211608,),0,0,2
9:48.225   211761,(,0,0,0
9:48.267   211776,p,0,0,0
9:48.306   211790,),0,0,0
9:48.381   211817,(,0,0,1
9:48.411   211828,N,0,0,0
9:48.475   211851,),0,0,1
9:48.661   211918,(,0,0,2
9:48.767   211956,t,0,0,0
9:48.858   211989,),0,0,2
9:49.508   212223,(,0,0,1
9:49.536   212233,N,0,0,0
9:49.594   212254,),0,0,1
9:49.772   212318,(,0,0,2
9:49.867   212352,t,0,0,0
9:49.958   212385,),0,0,2
9:50.553   212599,(,0,0,1
9:50.583   212610,N,0,0,0
9:50.639   212630,),0,0,1
9:50.808   212691,(,0,0,2
9:50.908   212727,t,0,0,0
9:50.994   212758,),0,0,2
9:51.625   212985,(,0,0,1
9:51.653   212995,N,0,0,0
9:51.708   213015,),0,0,1
9:51.864   213071,(,0,0,2
9:51.964   213107,t,0,0,0
9:52.050   213138,),0,0,2
9:52.500   213300,(,0,0,0
9:52.542   213315,p,0,0,0
9:52.578   213328,),0,0,0
9:52.642   213351,(,0,0,1
9:52.672   213362,N,0,0,0
9:52.719   213379,),0,0,1
9:52.839   213422,(,0,0,2
9:52.947   213461,t,0,0,0
9:53.042   213495,),0,0,2
9:53.447   213641,(,0,0,0
9:53.494   213658,p,0,0,0
9:53.533   213672,),0,0,0
9:53.606   213698,(,0,0,1
9:53.636   213709,N,0,0,0
9:53.692   213729,),0,0,1
9:53.867   213792,(,0,0,2
9:53.969   213829,t,0,0,0
9:54.064   213863,),0,0,2
9:54.525   214029,(,0,0,0
9:54.569   214045,p,0,0,0
9:54.606   214058,),0,0,0
9:54.675   214083,(,0,0,1
9:54.706   214094,N,0,0,0
9:54.761   214114,),0,0,1
9:54.936   214177,(,0,0,2
9:55.031   214211,t,0,0,0
9:55.119   214243,),0,0,2
9:55.617   214422,(,0,0,0
9:55.658   214437,p,0,0,0
9:55.694   214450,),0,0,0
9:55.767   214476,(,0,0,1
9:55.797   214487,N,0,0,0
9:55.853   214507,),0,0,1
9:56.003   214561,(,0,0,2
9:56.117   214602,t,0,0,0
9:56.217   214638,),0,0,2
9:56.814   214853,(,0,0,1
9:56.844   214864,N,0,0,0
9:56.903   214885,),0,0,1
9:57.072   214946,(,0,0,2
9:57.167   214980,t,0,0,0
9:57.256   215012,),0,0,2
9:57.583   215130,(,0,0,0
9:57.625   215145,p,0,0,0
9:57.661   215158,),0,0,0
9:57.728   215182,(,0,0,1
9:57.758   215193,N,0,0,0
9:57.814   215213,),0,0,1
9:57.986   215275,(,0,0,2
9:58.078   215308,t,0,0,0
9:58.167   215340,),0,0,2
9:58.586   215491,(,0,0,0
9:58.633   215508,p,0,0,0
9:58.669   215521,),0,0,0
9:58.725   215541,(,0,0,1
9:58.753   215551,N,0,0,0
9:58.797   215567,),0,0,1
9:58.947   215621,(,0,0,2
9:59.042   215655,t,0,0,0
9:59.131   215687,),0,0,2
9:59.669   215881,(,0,0,0
9:59.714   215897,p,0,0,0
9:59.753   215911,),0,0,0
9:59.822   215936,(,0,0,1
9:59.856   215948,N,0,0,0
9:59.908   215967,),0,0,1
   10:00.089   216032,(,0,0,2
   10:00.197   216071,t,0,0,0
   10:00.294   216106,),0,0,2
   10:00.958   216345,(,0,0,1
   10:00.986   216355,N,0,0,0
   10:01.044   216376,),0,0,1
   10:01.211   216436,(,0,0,2
   10:01.314   216473,t,0,0,0
   10:01.408   216507,),0,0,2
   10:01.797   216647,(,0,0,0
   10:01.842   216663,p,0,0,0
   10:01.875   216675,),0,0,0
   10:01.939   216698,(,0,0,1
   10:01.969   216709,N,0,0,0
   10:02.017   216726,),0,0,1
   10:02.175   216783,(,0,0,2
   10:02.275   216819,t,0,0,0
   10:02.364   216851,),0,0,2
   10:02.833   217020,(,0,0,0
   10:02.878   217036,p,0,0,0
   10:02.914   217049,),0,0,0
   10:02.983   217074,(,0,0,1
   10:03.014   217085,N,0,0,0
   10:03.072   217106,),0,0,1
   10:03.247   217169,(,0,0,2
   10:03.347   217205,t,0,0,0
   10:03.436   217237,),0,0,2
   10:04.075   217467,(,0,0,1
   10:04.106   217478,N,0,0,0
   10:04.161   217498,),0,0,1
   10:04.322   217556,(,0,0,2
   10:04.428   217594,t,0,0,0
   10:04.514   217625,),0,0,2
   10:05.022   217808,(,0,0,1
   10:05.053   217819,N,0,0,0
   10:05.111   217840,),0,0,1
   10:05.283   217902,(,0,0,2
   10:05.383   217938,t,0,0,0
   10:05.475   217971,),0,0,2
   10:05.836   218101,(,0,0,0
   10:05.892   218121,p,0,0,0
   10:05.931   218135,),0,0,0
   10:06.008   218163,(,0,0,1
   10:06.039   218174,N,0,0,0
   10:06.097   218195,),0,0,1
   10:06.267   218256,(,0,0,2
   10:06.361   218290,t,0,0,0
   10:06.453   218323,),0,0,2
   10:06.903   218485,(,0,0,0
   10:06.944   218500,p,0,0,0
   10:06.983   218514,),0,0,0
   10:07.056   218540,(,0,0,1
   10:07.083   218550,N,0,0,0
   10:07.139   218570,),0,0,1
   10:07.319   218635,(,0,0,2
   10:07.417   218670,t,0,0,0
   10:07.514   218705,),0,0,2
   10:07.944   218860,(,0,0,0
   10:07.986   218875,p,0,0,0
   10:08.019   218887,),0,0,0
   10:08.078   218908,(,0,0,1
   10:08.108   218919,N,0,0,0
   10:08.164   218939,),0,0,1
   10:08.331   218999,(,0,0,2
   10:08.431   219035,t,0,0,0
   10:08.519   219067,),0,0,2
   10:08.919   219211,(,0,0,0
   10:08.961   219226,p,0,0,0
   10:08.994   219238,),0,0,0
   10:09.058   219261,(,0,0,1
   10:09.089   219272,N,0,0,0
   10:09.142   219291,),0,0,1
   10:09.292   219345,(,0,0,2
   10:09.394   219382,t,0,0,0
   10:09.483   219414,),0,0,2
   10:09.792   219525,(,0,0,0
   10:09.833   219540,p,0,0,0
   10:09.872   219554,),0,0,0
   10:09.944   219580,(,0,0,1
   10:09.975   219591,N,0,0,0
   10:10.033   219612,),0,0,1
   10:10.203   219673,(,0,0,2
   10:10.300   219708,t,0,0,0
   10:10.389   219740,),0,0,2
   10:10.917   219930,(,0,0,1
   10:10.947   219941,N,0,0,0
   10:11.003   219961,),0,0,1
   10:11.181   220025,(,0,0,2
   10:11.286   220063,t,0,0,0
   10:11.386   220099,),0,0,2
   10:12.006   220322,(,0,0,1
   10:12.036   220333,N,0,0,0
   10:12.089   220352,),0,0,1
   10:12.264   220415,(,0,0,2
   10:12.369   220453,t,0,0,0
   10:12.467   220488,),0,0,2
   10:12.875   220635,(,0,0,0
   10:12.922   220652,p,0,0,0
   10:12.958   220665,),0,0,0
   10:13.031   220691,(,0,0,1
   10:13.061   220702,N,0,0,0
   10:13.122   220724,),0,0,1
   10:13.300   220788,(,0,0,2
   10:13.400   220824,t,0,0,0
   10:13.494   220858,),0,0,2
   10:13.825   220977,(,0,0,0
   10:13.867   220992,p,0,0,0
   10:13.900   221004,),0,0,0
   10:13.969   221029,(,0,0,1
   10:13.997   221039,N,0,0,0
   10:14.050   221058,),0,0,1
   10:14.231   221123,(,0,0,2
   10:14.328   221158,t,0,0,0
   10:14.414   221189,),0,0,2
   10:14.806   221330,(,0,0,0
   10:14.853   221347,p,0,0,0
   10:14.889   221360,),0,0,0
   10:14.961   221386,(,0,0,1
   10:14.992   221397,N,0,0,0
   10:15.047   221417,),0,0,1
   10:15.217   221478,(,0,0,2
   10:15.306   221510,t,0,0,0
   10:15.392   221541,),0,0,2
   10:15.811   221692,(,0,0,0
   10:15.856   221708,p,0,0,0
   10:15.892   221721,),0,0,0
   10:15.958   221745,(,0,0,1
   10:15.989   221756,N,0,0,0
   10:16.044   221776,),0,0,1
   10:16.203   221833,(,0,0,2
   10:16.297   221867,t,0,0,0
   10:16.381   221897,),0,0,2
   10:16.864   222071,(,0,0,1
   10:16.894   222082,N,0,0,0
   10:16.953   222103,),0,0,1
   10:17.119   222163,(,0,0,2
   10:17.225   222201,t,0,0,0
   10:17.319   222235,),0,0,2
   10:17.711   222376,(,0,0,0
   10:17.769   222397,p,0,0,0
   10:17.806   222410,),0,0,0
   10:17.889   222440,(,0,0,1
   10:17.919   222451,N,0,0,0
   10:17.981   222473,),0,0,1
   10:18.150   222534,(,0,0,2
   10:18.256   222572,t,0,0,0
   10:18.344   222604,),0,0,2
   10:18.989   222836,(,0,0,1
   10:19.019   222847,N,0,0,0
   10:19.072   222866,),0,0,1
   10:19.236   222925,(,0,0,2
   10:19.333   222960,t,0,0,0
   10:19.425   222993,),0,0,2
   10:19.908   223167,(,0,0,0
   10:19.947   223181,p,0,0,0
   10:19.978   223192,),0,0,0
   10:20.033   223212,(,0,0,1
   10:20.064   223223,N,0,0,0
   10:20.119   223243,),0,0,1
   10:20.297   223307,(,0,0,2
   10:20.403   223345,t,0,0,0
   10:20.497   223379,),0,0,2
   10:20.975   223551,(,0,0,0
   10:21.014   223565,p,0,0,0
   10:21.047   223577,),0,0,0
   10:21.119   223603,(,0,0,1
   10:21.147   223613,N,0,0,0
   10:21.206   223634,),0,0,1
   10:21.378   223696,(,0,0,2
   10:21.472   223730,t,0,0,0
   10:21.558   223761,),0,0,2
   10:22.114   223961,(,0,0,1
   10:22.144   223972,N,0,0,0
   10:22.200   223992,),0,0,1
   10:22.372   224054,(,0,0,2
   10:22.456   224084,t,0,0,0
   10:22.542   224115,),0,0,2
   10:23.128   224326,(,0,0,1
   10:23.158   224337,N,0,0,0
   10:23.214   224357,),0,0,1
   10:23.386   224419,(,0,0,2
   10:23.486   224455,t,0,0,0
   10:23.581   224489,),0,0,2
   10:24.275   224739,(,0,0,1
   10:24.306   224750,N,0,0,0
   10:24.364   224771,),0,0,1
   10:24.553   224839,(,0,0,2
   10:24.664   224879,t,0,0,0
   10:24.761   224914,),0,0,2
   10:25.225   225081,(,0,0,0
   10:25.275   225099,p,0,0,0
   10:25.308   225111,),0,0,0
   10:25.378   225136,(,0,0,1
   10:25.408   225147,N,0,0,0
   10:25.467   225168,),0,0,1
   10:25.633   225228,(,0,0,2
   10:25.736   225265,t,0,0,0
   10:25.828   225298,),0,0,2
   10:26.167   225420,(,0,0,0
   10:26.214   225437,p,0,0,0
   10:26.250   225450,),0,0,0
   10:26.314   225473,(,0,0,1
   10:26.344   225484,N,0,0,0
   10:26.397   225503,),0,0,1
   10:26.567   225564,(,0,0,2
   10:26.667   225600,t,0,0,0
   10:26.758   225633,),0,0,2
   10:27.186   225787,(,0,0,0
   10:27.228   225802,p,0,0,0
   10:27.264   225815,),0,0,0
   10:27.333   225840,(,0,0,1
   10:27.364   225851,N,0,0,0
   10:27.419   225871,),0,0,1
   10:27.589   225932,(,0,0,2
   10:27.683   225966,t,0,0,0
   10:27.772   225998,),0,0,2
   10:28.378   226216,(,0,0,1
   10:28.406   226226,N,0,0,0
   10:28.461   226246,),0,0,1
   10:28.628   226306,(,0,0,2
   10:28.708   226335,t,0,0,0
   10:28.781   226361,),0,0,2
   10:29.228   226522,(,0,0,0
   10:29.275   226539,p,0,0,0
   10:29.308   226551,),0,0,0
   10:29.386   226579,(,0,0,1
   10:29.417   226590,N,0,0,0
   10:29.478   226612,),0,0,1
   10:29.644   226672,(,0,0,2
   10:29.750   226710,t,0,0,0
   10:29.844   226744,),0,0,2
   10:30.267   226896,(,0,0,0
   10:30.311   226912,p,0,0,0
   10:30.353   226927,),0,0,0
   10:30.425   226953,(,0,0,1
   10:30.456   226964,N,0,0,0
   10:30.511   226984,),0,0,1
   10:30.686   227047,(,0,0,2
   10:30.786   227083,t,0,0,0
   10:30.878   227116,),0,0,2
   10:31.339   227282,(,0,0,0
   10:31.381   227297,p,0,0,0
   10:31.417   227310,),0,0,0
   10:31.494   227338,(,0,0,1
   10:31.525   227349,N,0,0,0
   10:31.581   227369,),0,0,1
   10:31.758   227433,(,0,0,2
   10:31.858   227469,t,0,0,0
   10:31.950   227502,),0,0,2
   10:32.386   227659,(,0,0,0
   10:32.428   227674,p,0,0,0
   10:32.464   227687,),0,0,0
   10:32.531   227711,(,0,0,1
   10:32.561   227722,N,0,0,0
   10:32.617   227742,),0,0,1
   10:32.783   227802,(,0,0,2
   10:32.886   227839,t,0,0,0
   10:32.978   227872,),0,0,2
   10:33.506   228062,(,0,0,1
   10:33.533   228072,N,0,0,0
   10:33.589   228092,),0,0,1
   10:33.750   228150,(,0,0,2
   10:33.853   228187,t,0,0,0
   10:33.942   228219,),0,0,2
   10:34.222   228320,(,0,0,0
   10:34.267   228336,p,0,0,0
   10:34.306   228350,),0,0,0
   10:34.375   228375,(,0,0,1
   10:34.403   228385,N,0,0,0
   10:34.461   228406,),0,0,1
   10:34.631   228467,(,0,0,2
   10:34.711   228496,t,0,0,0
   10:34.781   228521,),0,0,2
   10:35.089   228632,(,0,0,0
   10:35.131   228647,p,0,0,0
   10:35.169   228661,),0,0,0
   10:35.250   228690,(,0,0,1
   10:35.281   228701,N,0,0,0
   10:35.344   228724,),0,0,1
   10:35.536   228793,(,0,0,2
   10:35.631   228827,t,0,0,0
   10:35.722   228860,),0,0,2
   10:36.328   229078,(,0,0,1
   10:36.361   229090,N,0,0,0
   10:36.425   229113,),0,0,1
   10:36.614   229181,(,0,0,2
   10:36.706   229214,t,0,0,0
   10:36.797   229247,),0,0,2
   10:37.289   229424,(,0,0,0
   10:37.328   229438,p,0,0,0
   10:37.367   229452,),0,0,0
   10:37.439   229478,(,0,0,1
   10:37.467   229488,N,0,0,0
   10:37.522   229508,),0,0,1
   10:37.697   229571,(,0,0,2
   10:37.786   229603,t,0,0,0
   10:37.872   229634,),0,0,2
   10:38.433   229836,(,0,0,1
   10:38.464   229847,N,0,0,0
   10:38.522   229868,),0,0,1
   10:38.703   229933,(,0,0,2
   10:38.797   229967,t,0,0,0
   10:38.886   229999,),0,0,2
   10:39.453   230203,(,0,0,1
   10:39.481   230213,N,0,0,0
   10:39.533   230232,),0,0,1
   10:39.694   230290,(,0,0,2
   10:39.792   230325,t,0,0,0
   10:39.883   230358,),0,0,2
   10:40.333   230520,(,0,0,0
   10:40.375   230535,p,0,0,0
   10:40.411   230548,),0,0,0
   10:40.469   230569,(,0,0,1
   10:40.500   230580,N,0,0,0
   10:40.550   230598,),0,0,1
   10:40.706   230654,(,0,0,2
   10:40.786   230683,t,0,0,0
   10:40.864   230711,),0,0,2
   10:41.447   230921,(,0,0,1
   10:41.481   230933,N,0,0,0
   10:41.542   230955,),0,0,1
   10:41.728   231022,(,0,0,2
   10:41.828   231058,t,0,0,0
   10:41.914   231089,),0,0,2
   10:42.294   231226,(,0,0,0
   10:42.339   231242,p,0,0,0
   10:42.381   231257,),0,0,0
   10:42.464   231287,(,0,0,1
   10:42.497   231299,N,0,0,0
   10:42.558   231321,),0,0,1
   10:42.736   231385,(,0,0,2
   10:42.836   231421,t,0,0,0
   10:42.928   231454,),0,0,2
   10:43.394   231622,(,0,0,0
   10:43.439   231638,p,0,0,0
   10:43.478   231652,),0,0,0
   10:43.547   231677,(,0,0,1
   10:43.578   231688,N,0,0,0
   10:43.633   231708,),0,0,1
   10:43.797   231767,(,0,0,2
   10:43.892   231801,t,0,0,0
   10:43.975   231831,),0,0,2
   10:44.442   231999,(,0,0,0
   10:44.483   232014,p,0,0,0
   10:44.517   232026,),0,0,0
   10:44.586   232051,(,0,0,1
   10:44.617   232062,N,0,0,0
   10:44.669   232081,),0,0,1
   10:44.839   232142,(,0,0,2
   10:44.928   232174,t,0,0,0
   10:45.019   232207,),0,0,2
   10:45.411   232348,(,0,0,0
   10:45.453   232363,p,0,0,0
   10:45.486   232375,),0,0,0
   10:45.558   232401,(,0,0,1
   10:45.586   232411,N,0,0,0
   10:45.644   232432,),0,0,1
   10:45.814   232493,(,0,0,2
   10:45.911   232528,t,0,0,0
   10:46.000   232560,),0,0,2
   10:46.394   232702,(,0,0,0
   10:46.436   232717,p,0,0,0
   10:46.472   232730,),0,0,0
   10:46.539   232754,(,0,0,1
   10:46.569   232765,N,0,0,0
   10:46.619   232783,),0,0,1
   10:46.756   232832,(,0,0,2
   10:46.847   232865,t,0,0,0
   10:46.942   232899,),0,0,2
   10:47.536   233113,(,0,0,1
   10:47.567   233124,N,0,0,0
   10:47.622   233144,),0,0,1
   10:47.806   233210,(,0,0,2
   10:47.911   233248,t,0,0,0
   10:48.003   233281,),0,0,2
   10:48.683   233526,(,0,0,1
   10:48.714   233537,N,0,0,0
   10:48.772   233558,),0,0,1
   10:48.936   233617,(,0,0,2
   10:49.036   233653,t,0,0,0
   10:49.128   233686,),0,0,2
   10:49.594   233854,(,0,0,0
   10:49.633   233868,p,0,0,0
   10:49.667   233880,),0,0,0
   10:49.736   233905,(,0,0,1
   10:49.767   233916,N,0,0,0
   10:49.819   233935,),0,0,1
   10:49.967   233988,(,0,0,2
   10:50.069   234025,t,0,0,0
   10:50.169   234061,),0,0,2
   10:50.567   234204,(,0,0,0
   10:50.611   234220,p,0,0,0
   10:50.647   234233,),0,0,0
   10:50.714   234257,(,0,0,1
   10:50.744   234268,N,0,0,0
   10:50.800   234288,),0,0,1
   10:50.967   234348,(,0,0,2
   10:51.061   234382,t,0,0,0
   10:51.150   234414,),0,0,2
   10:51.753   234631,(,0,0,1
   10:51.781   234641,N,0,0,0
   10:51.836   234661,),0,0,1
   10:51.994   234718,(,0,0,2
   10:52.094   234754,t,0,0,0
   10:52.186   234787,),0,0,2
   10:52.644   234952,(,0,0,0
   10:52.689   234968,p,0,0,0
   10:52.717   234978,),0,0,0
   10:52.767   234996,(,0,0,1
   10:52.794   235006,N,0,0,0
   10:52.844   235024,),0,0,1
   10:53.025   235089,(,0,0,2
   10:53.128   235126,t,0,0,0
   10:53.225   235161,),0,0,2
   10:53.692   235329,(,0,0,0
   10:53.731   235343,p,0,0,0
   10:53.767   235356,),0,0,0
   10:53.847   235385,(,0,0,1
   10:53.881   235397,N,0,0,0
   10:53.942   235419,),0,0,1
   10:54.122   235484,(,0,0,2
   10:54.225   235521,t,0,0,0
   10:54.322   235556,),0,0,2
   10:54.678   235684,(,0,0,0
   10:54.722   235700,p,0,0,0
   10:54.758   235713,),0,0,0
   10:54.836   235741,(,0,0,1
   10:54.867   235752,N,0,0,0
   10:54.928   235774,),0,0,1
   10:55.089   235832,(,0,0,2
   10:55.192   235869,t,0,0,0
   10:55.281   235901,),0,0,2
   10:55.672   236042,(,0,0,0
   10:55.719   236059,p,0,0,0
   10:55.756   236072,),0,0,0
   10:55.825   236097,(,0,0,1
   10:55.856   236108,N,0,0,0
   10:55.908   236127,),0,0,1
   10:56.047   236177,(,0,0,2
   10:56.144   236212,t,0,0,0
   10:56.236   236245,),0,0,2
   10:56.878   236476,(,0,0,1
   10:56.906   236486,N,0,0,0
   10:56.961   236506,),0,0,1
   10:57.128   236566,(,0,0,2
   10:57.233   236604,t,0,0,0
   10:57.325   236637,),0,0,2
   10:57.794   236806,(,0,0,0
   10:57.836   236821,p,0,0,0
   10:57.869   236833,),0,0,0
   10:57.939   236858,(,0,0,1
   10:57.969   236869,N,0,0,0
   10:58.025   236889,),0,0,1
   10:58.189   236948,(,0,0,2
   10:58.289   236984,t,0,0,0
   10:58.378   237016,),0,0,2
   10:58.875   237195,(,0,0,1
   10:58.906   237206,N,0,0,0
   10:58.961   237226,),0,0,1
   10:59.131   237287,(,0,0,2
   10:59.228   237322,t,0,0,0
   10:59.325   237357,),0,0,2
   10:59.819   237535,(,0,0,0
   10:59.869   237553,p,0,0,0
   10:59.908   237567,),0,0,0
   10:59.986   237595,(,0,0,1
   11:00.019   237607,N,0,0,0
   11:00.078   237628,),0,0,1
   11:00.267   237696,(,0,0,2
   11:00.383   237738,t,0,0,0
   11:00.478   237772,),0,0,2
   11:01.003   237961,(,0,0,0
   11:01.042   237975,p,0,0,0
   11:01.083   237990,),0,0,0
   11:01.153   238015,(,0,0,1
   11:01.183   238026,N,0,0,0
   11:01.242   238047,),0,0,1
   11:01.411   238108,(,0,0,2
   11:01.511   238144,t,0,0,0
   11:01.600   238176,),0,0,2
   11:02.003   238321,(,0,0,0
   11:02.050   238338,p,0,0,0
   11:02.086   238351,),0,0,0
   11:02.150   238374,(,0,0,1
   11:02.181   238385,N,0,0,0
   11:02.236   238405,),0,0,1
   11:02.400   238464,(,0,0,2
   11:02.503   238501,t,0,0,0
   11:02.597   238535,),0,0,2
   11:02.939   238658,(,0,0,0
   11:02.981   238673,p,0,0,0
   11:03.017   238686,),0,0,0
   11:03.083   238710,(,0,0,1
   11:03.111   238720,N,0,0,0
   11:03.167   238740,),0,0,1
   11:03.328   238798,(,0,0,2
   11:03.428   238834,t,0,0,0
   11:03.517   238866,),0,0,2
   11:03.892   239001,(,0,0,0
   11:03.931   239015,p,0,0,0
   11:03.967   239028,),0,0,0
   11:04.044   239056,(,0,0,1
   11:04.072   239066,N,0,0,0
   11:04.131   239087,),0,0,1
   11:04.300   239148,(,0,0,2
   11:04.397   239183,t,0,0,0
   11:04.486   239215,),0,0,2
   11:04.886   239359,(,0,0,0
   11:04.928   239374,p,0,0,0
   11:04.964   239387,),0,0,0
   11:05.033   239412,(,0,0,1
   11:05.061   239422,N,0,0,0
   11:05.119   239443,),0,0,1
   11:05.303   239509,(,0,0,2
   11:05.408   239547,t,0,0,0
   11:05.500   239580,),0,0,2
   11:05.989   239756,(,0,0,0
   11:06.028   239770,p,0,0,0
   11:06.067   239784,),0,0,0
   11:06.136   239809,(,0,0,1
   11:06.167   239820,N,0,0,0
   11:06.228   239842,),0,0,1
   11:06.408   239907,(,0,0,2
   11:06.511   239944,t,0,0,0
   11:06.606   239978,),0,0,2
   11:07.019   240127,(,0,0,0
   11:07.067   240144,p,0,0,0
   11:07.106   240158,),0,0,0
   11:07.183   240186,(,0,0,1
   11:07.214   240197,N,0,0,0
   11:07.275   240219,),0,0,1
   11:07.458   240285,(,0,0,2
   11:07.553   240319,t,0,0,0
   11:07.642   240351,),0,0,2
   11:08.078   240508,(,0,0,0
   11:08.125   240525,p,0,0,0
   11:08.164   240539,),0,0,0
   11:08.236   240565,(,0,0,1
   11:08.267   240576,N,0,0,0
   11:08.322   240596,),0,0,1
   11:08.483   240654,(,0,0,2
   11:08.578   240688,t,0,0,0
   11:08.664   240719,),0,0,2
   11:09.117   240882,(,0,0,0
   11:09.161   240898,p,0,0,0
   11:09.194   240910,),0,0,0
   11:09.258   240933,(,0,0,1
   11:09.286   240943,N,0,0,0
   11:09.342   240963,),0,0,1
   11:09.500   241020,(,0,0,2
   11:09.603   241057,t,0,0,0
   11:09.694   241090,),0,0,2
   11:11.928   241894,(,0,0,0
   11:11.969   241909,p,0,0,0
   11:12.008   241923,),0,0,0
   11:12.081   241949,(,0,0,1
   11:12.114   241961,N,0,0,0
   11:12.172   241982,),0,0,1
   11:12.347   242045,(,0,0,2
   11:12.453   242083,t,0,0,0
   11:12.547   242117,),0,0,2
   11:12.906   242246,(,0,0,0
   11:12.947   242261,p,0,0,0
   11:12.983   242274,),0,0,0
   11:13.056   242300,(,0,0,1
   11:13.086   242311,N,0,0,0
   11:13.142   242331,),0,0,1
   11:13.311   242392,(,0,0,2
   11:13.419   242431,t,0,0,0
   11:13.508   242463,),0,0,2
   11:14.072   242666,(,0,0,1
   11:14.106   242678,N,0,0,0
   11:14.164   242699,),0,0,1
   11:14.342   242763,(,0,0,2
   11:14.444   242800,t,0,0,0
   11:14.533   242832,),0,0,2
   11:14.931   242975,(,0,0,0
   11:14.969   242989,p,0,0,0
   11:15.003   243001,),0,0,0
   11:15.075   243027,(,0,0,1
   11:15.106   243038,N,0,0,0
   11:15.161   243058,),0,0,1
   11:15.325   243117,(,0,0,2
   11:15.419   243151,t,0,0,0
   11:15.506   243182,),0,0,2
   11:16.025   243369,(,0,0,1
   11:16.056   243380,N,0,0,0
   11:16.108   243399,),0,0,1
   11:16.269   243457,(,0,0,2
   11:16.361   243490,t,0,0,0
   11:16.450   243522,),0,0,2
   11:16.797   243647,(,0,0,0
   11:16.833   243660,p,0,0,0
   11:16.872   243674,),0,0,0
   11:16.944   243700,(,0,0,1
   11:16.972   243710,N,0,0,0
   11:17.028   243730,),0,0,1
   11:17.189   243788,(,0,0,2
   11:17.286   243823,t,0,0,0
   11:17.378   243856,),0,0,2
   11:17.819   244015,(,0,0,0
   11:17.861   244030,p,0,0,0
   11:17.897   244043,),0,0,0
   11:17.972   244070,(,0,0,1
   11:18.003   244081,N,0,0,0
   11:18.064   244103,),0,0,1
   11:18.239   244166,(,0,0,2
   11:18.344   244204,t,0,0,0
   11:18.444   244240,),0,0,2
   11:18.803   244369,(,0,0,0
   11:18.844   244384,p,0,0,0
   11:18.883   244398,),0,0,0
   11:18.956   244424,(,0,0,1
   11:18.983   244434,N,0,0,0
   11:19.042   244455,),0,0,1
   11:19.208   244515,(,0,0,2
   11:19.308   244551,t,0,0,0
   11:19.403   244585,),0,0,2
   11:19.769   244717,(,0,0,0
   11:19.808   244731,p,0,0,0
   11:19.844   244744,),0,0,0
   11:19.908   244767,(,0,0,1
   11:19.939   244778,N,0,0,0
   11:19.983   244794,),0,0,1
   11:20.144   244852,(,0,0,2
   11:20.242   244887,t,0,0,0
   11:20.328   244918,),0,0,2
   11:20.978   245152,(,0,0,1
   11:21.008   245163,N,0,0,0
   11:21.064   245183,),0,0,1
   11:21.236   245245,(,0,0,2
   11:21.339   245282,t,0,0,0
   11:21.431   245315,),0,0,2
   11:21.906   245486,(,0,0,0
   11:21.947   245501,p,0,0,0
   11:21.986   245515,),0,0,0
   11:22.053   245539,(,0,0,1
   11:22.083   245550,N,0,0,0
   11:22.139   245570,),0,0,1
   11:22.303   245629,(,0,0,2
   11:22.403   245665,t,0,0,0
   11:22.489   245696,),0,0,2
   11:22.819   245815,(,0,0,0
   11:22.864   245831,p,0,0,0
   11:22.897   245843,),0,0,0
   11:22.969   245869,(,0,0,1
   11:23.000   245880,N,0,0,0
   11:23.058   245901,),0,0,1
   11:23.222   245960,(,0,0,2
   11:23.322   245996,t,0,0,0
   11:23.414   246029,),0,0,2
   11:23.867   246192,(,0,0,0
   11:23.914   246209,p,0,0,0
   11:23.953   246223,),0,0,0
   11:24.028   246250,(,0,0,1
   11:24.058   246261,N,0,0,0
   11:24.114   246281,),0,0,1
   11:24.283   246342,(,0,0,2
   11:24.381   246377,t,0,0,0
   11:24.469   246409,),0,0,2
   11:25.003   246601,(,0,0,0
   11:25.042   246615,p,0,0,0
   11:25.078   246628,),0,0,0
   11:25.147   246653,(,0,0,1
   11:25.178   246664,N,0,0,0
   11:25.236   246685,),0,0,1
   11:25.425   246753,(,0,0,2
   11:25.522   246788,t,0,0,0
   11:25.617   246822,),0,0,2
   11:26.078   246988,(,0,0,0
   11:26.119   247003,p,0,0,0
   11:26.153   247015,),0,0,0
   11:26.222   247040,(,0,0,1
   11:26.250   247050,N,0,0,0
   11:26.308   247071,),0,0,1
   11:26.478   247132,(,0,0,2
   11:26.578   247168,t,0,0,0
   11:26.667   247200,),0,0,2
   11:27.036   247333,(,0,0,0
   11:27.075   247347,p,0,0,0
   11:27.111   247360,),0,0,0
   11:27.178   247384,(,0,0,1
   11:27.206   247394,N,0,0,0
   11:27.261   247414,),0,0,1
   11:27.419   247471,(,0,0,2
   11:27.517   247506,t,0,0,0
   11:27.606   247538,),0,0,2
   11:27.997   247679,(,0,0,0
   11:28.042   247695,p,0,0,0
   11:28.081   247709,),0,0,0
   11:28.150   247734,(,0,0,1
   11:28.181   247745,N,0,0,0
   11:28.236   247765,),0,0,1
   11:28.408   247827,(,0,0,2
   11:28.508   247863,t,0,0,0
   11:28.600   247896,),0,0,2
   11:28.994   248038,(,0,0,0
   11:29.039   248054,p,0,0,0
   11:29.075   248067,),0,0,0
   11:29.147   248093,(,0,0,1
   11:29.181   248105,N,0,0,0
   11:29.239   248126,),0,0,1
   11:29.431   248195,(,0,0,2
   11:29.533   248232,t,0,0,0
   11:29.628   248266,),0,0,2
   11:30.253   248491,(,0,0,1
   11:30.283   248502,N,0,0,0
   11:30.339   248522,),0,0,1
   11:30.514   248585,(,0,0,2
   11:30.614   248621,t,0,0,0
   11:30.703   248653,),0,0,2
   11:31.089   248792,(,0,0,0
   11:31.139   248810,p,0,0,0
   11:31.178   248824,),0,0,0
   11:31.250   248850,(,0,0,1
   11:31.281   248861,N,0,0,0
   11:31.339   248882,),0,0,1
   11:31.506   248942,(,0,0,2
   11:31.600   248976,t,0,0,0
   11:31.692   249009,),0,0,2
   11:32.022   249128,(,0,0,0
   11:32.067   249144,p,0,0,0
   11:32.106   249158,),0,0,0
   11:32.181   249185,(,0,0,1
   11:32.211   249196,N,0,0,0
   11:32.267   249216,),0,0,1
   11:32.436   249277,(,0,0,2
   11:32.533   249312,t,0,0,0
   11:32.625   249345,),0,0,2
   11:33.194   249550,(,0,0,1
   11:33.225   249561,N,0,0,0
   11:33.275   249579,),0,0,1
   11:33.436   249637,(,0,0,2
   11:33.531   249671,t,0,0,0
   11:33.619   249703,),0,0,2
   11:34.256   249932,(,0,0,1
   11:34.283   249942,N,0,0,0
   11:34.336   249961,),0,0,1
   11:34.492   250017,(,0,0,2
   11:34.594   250054,t,0,0,0
   11:34.681   250085,),0,0,2
   11:35.078   250228,(,0,0,0
   11:35.119   250243,p,0,0,0
   11:35.156   250256,),0,0,0
   11:35.231   250283,(,0,0,1
   11:35.261   250294,N,0,0,0
   11:35.325   250317,),0,0,1
   11:35.519   250387,(,0,0,2
   11:35.625   250425,t,0,0,0
   11:35.728   250462,),0,0,2
   11:36.194   250630,(,0,0,0
   11:36.242   250647,p,0,0,0
   11:36.278   250660,),0,0,0
   11:36.353   250687,(,0,0,1
   11:36.386   250699,N,0,0,0
   11:36.442   250719,),0,0,1
   11:36.631   250787,(,0,0,2
   11:36.733   250824,t,0,0,0
   11:36.828   250858,),0,0,2
   11:37.311   251032,(,0,0,0
   11:37.353   251047,p,0,0,0
   11:37.392   251061,),0,0,0
   11:37.461   251086,(,0,0,1
   11:37.494   251098,N,0,0,0
   11:37.553   251119,),0,0,1
   11:37.719   251179,(,0,0,2
   11:37.811   251212,t,0,0,0
   11:37.900   251244,),0,0,2
   11:38.350   251406,(,0,0,0
   11:38.397   251423,p,0,0,0
   11:38.431   251435,),0,0,0
   11:38.497   251459,(,0,0,1
   11:38.525   251469,N,0,0,0
   11:38.581   251489,),0,0,1
   11:38.739   251546,(,0,0,2
   11:38.839   251582,t,0,0,0
   11:38.928   251614,),0,0,2
   11:39.297   251747,(,0,0,0
   11:39.339   251762,p,0,0,0
   11:39.378   251776,),0,0,0
   11:39.444   251800,(,0,0,1
   11:39.475   251811,N,0,0,0
   11:39.528   251830,),0,0,1
   11:39.694   251890,(,0,0,2
   11:39.789   251924,t,0,0,0
   11:39.881   251957,),0,0,2
   11:40.289   252104,(,0,0,0
   11:40.325   252117,p,0,0,0
   11:40.361   252130,),0,0,0
   11:40.428   252154,(,0,0,1
   11:40.456   252164,N,0,0,0
   11:40.508   252183,),0,0,1
   11:40.667   252240,(,0,0,2
   11:40.739   252266,t,0,0,0
   11:40.817   252294,),0,0,2
   11:41.436   252517,(,0,0,1
   11:41.467   252528,N,0,0,0
   11:41.522   252548,),0,0,1
   11:41.694   252610,(,0,0,2
   11:41.800   252648,t,0,0,0
   11:41.892   252681,),0,0,2
   11:42.572   252926,(,0,0,1
   11:42.603   252937,N,0,0,0
   11:42.664   252959,),0,0,1
   11:42.856   253028,(,0,0,2
   11:42.956   253064,t,0,0,0
   11:43.050   253098,),0,0,2
   11:43.464   253247,(,0,0,0
   11:43.511   253264,p,0,0,0
   11:43.544   253276,),0,0,0
   11:43.619   253303,(,0,0,1
   11:43.650   253314,N,0,0,0
   11:43.708   253335,),0,0,1
   11:43.872   253394,(,0,0,2
   11:43.967   253428,t,0,0,0
   11:44.050   253458,),0,0,2
   11:44.469   253609,(,0,0,0
   11:44.511   253624,p,0,0,0
   11:44.550   253638,),0,0,0
   11:44.622   253664,(,0,0,1
   11:44.653   253675,N,0,0,0
   11:44.708   253695,),0,0,1
   11:44.875   253755,(,0,0,2
   11:44.969   253789,t,0,0,0
   11:45.058   253821,),0,0,2
