Elapsedtime,sample,Type,Sub,Chan,Num
0:00.708,255,(,0,0,0
0:00.767,276,p,0,0,0
0:00.819,295,),0,0,0
0:00.839,302,(,0,0,1
0:00.886,319,N,0,0,0
0:00.908,327,),0,0,1
0:01.050,378,(,0,0,2
0:01.125,405,t,0,0,0
0:01.242,447,),0,0,2
0:01.753,631,(,0,0,0
0:01.794,646,p,0,0,0
0:01.881,677,),0,0,0
0:01.964,707,(,0,0,1
0:02.047,737,N,0,0,0
0:02.078,748,),0,0,1
0:02.225,801,(,0,0,2
0:02.325,837,t,0,0,0
0:02.447,881,),0,0,2
0:02.908,1047,(,0,0,0
0:02.978,1072,p,0,0,0
0:03.036,1093,),0,0,0
0:03.122,1124,(,0,0,1
0:03.206,1154,N,0,0,0
0:03.236,1165,),0,0,1
0:03.389,1220,(,0,0,2
0:03.481,1253,t,0,0,0
0:03.589,1292,),0,0,2
0:04.078,1468,(,0,0,0
0:04.114,1481,p,0,0,0
0:04.189,1508,),0,0,0
0:04.264,1535,(,0,0,1
0:04.342,1563,N,0,0,0
0:04.386,1579,),0,0,1
0:04.506,1622,(,0,0,2
0:04.608,1659,t,0,0,0
0:04.719,1699,),0,0,2
0:05.192,1869,(,0,0,0
0:05.261,1894,p,0,0,0
0:05.325,1917,),0,0,0
0:05.406,1946,(,0,0,1
0:05.486,1975,N,0,0,0
0:05.533,1992,),0,0,1
0:05.661,2038,(,0,0,2
0:05.758,2073,t,0,0,0
0:05.875,2115,),0,0,2
0:06.297,2267,(,0,0,0
0:06.339,2282,p,0,0,0
0:06.369,2293,),0,0,0
0:06.500,2340,(,0,0,1
0:06.578,2368,N,0,0,0
0:06.631,2387,),0,0,1
0:06.725,2421,(,0,0,2
0:06.825,2457,t,0,0,0
0:06.917,2490,),0,0,2
0:07.339,2642,(,0,0,0
0:07.414,2669,p,0,0,0
0:07.472,2690,),0,0,0
0:07.528,2710,(,0,0,1
0:07.608,2739,N,0,0,0
0:07.697,2771,),0,0,1
0:07.831,2819,(,0,0,2
0:07.939,2858,t,0,0,0
0:08.056,2900,),0,0,2
0:08.522,3068,(,0,0,0
0:08.564,3083,p,0,0,0
0:08.594,3094,),0,0,0
0:08.736,3145,(,0,0,1
0:08.822,3176,N,0,0,0
0:08.861,3190,),0,0,1
0:08.986,3235,(,0,0,2
0:09.094,3274,t,0,0,0
0:09.214,3317,),0,0,2
0:09.658,3477,(,0,0,0
0:09.694,3490,p,0,0,0
0:09.725,3501,),0,0,0
0:09.861,3550,(,0,0,1
0:09.939,3578,N,0,0,0
0:09.967,3588,),0,0,1
0:10.111,3640,(,0,0,2
0:10.194,3670,t,0,0,0
0:10.300,3708,),0,0,2
0:10.739,3866,(,0,0,0
0:10.808,3891,p,0,0,0
0:10.864,3911,),0,0,0
0:10.939,3938,(,0,0,1
0:11.033,3972,N,0,0,0
0:11.064,3983,),0,0,1
0:11.200,4032,(,0,0,2
0:11.297,4067,t,0,0,0
0:11.411,4108,),0,0,2
0:11.833,4260,(,0,0,0
0:11.875,4275,p,0,0,0
0:11.906,4286,),0,0,0
0:12.031,4331,(,0,0,1
0:12.081,4349,N,0,0,0
0:12.142,4371,),0,0,1
0:12.272,4418,(,0,0,2
0:12.367,4452,t,0,0,0
0:12.472,4490,),0,0,2
0:12.903,4645,(,0,0,0
0:12.939,4658,p,0,0,0
0:13.008,4683,),0,0,0
0:13.081,4709,(,0,0,1
0:13.161,4738,N,0,0,0
0:13.200,4752,),0,0,1
0:13.333,4800,(,0,0,2
0:13.428,4834,t,0,0,0
0:13.531,4871,),0,0,2
0:14.000,5040,(,0,0,0
0:14.069,5065,p,0,0,0
0:14.131,5087,),0,0,0
0:14.181,5105,(,0,0,1
0:14.306,5150,N,0,0,0
0:14.336,5161,),0,0,1
0:14.481,5213,(,0,0,2
0:14.583,5250,t,0,0,0
0:14.692,5289,),0,0,2
0:15.150,5454,(,0,0,0
0:15.217,5478,p,0,0,0
0:15.278,5500,),0,0,0
0:15.353,5527,(,0,0,1
0:15.400,5544,N,0,0,0
0:15.467,5568,),0,0,1
0:15.581,5609,(,0,0,2
0:15.703,5653,t,0,0,0
0:15.808,5691,),0,0,2
0:16.225,5841,(,0,0,0
0:16.294,5866,p,0,0,0
0:16.353,5887,),0,0,0
0:16.439,5918,(,0,0,1
0:16.522,5948,N,0,0,0
0:16.572,5966,),0,0,1
0:16.700,6012,(,0,0,2
0:16.794,6046,t,0,0,0
0:16.900,6084,),0,0,2
0:17.325,6237,(,0,0,0
0:17.358,6249,p,0,0,0
0:17.389,6260,),0,0,0
0:17.511,6304,(,0,0,1
0:17.567,6324,N,0,0,0
0:17.647,6353,),0,0,1
0:17.758,6393,(,0,0,2
0:17.867,6432,t,0,0,0
0:17.967,6468,),0,0,2
0:18.400,6624,(,0,0,0
0:18.439,6638,p,0,0,0
0:18.519,6667,),0,0,0
0:18.586,6691,(,0,0,1
0:18.631,6707,N,0,0,0
0:18.700,6732,),0,0,1
0:18.833,6780,(,0,0,2
0:18.911,6808,t,0,0,0
0:19.000,6840,),0,0,2
0:19.428,6994,(,0,0,0
0:19.469,7009,p,0,0,0
0:19.506,7022,),0,0,0
0:19.642,7071,(,0,0,1
0:19.689,7088,N,0,0,0
0:19.758,7113,),0,0,1
0:19.906,7166,(,0,0,2
0:20.006,7202,t,0,0,0
0:20.106,7238,),0,0,2
0:20.581,7409,(,0,0,0
0:20.622,7424,p,0,0,0
0:20.653,7435,),0,0,0
0:20.778,7480,(,0,0,1
0:20.842,7503,N,0,0,0
0:20.914,7529,),0,0,1
0:21.031,7571,(,0,0,2
0:21.150,7614,t,0,0,0
0:21.261,7654,),0,0,2
0:21.706,7814,(,0,0,0
0:21.744,7828,p,0,0,0
0:21.775,7839,),0,0,0
0:21.906,7886,(,0,0,1
0:21.950,7902,N,0,0,0
0:22.033,7932,),0,0,1
0:22.131,7967,(,0,0,2
0:22.233,8004,t,0,0,0
0:22.339,8042,),0,0,2
0:22.775,8199,(,0,0,0
0:22.819,8215,p,0,0,0
0:22.906,8246,),0,0,0
0:22.986,8275,(,0,0,1
0:23.033,8292,N,0,0,0
0:23.100,8316,),0,0,1
0:23.233,8364,(,0,0,2
0:23.319,8395,t,0,0,0
0:23.419,8431,),0,0,2
0:23.847,8585,(,0,0,0
0:23.889,8600,p,0,0,0
0:23.922,8612,),0,0,0
0:24.050,8658,(,0,0,1
0:24.094,8674,N,0,0,0
0:24.181,8705,),0,0,1
0:24.278,8740,(,0,0,2
0:24.400,8784,t,0,0,0
0:24.525,8829,),0,0,2
0:24.922,8972,(,0,0,0
0:24.958,8985,p,0,0,0
0:24.989,8996,),0,0,0
0:25.117,9042,(,0,0,1
0:25.197,9071,N,0,0,0
0:25.253,9091,),0,0,1
0:25.369,9133,(,0,0,2
0:25.478,9172,t,0,0,0
0:25.594,9214,),0,0,2
0:26.042,9375,(,0,0,0
0:26.081,9389,p,0,0,0
0:26.114,9401,),0,0,0
0:26.258,9453,(,0,0,1
0:26.308,9471,N,0,0,0
0:26.389,9500,),0,0,1
0:26.522,9548,(,0,0,2
0:26.625,9585,t,0,0,0
0:26.739,9626,),0,0,2
0:27.214,9797,(,0,0,0
0:27.261,9814,p,0,0,0
0:27.344,9844,),0,0,0
0:27.433,9876,(,0,0,1
0:27.481,9893,N,0,0,0
0:27.569,9925,),0,0,1
0:27.681,9965,(,0,0,2
0:27.794,10006,t,0,0,0
0:27.906,10046,),0,0,2
0:28.328,10198,(,0,0,0
0:28.372,10214,p,0,0,0
0:28.406,10226,),0,0,0
0:28.544,10276,(,0,0,1
0:28.628,10306,N,0,0,0
0:28.664,10319,),0,0,1
0:28.786,10363,(,0,0,2
0:28.889,10400,t,0,0,0
0:29.006,10442,),0,0,2
0:29.464,10607,(,0,0,0
0:29.528,10630,p,0,0,0
0:29.583,10650,),0,0,0
0:29.686,10687,(,0,0,1
0:29.742,10707,N,0,0,0
0:29.767,10716,),0,0,1
0:29.928,10774,(,0,0,2
0:30.003,10801,t,0,0,0
0:30.128,10846,),0,0,2
0:30.644,11032,(,0,0,0
0:30.717,11058,p,0,0,0
0:30.808,11091,),0,0,0
0:30.828,11098,(,0,0,1
0:30.881,11117,N,0,0,0
0:30.906,11126,),0,0,1
0:31.008,11163,(,0,0,2
0:31.119,11203,t,0,0,0
0:31.228,11242,),0,0,2
0:31.772,11438,(,0,0,0
0:31.867,11472,p,0,0,0
0:31.939,11498,),0,0,0
0:31.956,11504,(,0,0,1
0:32.014,11525,N,0,0,0
0:32.042,11535,),0,0,1
0:32.175,11583,(,0,0,2
0:32.289,11624,t,0,0,0
0:32.394,11662,),0,0,2
0:32.903,11845,(,0,0,0
0:32.950,11862,p,0,0,0
0:32.981,11873,),0,0,0
0:33.125,11925,(,0,0,1
0:33.211,11956,N,0,0,0
0:33.258,11973,),0,0,1
0:33.375,12015,(,0,0,2
0:33.500,12060,t,0,0,0
0:33.611,12100,),0,0,2
0:34.081,12269,(,0,0,0
0:34.125,12285,p,0,0,0
0:34.200,12312,),0,0,0
0:34.281,12341,(,0,0,1
0:34.364,12371,N,0,0,0
0:34.389,12380,),0,0,1
0:34.508,12423,(,0,0,2
0:34.625,12465,t,0,0,0
0:34.719,12499,),0,0,2
0:35.178,12664,(,0,0,0
0:35.222,12680,p,0,0,0
0:35.306,12710,),0,0,0
0:35.403,12745,(,0,0,1
0:35.458,12765,N,0,0,0
0:35.483,12774,),0,0,1
0:35.619,12823,(,0,0,2
0:35.728,12862,t,0,0,0
0:35.817,12894,),0,0,2
0:36.283,13062,(,0,0,0
0:36.350,13086,p,0,0,0
0:36.411,13108,),0,0,0
0:36.492,13137,(,0,0,1
0:36.572,13166,N,0,0,0
0:36.608,13179,),0,0,1
0:36.711,13216,(,0,0,2
0:36.828,13258,t,0,0,0
0:36.919,13291,),0,0,2
0:37.481,13493,(,0,0,0
0:37.561,13522,p,0,0,0
0:37.589,13532,),0,0,0
0:37.606,13538,(,0,0,1
0:37.664,13559,N,0,0,0
0:37.692,13569,),0,0,1
0:37.861,13630,(,0,0,2
0:37.944,13660,t,0,0,0
0:38.072,13706,),0,0,2
0:38.492,13857,(,0,0,0
0:38.569,13885,p,0,0,0
0:38.625,13905,),0,0,0
0:38.711,13936,(,0,0,1
0:38.758,13953,N,0,0,0
0:38.828,13978,),0,0,1
0:38.950,14022,(,0,0,2
0:39.075,14067,t,0,0,0
0:39.172,14102,),0,0,2
0:39.678,14284,(,0,0,0
0:39.744,14308,p,0,0,0
0:39.806,14330,),0,0,0
0:39.886,14359,(,0,0,1
0:39.964,14387,N,0,0,0
0:40.000,14400,),0,0,1
0:40.111,14440,(,0,0,2
0:40.211,14476,t,0,0,0
0:40.314,14513,),0,0,2
0:40.822,14696,(,0,0,0
0:40.919,14731,p,0,0,0
0:40.972,14750,),0,0,0
0:40.992,14757,(,0,0,1
0:41.047,14777,N,0,0,0
0:41.072,14786,),0,0,1
0:41.208,14835,(,0,0,2
0:41.322,14876,t,0,0,0
0:41.431,14915,),0,0,2
0:41.847,15065,(,0,0,0
0:41.914,15089,p,0,0,0
0:41.978,15112,),0,0,0
0:42.050,15138,(,0,0,1
0:42.092,15153,N,0,0,0
0:42.156,15176,),0,0,1
0:42.275,15219,(,0,0,2
0:42.381,15257,t,0,0,0
0:42.494,15298,),0,0,2
0:42.911,15448,(,0,0,0
0:42.947,15461,p,0,0,0
0:43.025,15489,),0,0,0
0:43.108,15519,(,0,0,1
0:43.192,15549,N,0,0,0
0:43.222,15560,),0,0,1
0:43.378,15616,(,0,0,2
0:43.492,15657,t,0,0,0
0:43.583,15690,),0,0,2
0:44.044,15856,(,0,0,0
0:44.122,15884,p,0,0,0
0:44.183,15906,),0,0,0
0:44.272,15938,(,0,0,1
0:44.353,15967,N,0,0,0
0:44.406,15986,),0,0,1
0:44.478,16012,(,0,0,2
0:44.622,16064,t,0,0,0
0:44.719,16099,),0,0,2
0:45.169,16261,(,0,0,0
0:45.247,16289,p,0,0,0
0:45.308,16311,),0,0,0
0:45.394,16342,(,0,0,1
0:45.442,16359,N,0,0,0
0:45.522,16388,),0,0,1
0:45.642,16431,(,0,0,2
0:45.767,16476,t,0,0,0
0:45.900,16524,),0,0,2
0:46.311,16672,(,0,0,0
0:46.356,16688,p,0,0,0
0:46.386,16699,),0,0,0
0:46.517,16746,(,0,0,1
0:46.603,16777,N,0,0,0
0:46.653,16795,),0,0,1
0:46.781,16841,(,0,0,2
0:46.872,16874,t,0,0,0
0:46.972,16910,),0,0,2
0:47.389,17060,(,0,0,0
0:47.436,17077,p,0,0,0
0:47.511,17104,),0,0,0
0:47.569,17125,(,0,0,1
0:47.631,17147,N,0,0,0
0:47.708,17175,),0,0,1
0:47.817,17214,(,0,0,2
0:47.928,17254,t,0,0,0
0:48.031,17291,),0,0,2
0:48.447,17441,(,0,0,0
0:48.489,17456,p,0,0,0
0:48.569,17485,),0,0,0
0:48.647,17513,(,0,0,1
0:48.692,17529,N,0,0,0
0:48.783,17562,),0,0,1
0:48.892,17601,(,0,0,2
0:48.967,17628,t,0,0,0
0:49.072,17666,),0,0,2
0:49.639,17870,(,0,0,0
0:49.722,17900,p,0,0,0
0:49.753,17911,),0,0,0
0:49.772,17918,(,0,0,1
0:49.831,17939,N,0,0,0
0:49.856,17948,),0,0,1
0:50.000,18000,(,0,0,2
0:50.103,18037,t,0,0,0
0:50.236,18085,),0,0,2
0:50.644,18232,(,0,0,0
0:50.686,18247,p,0,0,0
0:50.714,18257,),0,0,0
0:50.844,18304,(,0,0,1
0:50.892,18321,N,0,0,0
0:50.969,18349,),0,0,1
0:51.092,18393,(,0,0,2
0:51.200,18432,t,0,0,0
0:51.306,18470,),0,0,2
0:51.744,18628,(,0,0,0
0:51.817,18654,p,0,0,0
0:51.875,18675,),0,0,0
0:51.956,18704,(,0,0,1
0:52.003,18721,N,0,0,0
0:52.081,18749,),0,0,1
0:52.200,18792,(,0,0,2
0:52.300,18828,t,0,0,0
0:52.422,18872,),0,0,2
0:52.833,19020,(,0,0,0
0:52.875,19035,p,0,0,0
0:52.908,19047,),0,0,0
0:53.044,19096,(,0,0,1
0:53.089,19112,N,0,0,0
0:53.164,19139,),0,0,1
0:53.281,19181,(,0,0,2
0:53.372,19214,t,0,0,0
0:53.475,19251,),0,0,2
0:53.858,19389,(,0,0,0
0:53.900,19404,p,0,0,0
0:53.981,19433,),0,0,0
0:54.044,19456,(,0,0,1
0:54.100,19476,N,0,0,0
0:54.164,19499,),0,0,1
0:54.292,19545,(,0,0,2
0:54.408,19587,t,0,0,0
0:54.506,19622,),0,0,2
0:54.872,19754,(,0,0,0
0:54.908,19767,p,0,0,0
0:54.939,19778,),0,0,0
0:55.067,19824,(,0,0,1
0:55.111,19840,N,0,0,0
0:55.194,19870,),0,0,1
0:55.306,19910,(,0,0,2
0:55.419,19951,t,0,0,0
0:55.528,19990,),0,0,2
0:55.969,20149,(,0,0,0
0:56.039,20174,p,0,0,0
0:56.100,20196,),0,0,0
0:56.178,20224,(,0,0,1
0:56.225,20241,N,0,0,0
0:56.317,20274,),0,0,1
0:56.442,20319,(,0,0,2
0:56.539,20354,t,0,0,0
0:56.639,20390,),0,0,2
0:57.050,20538,(,0,0,0
0:57.094,20554,p,0,0,0
0:57.125,20565,),0,0,0
0:57.253,20611,(,0,0,1
0:57.303,20629,N,0,0,0
0:57.367,20652,),0,0,1
0:57.506,20702,(,0,0,2
0:57.622,20744,t,0,0,0
0:57.719,20779,),0,0,2
0:58.128,20926,(,0,0,0
0:58.200,20952,p,0,0,0
0:58.264,20975,),0,0,0
0:58.344,21004,(,0,0,1
0:58.392,21021,N,0,0,0
0:58.478,21052,),0,0,1
0:58.583,21090,(,0,0,2
0:58.692,21129,t,0,0,0
0:58.806,21170,),0,0,2
0:59.194,21310,(,0,0,0
0:59.239,21326,p,0,0,0
0:59.319,21355,),0,0,0
0:59.386,21379,(,0,0,1
0:59.436,21397,N,0,0,0
0:59.506,21422,),0,0,1
0:59.656,21476,(,0,0,2
0:59.725,21501,t,0,0,0
0:59.836,21541,),0,0,2
1:00.217,21678,(,0,0,0
1:00.281,21701,p,0,0,0
1:00.342,21723,),0,0,0
1:00.419,21751,(,0,0,1
1:00.464,21767,N,0,0,0
1:00.547,21797,),0,0,1
1:00.647,21833,(,0,0,2
1:00.750,21870,t,0,0,0
1:00.842,21903,),0,0,2
1:01.217,22038,(,0,0,0
1:01.303,22069,p,0,0,0
1:01.361,22090,),0,0,0
1:01.444,22120,(,0,0,1
1:01.492,22137,N,0,0,0
1:01.558,22161,),0,0,1
1:01.725,22221,(,0,0,2
1:01.808,22251,t,0,0,0
1:01.911,22288,),0,0,2
1:02.347,22445,(,0,0,0
1:02.425,22473,p,0,0,0
1:02.486,22495,),0,0,0
1:02.558,22521,(,0,0,1
1:02.619,22543,N,0,0,0
1:02.686,22567,),0,0,1
1:02.850,22626,(,0,0,2
1:02.933,22656,t,0,0,0
1:03.033,22692,),0,0,2
1:03.447,22841,(,0,0,0
1:03.489,22856,p,0,0,0
1:03.519,22867,),0,0,0
1:03.656,22916,(,0,0,1
1:03.706,22934,N,0,0,0
1:03.775,22959,),0,0,1
1:03.869,22993,(,0,0,2
1:04.008,23043,t,0,0,0
1:04.117,23082,),0,0,2
1:04.536,23233,(,0,0,0
1:04.583,23250,p,0,0,0
1:04.614,23261,),0,0,0
1:04.747,23309,(,0,0,1
1:04.800,23328,N,0,0,0
1:04.881,23357,),0,0,1
1:05.050,23418,(,0,0,2
1:05.103,23437,t,0,0,0
1:05.211,23476,),0,0,2
1:05.600,23616,(,0,0,0
1:05.661,23638,p,0,0,0
1:05.725,23661,),0,0,0
1:05.792,23685,(,0,0,1
1:05.836,23701,N,0,0,0
1:05.917,23730,),0,0,1
1:06.028,23770,(,0,0,2
1:06.131,23807,t,0,0,0
1:06.225,23841,),0,0,2
1:06.631,23987,(,0,0,0
1:06.672,24002,p,0,0,0
1:06.706,24014,),0,0,0
1:06.822,24056,(,0,0,1
1:06.872,24074,N,0,0,0
1:06.944,24100,),0,0,1
1:06.986,24115,(,0,0,2
1:07.136,24169,t,0,0,0
1:07.233,24204,),0,0,2
1:07.747,24389,(,0,0,0
1:07.817,24414,p,0,0,0
1:07.922,24452,),0,0,0
1:07.942,24459,(,0,0,1
1:08.003,24481,N,0,0,0
1:08.031,24491,),0,0,1
1:08.189,24548,(,0,0,2
1:08.289,24584,t,0,0,0
1:08.408,24627,),0,0,2
1:08.803,24769,(,0,0,0
1:08.883,24798,p,0,0,0
1:08.942,24819,),0,0,0
1:09.008,24843,(,0,0,1
1:09.078,24868,N,0,0,0
1:09.144,24892,),0,0,1
1:09.239,24926,(,0,0,2
1:09.383,24978,t,0,0,5
1:09.817,25134,t,0,0,5
1:09.869,25153,),0,0,2
1:09.914,25169,(,0,0,0
1:09.978,25192,p,0,0,0
1:10.042,25215,),0,0,0
1:10.111,25240,(,0,0,1
1:10.186,25267,N,0,0,0
1:10.211,25276,),0,0,1
1:10.361,25330,(,0,0,2
1:10.464,25367,t,0,0,0
1:10.589,25412,),0,0,2
1:10.994,25558,(,0,0,0
1:11.031,25571,p,0,0,0
1:11.064,25583,),0,0,0
1:11.178,25624,(,0,0,1
1:11.236,25645,N,0,0,0
1:11.322,25676,),0,0,1
1:11.425,25713,(,0,0,2
1:11.539,25754,t,0,0,0
1:11.650,25794,),0,0,2
1:12.019,25927,(,0,0,0
1:12.061,25942,p,0,0,0
1:12.092,25953,),0,0,0
1:12.222,26000,(,0,0,1
1:12.267,26016,N,0,0,0
1:12.347,26045,),0,0,1
1:12.453,26083,(,0,0,2
1:12.558,26121,t,0,0,0
1:12.664,26159,),0,0,2
1:13.019,26287,(,0,0,0
1:13.058,26301,p,0,0,0
1:13.142,26331,),0,0,0
1:13.194,26350,(,0,0,1
1:13.264,26375,N,0,0,0
1:13.331,26399,),0,0,1
1:13.506,26462,(,0,0,2
1:13.589,26492,t,0,0,0
1:13.703,26533,),0,0,2
1:14.117,26682,(,0,0,0
1:14.164,26699,p,0,0,0
1:14.197,26711,),0,0,0
1:14.333,26760,(,0,0,1
1:14.383,26778,N,0,0,0
1:14.472,26810,),0,0,1
1:14.583,26850,(,0,0,2
1:14.692,26889,t,0,0,0
1:14.817,26934,),0,0,2
1:15.217,27078,(,0,0,0
1:15.258,27093,p,0,0,0
1:15.289,27104,),0,0,0
1:15.417,27150,(,0,0,1
1:15.461,27166,N,0,0,0
1:15.542,27195,),0,0,1
1:15.656,27236,(,0,0,2
1:15.764,27275,t,0,0,0
1:15.858,27309,),0,0,2
1:16.264,27455,(,0,0,0
1:16.306,27470,p,0,0,0
1:16.336,27481,),0,0,0
1:16.469,27529,(,0,0,1
1:16.519,27547,N,0,0,0
1:16.606,27578,),0,0,1
1:16.725,27621,(,0,0,2
1:16.844,27664,t,0,0,0
1:16.956,27704,),0,0,2
1:17.342,27843,(,0,0,0
1:17.378,27856,p,0,0,0
1:17.408,27867,),0,0,0
1:17.539,27914,(,0,0,1
1:17.583,27930,N,0,0,0
1:17.675,27963,),0,0,1
1:17.789,28004,(,0,0,2
1:17.872,28034,t,0,0,0
1:17.967,28068,),0,0,2
1:18.353,28207,(,0,0,0
1:18.394,28222,p,0,0,0
1:18.475,28251,),0,0,0
1:18.547,28277,(,0,0,1
1:18.592,28293,N,0,0,0
1:18.664,28319,),0,0,1
1:18.772,28358,(,0,0,2
1:18.872,28394,t,0,0,0
1:18.972,28430,),0,0,2
1:19.356,28568,(,0,0,0
1:19.400,28584,p,0,0,0
1:19.489,28616,),0,0,0
1:19.569,28645,(,0,0,1
1:19.619,28663,N,0,0,0
1:19.686,28687,),0,0,1
1:19.836,28741,(,0,0,2
1:19.936,28777,t,0,0,0
1:20.031,28811,),0,0,2
1:20.467,28968,(,0,0,0
1:20.514,28985,p,0,0,0
1:20.544,28996,),0,0,0
1:20.672,29042,(,0,0,1
1:20.728,29062,N,0,0,0
1:20.794,29086,),0,0,1
1:20.911,29128,(,0,0,2
1:21.031,29171,t,0,0,0
1:21.133,29208,),0,0,2
1:21.567,29364,(,0,0,0
1:21.633,29388,p,0,0,0
1:21.689,29408,),0,0,0
1:21.764,29435,(,0,0,1
1:21.811,29452,N,0,0,0
1:21.903,29485,),0,0,1
1:22.017,29526,(,0,0,2
1:22.094,29554,t,0,0,0
1:22.175,29583,),0,0,2
1:22.606,29738,(,0,0,0
1:22.675,29763,p,0,0,0
1:22.733,29784,),0,0,0
1:22.817,29814,(,0,0,1
1:22.867,29832,N,0,0,0
1:22.950,29862,),0,0,1
1:23.069,29905,(,0,0,2
1:23.175,29943,t,0,0,0
1:23.281,29981,),0,0,2
1:23.769,30157,(,0,0,0
1:23.822,30176,p,0,0,0
1:23.875,30195,),0,0,0
1:23.892,30201,(,0,0,1
1:23.947,30221,N,0,0,0
1:23.969,30229,),0,0,1
1:24.122,30284,(,0,0,2
1:24.194,30310,t,0,0,0
1:24.294,30346,),0,0,2
1:24.689,30488,(,0,0,0
1:24.736,30505,p,0,0,0
1:24.814,30533,),0,0,0
1:24.861,30550,(,0,0,1
1:24.939,30578,N,0,0,0
1:24.967,30588,),0,0,1
1:25.111,30640,t,0,0,2
1:25.203,30673,),0,0,2
1:25.225,30681,(,0,0,0
1:25.331,30719,p,0,0,0
1:25.353,30727,),0,0,0
1:25.394,30742,(,0,0,1
1:25.464,30767,N,0,0,0
1:25.550,30798,),0,0,1
1:25.739,30866,(,0,0,1
1:25.786,30883,N,0,0,0
1:25.844,30904,),0,0,1
1:25.878,30916,(,0,0,2
1:26.292,31065,t,0,0,1
1:26.558,31161,),0,0,2
1:26.836,31261,(,0,0,0
1:26.897,31283,p,0,0,0
1:26.961,31306,),0,0,0
1:27.028,31330,(,0,0,1
1:27.108,31359,N,0,0,0
1:27.131,31367,),0,0,1
1:27.372,31454,(,0,0,2
1:27.428,31474,t,0,0,0
1:27.489,31496,),0,0,2
1:27.917,31650,(,0,0,0
1:27.978,31672,p,0,0,0
1:28.036,31693,),0,0,0
1:28.094,31714,(,0,0,1
1:28.167,31740,N,0,0,0
1:28.197,31751,),0,0,1
1:28.317,31794,(,0,0,2
1:28.433,31836,t,0,0,5
1:28.600,31896,t,0,0,5
1:28.647,31913,),0,0,2
1:28.964,32027,(,0,0,0
1:29.042,32055,p,0,0,0
1:29.100,32076,),0,0,0
1:29.175,32103,(,0,0,1
1:29.258,32133,N,0,0,0
1:29.292,32145,),0,0,1
1:29.419,32191,(,0,0,2
1:29.517,32226,t,0,0,0
1:29.619,32263,),0,0,2
1:30.003,32401,(,0,0,0
1:30.075,32427,p,0,0,0
1:30.133,32448,),0,0,0
1:30.208,32475,(,0,0,1
1:30.253,32491,N,0,0,0
1:30.325,32517,),0,0,1
1:30.422,32552,(,0,0,2
1:30.531,32591,t,0,0,0
1:30.644,32632,),0,0,2
1:31.008,32763,(,0,0,0
1:31.047,32777,p,0,0,0
1:31.131,32807,),0,0,0
1:31.208,32835,(,0,0,1
1:31.289,32864,N,0,0,0
1:31.331,32879,),0,0,1
1:31.494,32938,(,0,0,2
1:31.569,32965,t,0,0,0
1:31.669,33001,),0,0,2
1:32.067,33144,(,0,0,0
1:32.153,33175,p,0,0,0
1:32.214,33197,),0,0,0
1:32.300,33228,(,0,0,1
1:32.344,33244,N,0,0,0
1:32.414,33269,),0,0,1
1:32.525,33309,(,0,0,2
1:32.656,33356,t,0,0,0
1:32.778,33400,),0,0,2
1:33.200,33552,(,0,0,0
1:33.250,33570,p,0,0,0
1:33.281,33581,),0,0,0
1:33.414,33629,(,0,0,1
1:33.461,33646,N,0,0,0
1:33.544,33676,),0,0,1
1:33.678,33724,(,0,0,2
1:33.767,33756,t,0,0,0
1:33.894,33802,),0,0,2
1:34.247,33929,(,0,0,0
1:34.289,33944,p,0,0,0
1:34.317,33954,),0,0,0
1:34.453,34003,(,0,0,1
1:34.494,34018,N,0,0,0
1:34.578,34048,),0,0,1
1:34.694,34090,(,0,0,2
1:34.797,34127,t,0,0,0
1:34.911,34168,),0,0,2
1:35.303,34309,(,0,0,0
1:35.372,34334,p,0,0,0
1:35.433,34356,),0,0,0
1:35.514,34385,(,0,0,1
1:35.558,34401,N,0,0,0
1:35.631,34427,),0,0,1
1:35.747,34469,(,0,0,2
1:35.861,34510,t,0,0,0
1:35.939,34538,),0,0,2
1:36.364,34691,(,0,0,0
1:36.411,34708,p,0,0,0
1:36.486,34735,),0,0,0
1:36.553,34759,(,0,0,1
1:36.606,34778,N,0,0,0
1:36.681,34805,),0,0,1
1:36.794,34846,(,0,0,2
1:36.869,34873,t,0,0,0
1:36.961,34906,),0,0,2
1:37.361,35050,(,0,0,0
1:37.433,35076,p,0,0,0
1:37.492,35097,),0,0,0
1:37.578,35128,(,0,0,1
1:37.625,35145,N,0,0,0
1:37.694,35170,),0,0,1
1:37.822,35216,(,0,0,2
1:37.947,35261,t,0,0,5
1:38.111,35320,t,0,0,5
1:38.144,35332,),0,0,2
1:38.481,35453,(,0,0,0
1:38.556,35480,p,0,0,0
1:38.619,35503,),0,0,0
1:38.694,35530,(,0,0,1
1:38.742,35547,N,0,0,0
1:38.814,35573,),0,0,1
1:38.936,35617,(,0,0,2
1:39.050,35658,t,0,0,0
1:39.164,35699,),0,0,2
1:39.614,35861,(,0,0,0
1:39.653,35875,p,0,0,0
1:39.681,35885,),0,0,0
1:39.808,35931,(,0,0,1
1:39.889,35960,N,0,0,0
1:39.919,35971,),0,0,1
1:40.050,36018,(,0,0,2
1:40.139,36050,t,0,0,0
1:40.253,36091,),0,0,2
1:40.669,36241,(,0,0,0
1:40.736,36265,p,0,0,0
1:40.811,36292,),0,0,0
1:40.878,36316,(,0,0,1
1:40.919,36331,N,0,0,0
1:40.997,36359,),0,0,1
1:41.097,36395,(,0,0,2
1:41.217,36438,t,0,0,0
1:41.306,36470,),0,0,2
1:41.747,36629,(,0,0,0
1:41.814,36653,p,0,0,0
1:41.872,36674,),0,0,0
1:41.950,36702,(,0,0,1
1:41.994,36718,N,0,0,0
1:42.081,36749,),0,0,1
1:42.203,36793,(,0,0,2
1:42.286,36823,t,0,0,0
1:42.372,36854,),0,0,2
1:42.811,37012,(,0,0,0
1:42.853,37027,p,0,0,0
1:42.922,37052,),0,0,0
1:42.975,37071,(,0,0,1
1:43.056,37100,N,0,0,0
1:43.089,37112,),0,0,1
1:43.228,37162,(,0,0,2
1:43.317,37194,t,0,0,0
1:43.425,37233,),0,0,2
1:43.858,37389,(,0,0,0
1:43.933,37416,p,0,0,0
1:44.003,37441,),0,0,0
1:44.081,37469,(,0,0,1
1:44.131,37487,N,0,0,0
1:44.203,37513,),0,0,1
1:44.350,37566,(,0,0,2
1:44.442,37599,t,0,0,0
1:44.564,37643,),0,0,2
1:44.992,37797,(,0,0,0
1:45.067,37824,p,0,0,0
1:45.125,37845,),0,0,0
1:45.206,37874,(,0,0,1
1:45.286,37903,N,0,0,0
1:45.322,37916,),0,0,1
1:45.494,37978,(,0,0,2
1:45.569,38005,t,0,0,0
1:45.672,38042,),0,0,2
1:46.108,38199,(,0,0,0
1:46.142,38211,p,0,0,0
1:46.167,38220,),0,0,0
1:46.297,38267,(,0,0,1
1:46.381,38297,N,0,0,0
1:46.414,38309,),0,0,1
1:46.550,38358,(,0,0,2
1:46.653,38395,t,0,0,0
1:46.764,38435,),0,0,2
1:47.178,38584,(,0,0,0
1:47.244,38608,p,0,0,0
1:47.303,38629,),0,0,0
1:47.347,38645,(,0,0,1
1:47.428,38674,N,0,0,0
1:47.494,38698,),0,0,1
1:47.644,38752,(,0,0,2
1:47.728,38782,t,0,0,0
1:47.817,38814,),0,0,2
1:48.267,38976,(,0,0,0
1:48.308,38991,p,0,0,0
1:48.339,39002,),0,0,0
1:48.464,39047,(,0,0,1
1:48.508,39063,N,0,0,0
1:48.594,39094,),0,0,1
1:48.706,39134,(,0,0,2
1:48.797,39167,t,0,0,0
1:48.908,39207,),0,0,2
1:49.297,39347,(,0,0,0
1:49.344,39364,p,0,0,0
1:49.378,39376,),0,0,0
1:49.508,39423,(,0,0,1
1:49.594,39454,N,0,0,0
1:49.625,39465,),0,0,1
1:49.769,39517,(,0,0,2
1:49.869,39553,t,0,0,0
1:49.981,39593,),0,0,2
1:50.431,39755,(,0,0,0
1:50.475,39771,p,0,0,0
1:50.558,39801,),0,0,0
1:50.636,39829,(,0,0,1
1:50.722,39860,N,0,0,0
1:50.761,39874,),0,0,1
1:50.875,39915,(,0,0,2
1:50.986,39955,t,0,0,0
1:51.100,39996,),0,0,2
1:51.542,40155,(,0,0,0
1:51.619,40183,p,0,0,0
1:51.681,40205,),0,0,0
1:51.758,40233,(,0,0,1
1:51.808,40251,N,0,0,0
1:51.894,40282,),0,0,1
1:52.017,40326,(,0,0,2
1:52.111,40360,t,0,0,0
1:52.217,40398,),0,0,2
1:52.656,40556,(,0,0,0
1:52.694,40570,p,0,0,0
1:52.725,40581,),0,0,0
1:52.861,40630,(,0,0,1
1:52.942,40659,N,0,0,0
1:52.986,40675,),0,0,1
1:53.094,40714,(,0,0,2
1:53.197,40751,t,0,0,0
1:53.294,40786,),0,0,2
1:53.708,40935,(,0,0,0
1:53.778,40960,p,0,0,0
1:53.839,40982,),0,0,0
1:53.911,41008,(,0,0,1
1:53.956,41024,N,0,0,0
1:54.022,41048,),0,0,1
1:54.139,41090,(,0,0,2
1:54.264,41135,t,0,0,0
1:54.378,41176,),0,0,2
1:54.811,41332,(,0,0,0
1:54.847,41345,p,0,0,0
1:54.925,41373,),0,0,0
1:55.008,41403,(,0,0,1
1:55.067,41424,N,0,0,0
1:55.092,41433,),0,0,1
1:55.253,41491,(,0,0,2
1:55.350,41526,t,0,0,5
1:55.531,41591,t,0,0,5
1:55.578,41608,),0,0,2
1:55.906,41726,(,0,0,0
1:55.972,41750,p,0,0,0
1:56.033,41772,),0,0,0
1:56.119,41803,(,0,0,1
1:56.203,41833,N,0,0,0
1:56.250,41850,),0,0,1
1:56.403,41905,(,0,0,2
1:56.472,41930,t,0,0,0
1:56.586,41971,),0,0,2
1:57.039,42134,(,0,0,0
1:57.086,42151,p,0,0,0
1:57.111,42160,),0,0,0
1:57.236,42205,(,0,0,1
1:57.328,42238,N,0,0,0
1:57.369,42253,),0,0,1
1:57.494,42298,(,0,0,2
1:57.606,42338,t,0,0,5
1:57.783,42402,t,0,0,5
1:57.833,42420,),0,0,2
1:58.147,42533,(,0,0,0
1:58.217,42558,p,0,0,0
1:58.272,42578,),0,0,0
1:58.356,42608,(,0,0,1
1:58.444,42640,N,0,0,0
1:58.481,42653,),0,0,1
1:58.608,42699,(,0,0,2
1:58.714,42737,t,0,0,0
1:58.822,42776,),0,0,2
1:59.256,42932,(,0,0,0
1:59.292,42945,p,0,0,0
1:59.325,42957,),0,0,0
1:59.428,42994,(,0,0,1
1:59.489,43016,N,0,0,0
1:59.572,43046,),0,0,1
1:59.658,43077,(,0,0,2
1:59.775,43119,t,0,0,0
1:59.872,43154,),0,0,2
2:00.333,43320,(,0,0,0
2:00.378,43336,p,0,0,0
2:00.411,43348,),0,0,0
2:00.522,43388,(,0,0,1
2:00.586,43411,N,0,0,0
2:00.675,43443,),0,0,1
2:00.792,43485,(,0,0,2
2:00.886,43519,t,0,0,0
2:00.983,43554,),0,0,2
2:01.414,43709,(,0,0,0
2:01.500,43740,p,0,0,0
2:01.569,43765,),0,0,0
2:01.644,43792,(,0,0,1
2:01.694,43810,N,0,0,0
2:01.764,43835,),0,0,1
2:01.869,43873,(,0,0,2
2:01.989,43916,t,0,0,0
2:02.094,43954,),0,0,2
2:02.572,44126,(,0,0,0
2:02.614,44141,p,0,0,0
2:02.650,44154,),0,0,0
2:02.769,44197,(,0,0,1
2:02.828,44218,N,0,0,0
2:02.900,44244,),0,0,1
2:03.058,44301,(,0,0,2
2:03.144,44332,t,0,0,0
2:03.239,44366,),0,0,2
2:03.700,44532,(,0,0,0
2:03.772,44558,p,0,0,0
2:03.842,44583,),0,0,0
2:03.917,44610,(,0,0,1
2:03.964,44627,N,0,0,0
2:04.031,44651,),0,0,1
2:04.139,44690,(,0,0,2
2:04.247,44729,t,0,0,0
2:04.358,44769,),0,0,2
2:04.833,44940,(,0,0,0
2:04.872,44954,p,0,0,0
2:04.903,44965,),0,0,0
2:05.031,45011,(,0,0,1
2:05.078,45028,N,0,0,0
2:05.147,45053,),0,0,1
2:05.272,45098,(,0,0,2
2:05.367,45132,t,0,0,0
2:05.500,45180,),0,0,2
2:05.872,45314,(,0,0,0
2:05.961,45346,p,0,0,0
2:06.014,45365,),0,0,0
2:06.083,45390,(,0,0,1
2:06.133,45408,N,0,0,0
2:06.211,45436,),0,0,1
2:06.283,45462,(,0,0,2
2:06.300,45468,t,0,0,1
2:06.425,45513,),0,0,2
2:06.456,45524,(,0,0,0
2:06.544,45556,p,0,0,0
2:06.569,45565,),0,0,0
2:06.611,45580,(,0,0,1
2:06.689,45608,N,0,0,0
2:06.778,45640,),0,0,1
2:06.836,45661,(,0,0,2
2:06.939,45698,t,0,0,0
2:07.111,45760,),0,0,2
2:08.083,46110,(,0,0,0
2:08.125,46125,p,0,0,0
2:08.158,46137,),0,0,0
2:08.281,46181,(,0,0,1
2:08.325,46197,N,0,0,0
2:08.419,46231,),0,0,1
2:08.478,46252,(,0,0,2
2:08.594,46294,t,0,0,5
2:09.033,46452,t,0,0,5
2:09.061,46462,),0,0,2
2:09.208,46515,(,0,0,0
2:09.256,46532,p,0,0,0
2:09.286,46543,),0,0,0
2:09.422,46592,(,0,0,1
2:09.478,46612,N,0,0,0
2:09.572,46646,),0,0,1
2:09.694,46690,(,0,0,2
2:09.764,46715,t,0,0,5
2:09.914,46769,t,0,0,5
2:09.967,46788,),0,0,2
2:10.311,46912,(,0,0,0
2:10.369,46933,p,0,0,0
2:10.450,46962,),0,0,0
2:10.533,46992,(,0,0,1
2:10.575,47007,N,0,0,0
2:10.653,47035,),0,0,1
2:10.764,47075,(,0,0,2
2:10.881,47117,t,0,0,0
2:10.989,47156,),0,0,2
2:11.431,47315,(,0,0,0
2:11.467,47328,p,0,0,0
2:11.497,47339,),0,0,0
2:11.628,47386,(,0,0,1
2:11.672,47402,N,0,0,0
2:11.744,47428,),0,0,1
2:11.878,47476,(,0,0,2
2:11.972,47510,t,0,0,0
2:12.083,47550,),0,0,2
2:12.483,47694,(,0,0,0
2:12.525,47709,p,0,0,0
2:12.556,47720,),0,0,0
2:12.681,47765,(,0,0,1
2:12.731,47783,N,0,0,0
2:12.819,47815,),0,0,1
2:12.875,47835,(,0,0,2
2:12.992,47877,t,0,0,5
2:13.181,47945,t,0,0,5
2:13.222,47960,),0,0,2
2:13.583,48090,(,0,0,0
2:13.656,48116,p,0,0,0
2:13.717,48138,),0,0,0
2:13.794,48166,(,0,0,1
2:13.847,48185,N,0,0,0
2:13.925,48213,),0,0,1
2:14.036,48253,(,0,0,2
2:14.161,48298,t,0,0,5
2:14.333,48360,t,0,0,5
2:14.369,48373,),0,0,2
2:14.700,48492,(,0,0,0
2:14.739,48506,p,0,0,0
2:14.772,48518,),0,0,0
2:14.917,48570,(,0,0,1
2:14.961,48586,N,0,0,0
2:15.028,48610,),0,0,1
2:15.136,48649,(,0,0,2
2:15.250,48690,t,0,0,5
2:15.411,48748,t,0,0,5
2:15.461,48766,),0,0,2
2:15.814,48893,(,0,0,0
2:15.867,48912,p,0,0,0
2:15.944,48940,),0,0,0
2:15.994,48958,(,0,0,1
2:16.064,48983,N,0,0,0
2:16.131,49007,),0,0,1
2:16.281,49061,(,0,0,2
2:16.356,49088,t,0,0,0
2:16.469,49129,),0,0,2
2:16.900,49284,(,0,0,0
2:16.942,49299,p,0,0,0
2:16.972,49310,),0,0,0
2:17.111,49360,(,0,0,1
2:17.156,49376,N,0,0,0
2:17.242,49407,),0,0,1
2:17.350,49446,(,0,0,2
2:17.456,49484,t,0,0,0
2:17.564,49523,),0,0,2
2:17.961,49666,(,0,0,0
2:18.039,49694,p,0,0,0
2:18.100,49716,),0,0,0
2:18.172,49742,(,0,0,1
2:18.217,49758,N,0,0,0
2:18.294,49786,),0,0,1
2:18.397,49823,(,0,0,2
2:18.497,49859,t,0,0,5
2:18.647,49913,t,0,0,5
2:18.681,49925,),0,0,2
2:19.000,50040,(,0,0,0
2:19.033,50052,p,0,0,0
2:19.067,50064,),0,0,0
2:19.206,50114,(,0,0,1
2:19.250,50130,N,0,0,0
2:19.342,50163,),0,0,1
2:19.461,50206,(,0,0,2
2:19.586,50251,t,0,0,5
2:19.764,50315,t,0,0,5
2:19.808,50331,),0,0,2
2:20.133,50448,(,0,0,0
2:20.178,50464,p,0,0,0
2:20.208,50475,),0,0,0
2:20.336,50521,(,0,0,1
2:20.392,50541,N,0,0,0
2:20.469,50569,),0,0,1
2:20.581,50609,(,0,0,2
2:20.703,50653,t,0,0,5
2:21.161,50818,t,0,0,5
2:21.192,50829,),0,0,2
2:21.242,50847,(,0,0,0
2:21.283,50862,p,0,0,0
2:21.317,50874,),0,0,0
2:21.444,50920,(,0,0,1
2:21.489,50936,N,0,0,0
2:21.558,50961,),0,0,1
2:21.708,51015,(,0,0,2
2:21.792,51045,t,0,0,0
2:21.917,51090,),0,0,2
2:22.306,51230,(,0,0,0
2:22.378,51256,p,0,0,0
2:22.436,51277,),0,0,0
2:22.519,51307,(,0,0,1
2:22.567,51324,N,0,0,0
2:22.633,51348,),0,0,1
2:22.736,51385,(,0,0,2
2:22.878,51436,t,0,0,5
2:23.353,51607,t,0,0,5
2:23.383,51618,),0,0,2
2:23.422,51632,(,0,0,0
2:23.464,51647,p,0,0,0
2:23.494,51658,),0,0,0
2:23.622,51704,(,0,0,1
2:23.669,51721,N,0,0,0
2:23.742,51747,),0,0,1
2:23.844,51784,(,0,0,2
2:23.953,51823,t,0,0,0
2:24.069,51865,),0,0,2
2:24.472,52010,(,0,0,0
2:24.508,52023,p,0,0,0
2:24.539,52034,),0,0,0
2:24.661,52078,(,0,0,1
2:24.706,52094,N,0,0,0
2:24.789,52124,),0,0,1
2:24.864,52151,(,0,0,2
2:24.956,52184,t,0,0,0
2:25.072,52226,),0,0,2
2:25.522,52388,(,0,0,0
2:25.583,52410,p,0,0,0
2:25.678,52444,),0,0,0
2:25.769,52477,(,0,0,1
2:25.817,52494,N,0,0,0
2:25.900,52524,),0,0,1
2:26.006,52562,(,0,0,2
2:26.131,52607,t,0,0,0
2:26.258,52653,),0,0,2
2:26.689,52808,(,0,0,0
2:26.758,52833,p,0,0,0
2:26.819,52855,),0,0,0
2:26.894,52882,(,0,0,1
2:26.939,52898,N,0,0,0
2:27.019,52927,),0,0,1
2:27.125,52965,(,0,0,2
2:27.244,53008,t,0,0,0
2:27.358,53049,),0,0,2
2:27.811,53212,(,0,0,0
2:27.853,53227,p,0,0,0
2:27.883,53238,),0,0,0
2:28.022,53288,(,0,0,1
2:28.064,53303,N,0,0,0
2:28.131,53327,),0,0,1
2:28.242,53367,(,0,0,2
2:28.350,53406,t,0,0,5
2:28.822,53576,t,0,0,5
2:28.858,53589,),0,0,2
2:28.906,53606,(,0,0,0
2:28.947,53621,p,0,0,0
2:28.978,53632,),0,0,0
2:29.108,53679,(,0,0,1
2:29.153,53695,N,0,0,0
2:29.225,53721,),0,0,1
2:29.331,53759,(,0,0,2
2:29.456,53804,t,0,0,0
2:29.572,53846,),0,0,2
2:29.981,53993,(,0,0,0
2:30.056,54020,p,0,0,0
2:30.117,54042,),0,0,0
2:30.192,54069,(,0,0,1
2:30.239,54086,N,0,0,0
2:30.328,54118,),0,0,1
2:30.433,54156,(,0,0,2
2:30.536,54193,t,0,0,0
2:30.656,54236,),0,0,2
2:31.008,54363,(,0,0,0
2:31.056,54380,p,0,0,0
2:31.089,54392,),0,0,0
2:31.222,54440,(,0,0,1
2:31.267,54456,N,0,0,0
2:31.339,54482,),0,0,1
2:31.486,54535,(,0,0,2
2:31.586,54571,t,0,0,0
2:31.703,54613,),0,0,2
2:32.164,54779,(,0,0,0
2:32.206,54794,p,0,0,0
2:32.233,54804,),0,0,0
2:32.367,54852,(,0,0,1
2:32.417,54870,N,0,0,0
2:32.511,54904,),0,0,1
2:32.631,54947,(,0,0,2
2:32.736,54985,t,0,0,0
2:32.850,55026,),0,0,2
2:33.281,55181,(,0,0,0
2:33.353,55207,p,0,0,0
2:33.414,55229,),0,0,0
2:33.497,55259,(,0,0,1
2:33.542,55275,N,0,0,0
2:33.622,55304,),0,0,1
2:33.775,55359,(,0,0,2
2:33.842,55383,t,0,0,0
2:33.947,55421,),0,0,2
2:34.361,55570,(,0,0,0
2:34.428,55594,p,0,0,0
2:34.492,55617,),0,0,0
2:34.564,55643,(,0,0,1
2:34.608,55659,N,0,0,0
2:34.694,55690,),0,0,1
2:34.800,55728,(,0,0,2
2:34.919,55771,t,0,0,0
2:35.028,55810,),0,0,2
2:35.447,55961,(,0,0,0
2:35.492,55977,p,0,0,0
2:35.525,55989,),0,0,0
2:35.647,56033,(,0,0,1
2:35.700,56052,N,0,0,0
2:35.794,56086,),0,0,1
2:35.911,56128,(,0,0,2
2:35.994,56158,t,0,0,5
2:36.461,56326,t,0,0,5
2:36.547,56357,),0,0,2
2:36.625,56385,(,0,0,0
2:36.711,56416,p,0,0,0
2:36.747,56429,),0,0,0
2:36.756,56432,(,0,0,1
2:36.908,56487,N,0,0,0
2:37.039,56534,),0,0,1
2:37.042,56535,(,0,0,2
2:37.197,56591,t,0,0,1
2:37.211,56596,),0,0,2
2:37.536,56713,(,0,0,0
2:37.608,56739,p,0,0,0
2:37.669,56761,),0,0,0
2:37.753,56791,(,0,0,1
2:37.800,56808,N,0,0,0
2:37.869,56833,),0,0,1
2:38.042,56895,(,0,0,2
2:38.117,56922,t,0,0,0
2:38.233,56964,),0,0,2
2:38.667,57120,(,0,0,0
2:38.747,57149,p,0,0,0
2:38.808,57171,),0,0,0
2:38.900,57204,(,0,0,1
2:38.944,57220,N,0,0,0
2:39.028,57250,),0,0,1
2:39.169,57301,(,0,0,2
2:39.247,57329,t,0,0,0
2:39.344,57364,),0,0,2
2:39.789,57524,(,0,0,0
2:39.825,57537,p,0,0,0
2:39.853,57547,),0,0,0
2:39.978,57592,(,0,0,1
2:40.022,57608,N,0,0,0
2:40.106,57638,),0,0,1
2:40.250,57690,(,0,0,2
2:40.314,57713,t,0,0,0
2:40.422,57752,),0,0,2
2:40.822,57896,(,0,0,0
2:40.869,57913,p,0,0,0
2:40.947,57941,),0,0,0
2:41.028,57970,(,0,0,1
2:41.075,57987,N,0,0,0
2:41.144,58012,),0,0,1
2:41.225,58041,(,0,0,2
2:41.378,58096,t,0,0,5
2:41.503,58141,t,0,0,5
2:41.533,58152,),0,0,2
2:41.894,58282,(,0,0,0
2:41.947,58301,p,0,0,0
2:42.031,58331,),0,0,0
2:42.106,58358,(,0,0,1
2:42.153,58375,N,0,0,0
2:42.233,58404,),0,0,1
2:42.358,58449,(,0,0,2
2:42.444,58480,t,0,0,0
2:42.550,58518,),0,0,2
2:42.914,58649,(,0,0,0
2:42.950,58662,p,0,0,0
2:42.981,58673,),0,0,0
2:43.100,58716,(,0,0,1
2:43.150,58734,N,0,0,0
2:43.233,58764,),0,0,1
2:43.347,58805,(,0,0,2
2:43.458,58845,t,0,0,0
2:43.564,58883,),0,0,2
2:43.997,59039,(,0,0,0
2:44.042,59055,p,0,0,0
2:44.081,59069,),0,0,0
2:44.228,59122,(,0,0,1
2:44.278,59140,N,0,0,0
2:44.369,59173,),0,0,1
2:44.508,59223,(,0,0,2
2:44.589,59252,t,0,0,0
2:44.728,59302,),0,0,2
2:45.136,59449,(,0,0,0
2:45.206,59474,p,0,0,0
2:45.267,59496,),0,0,0
2:45.350,59526,(,0,0,1
2:45.394,59542,N,0,0,0
2:45.461,59566,),0,0,1
2:45.608,59619,(,0,0,2
2:45.697,59651,t,0,0,0
2:45.800,59688,),0,0,2
2:46.189,59828,(,0,0,0
2:46.261,59854,p,0,0,0
2:46.325,59877,),0,0,0
2:46.411,59908,(,0,0,1
2:46.458,59925,N,0,0,0
2:46.531,59951,),0,0,1
2:46.656,59996,(,0,0,2
2:46.767,60036,t,0,0,0
2:46.881,60077,),0,0,2
2:47.269,60217,(,0,0,0
2:47.344,60244,p,0,0,0
2:47.403,60265,),0,0,0
2:47.481,60293,(,0,0,1
2:47.525,60309,N,0,0,0
2:47.603,60337,),0,0,1
2:47.767,60396,(,0,0,2
2:47.817,60414,t,0,0,0
2:47.925,60453,),0,0,2
2:48.347,60605,(,0,0,0
2:48.414,60629,p,0,0,0
2:48.469,60649,),0,0,0
2:48.531,60671,(,0,0,1
2:48.592,60693,N,0,0,0
2:48.658,60717,),0,0,1
2:48.811,60772,(,0,0,2
2:48.867,60792,t,0,0,0
2:48.947,60821,),0,0,2
2:49.386,60979,(,0,0,0
2:49.428,60994,p,0,0,0
2:49.511,61024,),0,0,0
2:49.600,61056,(,0,0,1
2:49.650,61074,N,0,0,0
2:49.719,61099,),0,0,1
2:49.878,61156,(,0,0,2
2:49.967,61188,t,0,0,0
2:50.058,61221,),0,0,2
2:50.531,61391,(,0,0,0
2:50.606,61418,p,0,0,0
2:50.667,61440,),0,0,0
2:50.747,61469,(,0,0,1
2:50.794,61486,N,0,0,0
2:50.869,61513,),0,0,1
2:50.972,61550,(,0,0,2
2:51.103,61597,t,0,0,0
2:51.203,61633,),0,0,2
2:51.661,61798,(,0,0,0
2:51.700,61812,p,0,0,0
2:51.733,61824,),0,0,0
2:51.864,61871,(,0,0,1
2:51.908,61887,N,0,0,0
2:51.981,61913,),0,0,1
2:52.072,61946,(,0,0,2
2:52.189,61988,t,0,0,5
2:52.361,62050,t,0,0,5
2:52.397,62063,),0,0,2
2:52.744,62188,(,0,0,0
2:52.783,62202,p,0,0,0
2:52.831,62219,),0,0,0
2:52.942,62259,(,0,0,1
2:52.989,62276,N,0,0,0
2:53.078,62308,),0,0,1
2:53.178,62344,(,0,0,2
2:53.278,62380,t,0,0,0
2:53.381,62417,),0,0,2
2:53.817,62574,(,0,0,0
2:53.856,62588,p,0,0,0
2:53.889,62600,),0,0,0
2:54.022,62648,(,0,0,1
2:54.069,62665,N,0,0,0
2:54.133,62688,),0,0,1
2:54.283,62742,(,0,0,2
2:54.378,62776,t,0,0,0
2:54.469,62809,),0,0,2
2:54.878,62956,(,0,0,0
2:54.914,62969,p,0,0,0
2:54.992,62997,),0,0,0
2:55.075,63027,(,0,0,1
2:55.158,63057,N,0,0,0
2:55.194,63070,),0,0,1
2:55.342,63123,(,0,0,2
2:55.433,63156,t,0,0,0
2:55.536,63193,),0,0,2
2:55.978,63352,(,0,0,0
2:56.050,63378,p,0,0,0
2:56.108,63399,),0,0,0
2:56.197,63431,(,0,0,1
2:56.244,63448,N,0,0,0
2:56.319,63475,),0,0,1
2:56.456,63524,(,0,0,2
2:56.564,63563,t,0,0,0
2:56.683,63606,),0,0,2
2:57.136,63769,(,0,0,0
2:57.203,63793,p,0,0,0
2:57.264,63815,),0,0,0
2:57.347,63845,(,0,0,1
2:57.394,63862,N,0,0,0
2:57.461,63886,),0,0,1
2:57.603,63937,(,0,0,2
2:57.711,63976,t,0,0,0
2:57.811,64012,),0,0,2
2:58.225,64161,(,0,0,0
2:58.269,64177,p,0,0,0
2:58.306,64190,),0,0,0
2:58.436,64237,(,0,0,1
2:58.486,64255,N,0,0,0
2:58.567,64284,),0,0,1
2:58.703,64333,(,0,0,2
2:58.783,64362,t,0,0,0
2:58.914,64409,),0,0,2
2:59.306,64550,(,0,0,0
2:59.375,64575,p,0,0,0
2:59.433,64596,),0,0,0
2:59.508,64623,(,0,0,1
2:59.556,64640,N,0,0,0
2:59.631,64667,),0,0,1
2:59.725,64701,(,0,0,2
2:59.856,64748,t,0,0,0
2:59.950,64782,),0,0,2
3:00.406,64946,(,0,0,0
3:00.450,64962,p,0,0,0
3:00.481,64973,),0,0,0
3:00.614,65021,(,0,0,1
3:00.667,65040,N,0,0,0
3:00.756,65072,),0,0,1
3:00.839,65102,(,0,0,2
3:00.928,65134,t,0,0,0
3:01.028,65170,),0,0,2
3:01.483,65334,(,0,0,0
3:01.556,65360,p,0,0,0
3:01.617,65382,),0,0,0
3:01.694,65410,(,0,0,1
3:01.739,65426,N,0,0,0
3:01.814,65453,),0,0,1
3:01.942,65499,(,0,0,2
3:02.039,65534,t,0,0,0
3:02.161,65578,),0,0,2
3:02.611,65740,(,0,0,0
3:02.689,65768,p,0,0,0
3:02.753,65791,),0,0,0
3:02.842,65823,(,0,0,1
3:02.889,65840,N,0,0,0
3:02.975,65871,),0,0,1
3:03.089,65912,(,0,0,2
3:03.217,65958,t,0,0,0
3:03.325,65997,),0,0,2
3:03.778,66160,(,0,0,0
3:03.847,66185,p,0,0,0
3:03.908,66207,),0,0,0
3:03.969,66229,(,0,0,1
3:04.028,66250,N,0,0,0
3:04.092,66273,),0,0,1
3:04.192,66309,(,0,0,2
3:04.306,66350,t,0,0,0
3:04.411,66388,),0,0,2
3:04.833,66540,(,0,0,0
3:04.903,66565,p,0,0,0
3:04.961,66586,),0,0,0
3:05.042,66615,(,0,0,1
3:05.086,66631,N,0,0,0
3:05.175,66663,),0,0,1
3:05.281,66701,(,0,0,2
3:05.386,66739,t,0,0,0
3:05.503,66781,),0,0,2
3:05.922,66932,(,0,0,0
3:05.964,66947,p,0,0,0
3:05.994,66958,),0,0,0
3:06.133,67008,(,0,0,1
3:06.181,67025,N,0,0,0
3:06.267,67056,),0,0,1
3:06.369,67093,(,0,0,2
3:06.475,67131,t,0,0,0
3:06.569,67165,),0,0,2
3:06.975,67311,(,0,0,0
3:07.019,67327,p,0,0,0
3:07.047,67337,),0,0,0
3:07.167,67380,(,0,0,1
3:07.222,67400,N,0,0,0
3:07.306,67430,),0,0,1
3:07.414,67469,(,0,0,2
3:07.539,67514,t,0,0,0
3:07.656,67556,),0,0,2
3:08.081,67709,(,0,0,0
3:08.161,67738,p,0,0,0
3:08.222,67760,),0,0,0
3:08.306,67790,(,0,0,1
3:08.350,67806,N,0,0,0
3:08.433,67836,),0,0,1
3:08.567,67884,(,0,0,2
3:08.661,67918,t,0,0,0
3:08.767,67956,),0,0,2
3:09.228,68122,(,0,0,0
3:09.272,68138,p,0,0,0
3:09.308,68151,),0,0,0
3:09.456,68204,(,0,0,1
3:09.503,68221,N,0,0,0
3:09.578,68248,),0,0,1
3:09.694,68290,(,0,0,2
3:09.806,68330,t,0,0,0
3:09.917,68370,),0,0,2
3:10.322,68516,(,0,0,0
3:10.392,68541,p,0,0,0
3:10.453,68563,),0,0,0
3:10.522,68588,(,0,0,1
3:10.569,68605,N,0,0,0
3:10.653,68635,),0,0,1
3:10.758,68673,(,0,0,2
3:10.864,68711,t,0,0,0
3:10.975,68751,),0,0,2
3:11.389,68900,(,0,0,0
3:11.458,68925,p,0,0,0
3:11.519,68947,),0,0,0
3:11.600,68976,(,0,0,1
3:11.644,68992,N,0,0,0
3:11.731,69023,),0,0,1
3:11.861,69070,(,0,0,2
3:11.933,69096,t,0,0,0
3:12.058,69141,),0,0,2
3:12.467,69288,(,0,0,0
3:12.503,69301,p,0,0,0
3:12.536,69313,),0,0,0
3:12.667,69360,(,0,0,1
3:12.711,69376,N,0,0,0
3:12.792,69405,),0,0,1
3:12.875,69435,(,0,0,2
3:12.981,69473,t,0,0,0
3:13.061,69502,),0,0,2
3:13.072,69506,(,0,0,0
3:13.136,69529,p,0,0,0
3:13.203,69553,),0,0,0
3:13.258,69573,(,0,0,1
3:13.339,69602,N,0,0,0
3:13.419,69631,),0,0,1
3:13.506,69662,(,0,0,2
3:13.600,69696,t,0,0,0
3:13.758,69753,),0,0,2
3:14.725,70101,(,0,0,0
3:14.764,70115,p,0,0,0
3:14.831,70139,),0,0,0
3:14.869,70153,(,0,0,1
3:15.025,70209,N,0,0,0
3:15.178,70264,),0,0,1
3:15.222,70280,(,0,0,2
3:15.358,70329,t,0,0,1
3:15.417,70350,),0,0,2
3:15.736,70465,(,0,0,0
3:15.803,70489,p,0,0,0
3:15.864,70511,),0,0,0
3:15.906,70526,(,0,0,1
3:15.981,70553,N,0,0,0
3:16.058,70581,),0,0,1
3:16.106,70598,(,0,0,2
3:16.264,70655,t,0,0,0
3:16.383,70698,),0,0,2
3:16.792,70845,(,0,0,0
3:16.833,70860,p,0,0,0
3:16.864,70871,),0,0,0
3:16.989,70916,(,0,0,1
3:17.036,70933,N,0,0,0
3:17.119,70963,),0,0,1
3:17.231,71003,(,0,0,2
3:17.333,71040,t,0,0,0
3:17.442,71079,),0,0,2
3:17.828,71218,(,0,0,0
3:17.872,71234,p,0,0,0
3:17.903,71245,),0,0,0
3:18.033,71292,(,0,0,1
3:18.081,71309,N,0,0,0
3:18.164,71339,),0,0,1
3:18.283,71382,(,0,0,2
3:18.367,71412,t,0,0,0
3:18.486,71455,),0,0,2
3:18.842,71583,(,0,0,0
3:18.878,71596,p,0,0,0
3:18.953,71623,),0,0,0
3:19.022,71648,(,0,0,1
3:19.067,71664,N,0,0,0
3:19.131,71687,),0,0,1
3:19.239,71726,(,0,0,2
3:19.383,71778,t,0,0,0
3:19.525,71829,),0,0,2
3:19.931,71975,(,0,0,0
3:19.969,71989,p,0,0,0
3:20.006,72002,),0,0,0
3:20.144,72052,(,0,0,1
3:20.192,72069,N,0,0,0
3:20.272,72098,),0,0,1
3:20.375,72135,(,0,0,2
3:20.506,72182,t,0,0,0
3:20.614,72221,),0,0,2
3:21.006,72362,(,0,0,0
3:21.075,72387,p,0,0,0
3:21.136,72409,),0,0,0
3:21.217,72438,(,0,0,1
3:21.264,72455,N,0,0,0
3:21.336,72481,),0,0,1
3:21.453,72523,(,0,0,2
3:21.583,72570,t,0,0,0
3:21.697,72611,),0,0,2
3:22.097,72755,(,0,0,0
3:22.139,72770,p,0,0,0
3:22.175,72783,),0,0,0
3:22.314,72833,(,0,0,1
3:22.361,72850,N,0,0,0
3:22.431,72875,),0,0,1
3:22.556,72920,(,0,0,2
3:22.664,72959,t,0,0,0
3:22.786,73003,),0,0,2
3:23.169,73141,(,0,0,0
3:23.208,73155,p,0,0,0
3:23.294,73186,),0,0,0
3:23.364,73211,(,0,0,1
3:23.408,73227,N,0,0,0
3:23.481,73253,),0,0,1
3:23.592,73293,(,0,0,2
3:23.706,73334,t,0,0,0
3:23.811,73372,),0,0,2
3:24.206,73514,(,0,0,0
3:24.247,73529,p,0,0,0
3:24.278,73540,),0,0,0
3:24.419,73591,(,0,0,1
3:24.464,73607,N,0,0,0
3:24.533,73632,),0,0,1
3:24.647,73673,(,0,0,2
3:24.742,73707,t,0,0,0
3:24.836,73741,),0,0,2
3:25.244,73888,(,0,0,0
3:25.286,73903,p,0,0,0
3:25.317,73914,),0,0,0
3:25.464,73967,(,0,0,1
3:25.508,73983,N,0,0,0
3:25.606,74018,),0,0,1
3:25.714,74057,(,0,0,2
3:25.836,74101,t,0,0,0
3:25.947,74141,),0,0,2
3:26.378,74296,(,0,0,0
3:26.417,74310,p,0,0,0
3:26.453,74323,),0,0,0
3:26.597,74375,(,0,0,1
3:26.647,74393,N,0,0,0
3:26.722,74420,),0,0,1
3:26.828,74458,(,0,0,2
3:26.958,74505,t,0,0,0
3:27.075,74547,),0,0,2
3:27.486,74695,(,0,0,0
3:27.564,74723,p,0,0,0
3:27.625,74745,),0,0,0
3:27.708,74775,(,0,0,1
3:27.758,74793,N,0,0,0
3:27.839,74822,),0,0,1
3:27.961,74866,(,0,0,2
3:28.061,74902,t,0,0,0
3:28.161,74938,),0,0,2
3:28.822,75176,(,0,0,0
3:28.842,75183,p,0,0,0
3:28.875,75195,),0,0,0
3:28.886,75199,(,0,0,1
3:29.036,75253,N,0,0,0
3:29.186,75307,),0,0,1
3:29.189,75308,t,0,0,3
3:29.297,75347,),0,0,2
3:29.714,75497,(,0,0,0
3:29.750,75510,p,0,0,0
3:29.783,75522,),0,0,0
3:29.919,75571,(,0,0,1
3:29.964,75587,N,0,0,0
3:30.039,75614,),0,0,1
3:30.164,75659,(,0,0,2
3:30.256,75692,t,0,0,0
3:30.361,75730,),0,0,2
3:30.786,75883,(,0,0,0
3:30.822,75896,p,0,0,0
3:30.897,75923,),0,0,0
3:30.956,75944,(,0,0,1
3:31.000,75960,N,0,0,0
3:31.086,75991,),0,0,1
3:31.192,76029,(,0,0,2
3:31.306,76070,t,0,0,0
3:31.422,76112,),0,0,2
3:32.158,76377,(,0,0,0
3:32.183,76386,p,0,0,0
3:32.200,76392,),0,0,0
3:32.225,76401,(,0,0,1
3:32.350,76446,N,0,0,0
3:32.497,76499,),0,0,1
3:32.500,76500,t,0,0,3
3:32.628,76546,),0,0,2
3:33.067,76704,(,0,0,0
3:33.103,76717,p,0,0,0
3:33.189,76748,),0,0,0
3:33.264,76775,(,0,0,1
3:33.314,76793,N,0,0,0
3:33.392,76821,),0,0,1
3:33.489,76856,(,0,0,2
3:33.622,76904,t,0,0,0
3:33.728,76942,),0,0,2
3:34.164,77099,(,0,0,0
3:34.206,77114,p,0,0,0
3:34.239,77126,),0,0,0
3:34.381,77177,(,0,0,1
3:34.428,77194,N,0,0,0
3:34.500,77220,),0,0,1
3:34.619,77263,(,0,0,2
3:34.744,77308,t,0,0,0
3:34.842,77343,),0,0,2
3:35.481,77573,(,0,0,0
3:35.503,77581,p,0,0,0
3:35.536,77593,),0,0,0
3:35.544,77596,(,0,0,1
3:35.708,77655,N,0,0,0
3:35.831,77699,),0,0,1
3:35.833,77700,t,0,0,3
3:35.936,77737,),0,0,2
3:36.356,77888,(,0,0,0
3:36.400,77904,p,0,0,0
3:36.478,77932,),0,0,0
3:36.550,77958,(,0,0,1
3:36.594,77974,N,0,0,0
3:36.675,78003,),0,0,1
3:36.783,78042,(,0,0,2
3:36.872,78074,t,0,0,5
3:37.389,78260,t,0,0,5
3:37.447,78281,),0,0,2
3:37.619,78343,(,0,0,0
3:37.636,78349,p,0,0,0
3:37.669,78361,),0,0,0
3:37.683,78366,(,0,0,1
3:37.842,78423,N,0,0,0
3:37.869,78433,),0,0,1
3:37.925,78453,(,0,0,2
3:37.992,78477,t,0,0,0
3:38.117,78522,),0,0,2
3:38.575,78687,(,0,0,0
3:38.614,78701,p,0,0,0
3:38.697,78731,),0,0,0
3:38.778,78760,(,0,0,1
3:38.825,78777,N,0,0,0
3:38.903,78805,),0,0,1
3:39.019,78847,(,0,0,2
3:39.142,78891,t,0,0,0
3:39.233,78924,),0,0,2
3:39.686,79087,(,0,0,0
3:39.753,79111,p,0,0,0
3:39.811,79132,),0,0,0
3:39.878,79156,(,0,0,1
3:39.928,79174,N,0,0,0
3:39.992,79197,),0,0,1
3:40.092,79233,(,0,0,2
3:40.214,79277,t,0,0,0
3:40.314,79313,),0,0,2
3:40.978,79552,(,0,0,0
3:40.997,79559,p,0,0,0
3:41.031,79571,),0,0,0
3:41.042,79575,(,0,0,1
3:41.203,79633,N,0,0,0
3:41.331,79679,),0,0,1
3:41.344,79684,(,0,0,2
3:41.656,79796,t,0,0,1
3:41.881,79877,),0,0,2
3:42.019,79927,(,0,0,0
3:42.039,79934,p,0,0,0
3:42.072,79946,),0,0,0
3:42.078,79948,(,0,0,1
3:42.206,79994,N,0,0,0
3:42.361,80050,),0,0,1
3:42.392,80061,(,0,0,2
3:42.681,80165,t,0,0,1
3:42.897,80243,),0,0,2
3:43.053,80299,(,0,0,0
3:43.069,80305,p,0,0,0
3:43.103,80317,),0,0,0
3:43.114,80321,(,0,0,1
3:43.275,80379,N,0,0,0
3:43.317,80394,),0,0,1
3:43.342,80403,(,0,0,2
3:43.369,80413,t,0,0,0
3:43.397,80423,),0,0,2
3:43.572,80486,(,0,0,1
3:43.647,80513,N,0,0,0
3:43.728,80542,),0,0,1
3:43.828,80578,(,0,0,2
3:43.931,80615,t,0,0,0
3:44.208,80715,),0,0,2
3:45.247,81089,(,0,0,0
3:45.264,81095,p,0,0,0
3:45.297,81107,),0,0,0
3:45.311,81112,(,0,0,1
3:45.469,81169,N,0,0,0
3:45.617,81222,),0,0,1
3:46.114,81401,(,0,0,0
3:46.178,81424,p,0,0,0
3:46.242,81447,),0,0,0
3:46.311,81472,(,0,0,1
3:46.367,81492,N,0,0,0
3:46.453,81523,),0,0,1
3:46.550,81558,(,0,0,2
3:46.664,81599,t,0,0,5
3:47.108,81759,t,0,0,5
3:47.225,81801,),0,0,2
3:47.375,81855,(,0,0,0
3:47.392,81861,p,0,0,0
3:47.425,81873,),0,0,0
3:47.436,81877,(,0,0,1
3:47.597,81935,N,0,0,0
3:47.617,81942,),0,0,1
3:47.686,81967,(,0,0,2
3:47.728,81982,t,0,0,5
3:48.183,82146,t,0,0,5
3:48.247,82169,),0,0,2
3:48.422,82232,(,0,0,0
3:48.467,82248,p,0,0,0
3:48.511,82264,),0,0,0
3:48.561,82282,(,0,0,1
3:48.603,82297,N,0,0,0
3:48.614,82301,),0,0,1
3:48.761,82354,(,0,0,2
3:49.008,82443,t,0,0,1
3:49.250,82530,),0,0,2
3:49.406,82586,(,0,0,0
3:49.428,82594,p,0,0,0
3:49.453,82603,),0,0,0
3:49.464,82607,(,0,0,1
3:49.617,82662,N,0,0,0
3:49.681,82685,),0,0,1
3:49.789,82724,(,0,0,2
3:50.092,82833,t,0,0,1
3:50.333,82920,),0,0,2
3:50.497,82979,(,0,0,0
3:50.514,82985,p,0,0,0
3:50.544,82996,),0,0,0
3:50.558,83001,(,0,0,1
3:50.714,83057,N,0,0,0
3:50.864,83111,),0,0,1
3:50.875,83115,t,0,0,3
3:50.961,83146,),0,0,2
3:51.386,83299,(,0,0,0
3:51.450,83322,p,0,0,0
3:51.511,83344,),0,0,0
3:51.583,83370,(,0,0,1
3:51.633,83388,N,0,0,0
3:51.708,83415,),0,0,1
3:51.786,83443,(,0,0,2
3:51.858,83469,t,0,0,5
3:51.994,83518,t,0,0,5
3:52.056,83540,),0,0,2
3:52.389,83660,(,0,0,0
3:52.433,83676,p,0,0,0
3:52.475,83691,),0,0,0
3:52.603,83737,(,0,0,1
3:52.650,83754,N,0,0,0
3:52.725,83781,),0,0,1
3:53.458,84045,(,0,0,0
3:53.492,84057,p,0,0,0
3:53.522,84068,),0,0,0
3:53.633,84108,(,0,0,1
3:53.692,84129,N,0,0,0
3:53.778,84160,),0,0,1
3:53.878,84196,(,0,0,2
3:53.992,84237,t,0,0,0
3:54.103,84277,),0,0,2
3:54.456,84404,(,0,0,0
3:54.494,84418,p,0,0,0
3:54.528,84430,),0,0,0
3:54.639,84470,(,0,0,1
3:54.700,84492,N,0,0,0
3:54.767,84516,),0,0,1
3:54.842,84543,(,0,0,2
3:54.956,84584,t,0,0,0
3:55.044,84616,),0,0,2
3:55.489,84776,(,0,0,0
3:55.525,84789,p,0,0,0
3:55.561,84802,),0,0,0
3:55.683,84846,(,0,0,1
3:55.733,84864,N,0,0,0
3:55.814,84893,),0,0,1
3:56.061,84982,(,0,0,2
3:56.294,85066,t,0,0,1
3:56.447,85121,),0,0,2
3:56.786,85243,(,0,0,0
3:56.803,85249,p,0,0,0
3:56.839,85262,),0,0,0
3:56.850,85266,(,0,0,1
3:57.011,85324,N,0,0,0
3:57.161,85378,),0,0,1
3:57.181,85385,(,0,0,2
3:57.311,85432,t,0,0,1
3:57.350,85446,),0,0,2
3:57.672,85562,(,0,0,0
3:57.714,85577,p,0,0,0
3:57.750,85590,),0,0,0
3:57.881,85637,(,0,0,1
3:57.922,85652,N,0,0,0
3:57.994,85678,),0,0,1
3:58.081,85709,(,0,0,2
3:58.186,85747,t,0,0,0
3:58.303,85789,),0,0,2
3:58.711,85936,(,0,0,0
3:58.781,85961,p,0,0,0
3:58.842,85983,),0,0,0
3:58.925,86013,(,0,0,1
3:58.972,86030,N,0,0,0
3:59.042,86055,),0,0,1
3:59.153,86095,(,0,0,2
3:59.272,86138,t,0,0,0
3:59.369,86173,),0,0,2
3:59.778,86320,(,0,0,0
3:59.828,86338,p,0,0,0
3:59.917,86370,),0,0,0
3:59.989,86396,(,0,0,1
4:00.042,86415,N,0,0,0
4:00.106,86438,),0,0,1
4:00.267,86496,(,0,0,2
4:00.328,86518,t,0,0,5
4:00.481,86573,t,0,0,5
4:00.517,86586,),0,0,2
4:00.817,86694,(,0,0,0
4:00.864,86711,p,0,0,0
4:00.939,86738,),0,0,0
4:01.011,86764,(,0,0,1
4:01.056,86780,N,0,0,0
4:01.125,86805,),0,0,1
4:01.286,86863,(,0,0,2
4:01.353,86887,t,0,0,5
4:01.539,86954,t,0,0,5
4:01.572,86966,),0,0,2
4:01.817,87054,(,0,0,0
4:01.872,87074,p,0,0,0
4:01.947,87101,),0,0,0
4:01.967,87108,(,0,0,1
4:02.042,87135,N,0,0,0
4:02.139,87170,),0,0,1
4:02.242,87207,(,0,0,2
4:02.408,87267,t,0,0,5
4:02.847,87425,t,0,0,5
4:02.914,87449,),0,0,2
4:03.267,87576,(,0,0,0
4:03.283,87582,p,0,0,0
4:03.317,87594,),0,0,0
4:03.325,87597,(,0,0,1
4:03.464,87647,N,0,0,0
4:03.581,87689,),0,0,1
4:04.356,87968,(,0,0,0
4:04.372,87974,p,0,0,0
4:04.408,87987,),0,0,0
4:04.414,87989,(,0,0,1
4:04.564,88043,N,0,0,0
4:04.703,88093,),0,0,1
4:04.728,88102,(,0,0,2
4:05.022,88208,t,0,0,1
4:05.303,88309,),0,0,2
4:05.458,88365,(,0,0,0
4:05.478,88372,p,0,0,0
4:05.514,88385,),0,0,0
4:05.517,88386,(,0,0,1
4:05.667,88440,N,0,0,0
4:05.714,88457,),0,0,1
4:05.719,88459,(,0,0,2
4:05.814,88493,t,0,0,5
4:06.269,88657,t,0,0,5
4:06.372,88694,),0,0,2
4:06.744,88828,(,0,0,0
4:06.831,88859,p,0,0,0
4:06.906,88886,),0,0,0
4:07.014,88925,(,0,0,1
4:07.094,88954,N,0,0,0
4:07.175,88983,),0,0,1
4:07.264,89015,(,0,0,2
4:07.356,89048,t,0,0,0
4:07.522,89108,),0,0,2
4:08.000,89280,(,0,0,0
4:08.089,89312,p,0,0,0
4:08.172,89342,),0,0,0
4:08.183,89346,(,0,0,1
4:08.342,89403,N,0,0,0
4:08.417,89430,),0,0,1
4:08.444,89440,(,0,0,2
4:08.508,89463,t,0,0,5
4:09.075,89667,t,0,0,5
4:09.128,89686,),0,0,2
4:09.689,89888,(,0,0,0
4:09.703,89893,p,0,0,0
4:09.736,89905,),0,0,0
4:09.747,89909,(,0,0,1
4:09.900,89964,N,0,0,0
4:09.942,89979,),0,0,1
4:10.056,90020,(,0,0,2
4:10.347,90125,t,0,0,1
4:10.614,90221,),0,0,2
4:10.800,90288,(,0,0,0
4:10.842,90303,p,0,0,0
4:10.889,90320,),0,0,0
4:10.944,90340,(,0,0,1
4:10.981,90353,N,0,0,0
4:11.122,90404,),0,0,1
4:11.147,90413,(,0,0,2
4:11.461,90526,t,0,0,1
4:11.719,90619,),0,0,2
4:11.908,90687,(,0,0,0
4:11.933,90696,p,0,0,0
4:11.997,90719,),0,0,0
4:12.033,90732,(,0,0,1
4:12.097,90755,N,0,0,0
4:12.178,90784,),0,0,1
4:12.225,90801,t,0,0,3
4:12.333,90840,),0,0,2
4:12.486,90895,(,0,0,1
4:12.531,90911,N,0,0,0
4:12.644,90952,),0,0,1
4:12.736,90985,(,0,0,2
4:12.800,91008,t,0,0,0
4:12.933,91056,),0,0,2
4:14.003,91441,(,0,0,0
4:14.019,91447,p,0,0,0
4:14.053,91459,),0,0,0
4:14.064,91463,(,0,0,1
4:14.217,91518,N,0,0,0
4:14.400,91584,),0,0,1
4:14.942,91779,(,0,0,2
4:14.986,91795,t,0,0,0
4:15.011,91804,),0,0,2
4:15.144,91852,(,0,0,0
4:15.161,91858,p,0,0,0
4:15.197,91871,),0,0,0
4:15.208,91875,(,0,0,1
4:15.364,91931,N,0,0,0
4:15.481,91973,),0,0,1
4:15.533,91992,(,0,0,2
4:15.808,92091,t,0,0,1
4:16.089,92192,),0,0,2
4:16.244,92248,(,0,0,0
4:16.264,92255,p,0,0,0
4:16.300,92268,),0,0,0
4:16.308,92271,(,0,0,1
4:16.469,92329,N,0,0,0
4:16.492,92337,),0,0,1
4:16.619,92383,(,0,0,2
4:16.931,92495,t,0,0,1
4:17.169,92581,),0,0,2
4:17.325,92637,(,0,0,0
4:17.342,92643,p,0,0,0
4:17.378,92656,),0,0,0
4:17.389,92660,(,0,0,1
4:17.547,92717,N,0,0,0
4:17.689,92768,),0,0,1
4:17.697,92771,(,0,0,2
4:17.833,92820,t,0,0,1
4:17.900,92844,),0,0,2
4:18.156,92936,(,0,0,1
4:18.197,92951,N,0,0,0
4:18.317,92994,),0,0,1
4:18.375,93015,(,0,0,2
4:18.472,93050,t,0,0,0
4:18.819,93175,),0,0,2
4:19.464,93407,(,0,0,0
4:19.483,93414,p,0,0,0
4:19.517,93426,),0,0,0
4:19.528,93430,(,0,0,1
4:19.689,93488,N,0,0,0
4:19.794,93526,),0,0,1
4:19.861,93550,(,0,0,2
4:20.142,93651,t,0,0,1
4:20.447,93761,),0,0,2
4:20.603,93817,(,0,0,0
4:20.625,93825,p,0,0,0
4:20.661,93838,),0,0,0
4:20.672,93842,(,0,0,1
4:20.831,93899,N,0,0,0
4:20.972,93950,),0,0,1
4:21.008,93963,(,0,0,2
4:21.311,94072,t,0,0,1
4:21.600,94176,),0,0,2
4:21.769,94237,(,0,0,0
4:21.786,94243,p,0,0,0
4:21.822,94256,),0,0,0
4:21.833,94260,(,0,0,1
4:21.992,94317,N,0,0,0
4:22.128,94366,),0,0,1
4:22.647,94553,(,0,0,2
4:22.700,94572,t,0,0,0
4:22.725,94581,),0,0,2
4:22.881,94637,(,0,0,0
4:22.908,94647,p,0,0,0
4:22.967,94668,),0,0,0
4:23.000,94680,(,0,0,1
4:23.061,94702,N,0,0,0
4:23.200,94752,),0,0,1
4:23.203,94753,t,0,0,3
4:23.317,94794,),0,0,2
4:23.458,94845,(,0,0,1
4:23.497,94859,N,0,0,0
4:23.619,94903,),0,0,1
4:23.714,94937,(,0,0,2
4:23.797,94967,t,0,0,0
4:23.969,95029,),0,0,2
4:24.828,95338,(,0,0,0
4:24.864,95351,p,0,0,0
4:24.933,95376,),0,0,0
4:25.047,95417,(,0,0,1
4:25.178,95464,N,0,0,0
4:25.225,95481,),0,0,1
4:25.389,95540,(,0,0,2
4:25.681,95645,t,0,0,1
4:25.956,95744,),0,0,2
4:26.114,95801,(,0,0,0
4:26.133,95808,p,0,0,0
4:26.167,95820,),0,0,0
4:26.172,95822,(,0,0,1
4:26.306,95870,N,0,0,0
4:26.439,95918,),0,0,1
4:26.503,95941,(,0,0,2
4:26.806,96050,t,0,0,1
4:27.094,96154,),0,0,2
4:27.250,96210,(,0,0,0
4:27.272,96218,p,0,0,0
4:27.306,96230,),0,0,0
4:27.317,96234,(,0,0,1
4:27.469,96289,N,0,0,0
4:27.533,96312,),0,0,1
4:27.633,96348,(,0,0,2
4:27.944,96460,t,0,0,1
4:28.200,96552,),0,0,2
4:28.350,96606,(,0,0,0
4:28.372,96614,p,0,0,0
4:28.403,96625,),0,0,0
4:28.408,96627,(,0,0,1
4:28.564,96683,N,0,0,0
4:28.706,96734,),0,0,1
4:28.731,96743,(,0,0,2
4:29.031,96851,t,0,0,1
4:29.267,96936,),0,0,2
4:29.447,97001,(,0,0,0
4:29.475,97011,p,0,0,0
4:29.536,97033,),0,0,0
4:29.589,97052,(,0,0,1
4:29.639,97070,N,0,0,0
4:29.778,97120,),0,0,1
4:29.789,97124,(,0,0,2
4:30.103,97237,t,0,0,1
4:30.350,97326,),0,0,2
4:30.508,97383,(,0,0,0
4:30.528,97390,p,0,0,0
4:30.564,97403,),0,0,0
4:30.567,97404,(,0,0,1
4:30.719,97459,N,0,0,0
4:30.739,97466,),0,0,1
4:30.778,97480,(,0,0,2
4:30.842,97503,t,0,0,5
4:31.314,97673,t,0,0,5
4:31.406,97706,),0,0,2
4:31.542,97755,(,0,0,0
4:31.564,97763,p,0,0,0
4:31.600,97776,),0,0,0
4:31.608,97779,(,0,0,1
4:31.769,97837,N,0,0,0
4:31.919,97891,),0,0,1
4:31.931,97895,(,0,0,2
4:32.258,98013,t,0,0,1
4:32.514,98105,),0,0,2
4:32.683,98166,(,0,0,0
4:32.700,98172,p,0,0,0
4:32.733,98184,),0,0,0
4:32.747,98189,(,0,0,1
4:32.906,98246,N,0,0,0
4:32.939,98258,),0,0,1
4:32.989,98276,(,0,0,2
4:33.044,98296,t,0,0,5
4:33.572,98486,t,0,0,5
4:33.647,98513,),0,0,2
4:33.803,98569,(,0,0,0
4:33.819,98575,p,0,0,0
4:33.853,98587,),0,0,0
4:33.861,98590,(,0,0,1
4:34.011,98644,N,0,0,0
4:34.053,98659,),0,0,1
4:34.153,98695,(,0,0,2
4:34.486,98815,t,0,0,1
4:34.725,98901,),0,0,2
4:34.889,98960,(,0,0,0
4:34.903,98965,p,0,0,0
4:34.936,98977,),0,0,0
4:34.950,98982,(,0,0,1
4:35.108,99039,N,0,0,0
4:35.244,99088,),0,0,1
4:35.247,99089,t,0,0,3
4:35.344,99124,),0,0,2
4:35.975,99351,(,0,0,0
4:36.003,99361,p,0,0,0
4:36.064,99383,),0,0,0
4:36.175,99423,(,0,0,1
4:36.303,99469,N,0,0,0
4:36.389,99500,),0,0,1
4:37.014,99725,(,0,0,2
4:37.047,99737,t,0,0,1
4:37.119,99763,),0,0,2
4:37.742,99987,(,0,0,0
4:37.806   100010,p,0,0,0
4:37.883   100038,),0,0,0
4:37.917   100050,(,0,0,1
4:38.081   100109,N,0,0,0
4:38.189   100148,),0,0,1
4:38.206   100154,t,0,0,2
4:38.272   100178,),0,0,2
4:38.361   100210,(,0,0,1
4:38.481   100253,N,0,0,0
4:38.667   100320,),0,0,1
4:38.781   100361,(,0,0,2
4:38.856   100388,t,0,0,1
4:38.861   100390,),0,0,2
4:39.039   100454,(,0,0,0
4:39.081   100469,p,0,0,0
4:39.108   100479,),0,0,0
4:39.144   100492,(,0,0,1
4:39.247   100529,N,0,0,0
4:39.247   100529,),0,0,1
4:39.250   100530,(,0,0,2
4:39.547   100637,t,0,0,0
4:39.642   100671,),0,0,2
4:47.786   103603,(,0,0,0
4:47.814   103613,p,0,0,0
4:47.867   103632,),0,0,0
4:47.911   103648,(,0,0,1
4:47.978   103672,N,0,0,0
4:47.978   103672,),0,0,1
4:47.983   103674,(,0,0,2
4:48.217   103758,t,0,0,0
4:48.372   103814,),0,0,2
4:52.772   105398,(,0,0,0
4:52.856   105428,p,0,0,0
4:52.922   105452,),0,0,0
4:53.039   105494,(,0,0,1
4:53.103   105517,N,0,0,0
4:53.142   105531,),0,0,1
4:53.292   105585,(,0,0,2
4:53.375   105615,t,0,0,0
4:53.553   105679,),0,0,2
4:54.419   105991,(,0,0,0
4:54.456   106004,p,0,0,0
4:54.539   106034,),0,0,0
4:54.575   106047,(,0,0,1
4:54.644   106072,N,0,0,0
4:54.678   106084,),0,0,1
4:54.778   106120,(,0,0,2
4:54.936   106177,t,0,0,0
4:55.031   106211,),0,0,2
4:58.297   107387,(,0,0,0
4:58.417   107430,p,0,0,0
4:58.447   107441,),0,0,0
4:58.564   107483,(,0,0,1
4:58.631   107507,N,0,0,0
4:58.631   107507,),0,0,1
4:58.633   107508,(,0,0,2
4:58.903   107605,t,0,0,0
4:59.044   107656,),0,0,2
5:03.650   109314,(,0,0,0
5:03.706   109334,p,0,0,0
5:03.783   109362,),0,0,0
5:03.850   109386,(,0,0,1
5:03.908   109407,N,0,0,0
5:03.961   109426,),0,0,1
5:04.072   109466,(,0,0,2
5:04.161   109498,t,0,0,0
5:04.306   109550,),0,0,2
5:39.056   122060,(,0,0,1
5:39.158   122097,N,0,0,0
5:39.161   122098,),0,0,1
5:39.528   122230,(,0,0,2
5:39.583   122250,t,0,0,1
5:39.653   122275,),0,0,2
6:03.544   130876,(,0,0,0
6:03.644   130912,p,0,0,0
6:03.661   130918,),0,0,0
6:03.861   130990,(,0,0,1
6:03.933   131016,N,0,0,0
6:03.936   131017,),0,0,1
6:03.942   131019,(,0,0,2
6:04.172   131102,t,0,0,0
6:04.383   131178,),0,0,2
6:12.056   133940,(,0,0,1
6:12.122   133964,N,0,0,0
6:12.122   133964,),0,0,1
6:12.125   133965,(,0,0,2
6:12.375   134055,t,0,0,0
6:12.533   134112,),0,0,2
6:30.506   140582,(,0,0,1
6:30.578   140608,N,0,0,0
6:30.578   140608,),0,0,1
6:30.581   140609,(,0,0,2
6:30.844   140704,t,0,0,0
6:30.989   140756,),0,0,2
6:43.908   145407,(,0,0,0
6:43.992   145437,p,0,0,0
6:44.075   145467,),0,0,0
6:44.264   145535,(,0,0,1
6:44.331   145559,N,0,0,0
6:44.331   145559,),0,0,1
6:44.333   145560,(,0,0,2
6:44.597   145655,t,0,0,0
6:44.778   145720,),0,0,2
6:49.717   147498,(,0,0,1
6:49.786   147523,N,0,0,0
6:49.828   147538,),0,0,1
6:49.956   147584,(,0,0,2
6:50.064   147623,t,0,0,0
6:50.328   147718,),0,0,2
6:55.117   149442,(,0,0,0
6:55.192   149469,p,0,0,0
6:55.278   149500,),0,0,0
6:55.308   149511,(,0,0,1
6:55.381   149537,N,0,0,0
6:55.381   149537,),0,0,1
6:55.383   149538,(,0,0,2
6:55.647   149633,t,0,0,0
6:55.836   149701,),0,0,2
7:01.942   151899,(,0,0,0
7:01.961   151906,p,0,0,0
7:01.994   151918,),0,0,0
7:02.075   151947,(,0,0,1
7:02.128   151966,N,0,0,0
7:02.153   151975,),0,0,1
7:02.375   152055,(,0,0,2
7:02.450   152082,t,0,0,0
7:02.556   152120,),0,0,2
7:10.269   154897,(,0,0,0
7:10.333   154920,p,0,0,0
7:10.442   154959,),0,0,0
7:10.458   154965,(,0,0,1
7:10.553   154999,N,0,0,0
7:10.594   155014,),0,0,1
7:10.600   155016,(,0,0,2
7:10.856   155108,t,0,0,0
7:11.136   155209,),0,0,2
7:24.742   160107,(,0,0,0
7:24.842   160143,p,0,0,0
7:24.908   160167,),0,0,0
7:25.089   160232,(,0,0,1
7:25.158   160257,N,0,0,0
7:25.200   160272,),0,0,1
7:25.339   160322,(,0,0,2
7:25.428   160354,t,0,0,0
7:25.600   160416,),0,0,2
7:36.331   164279,(,0,0,0
7:36.361   164290,p,0,0,0
7:36.394   164302,),0,0,0
7:36.456   164324,(,0,0,1
7:36.519   164347,N,0,0,0
7:36.556   164360,),0,0,1
7:36.661   164398,(,0,0,2
7:36.753   164431,t,0,0,0
7:36.917   164490,),0,0,2
7:48.994   168838,(,0,0,0
7:49.033   168852,p,0,0,0
7:49.064   168863,),0,0,0
7:49.147   168893,(,0,0,1
7:49.217   168918,N,0,0,0
7:49.278   168940,),0,0,1
7:49.394   168982,(,0,0,2
7:49.486   169015,t,0,0,0
7:49.628   169066,),0,0,2
7:55.367   171132,(,0,0,0
7:55.464   171167,p,0,0,0
7:55.508   171183,),0,0,0
7:55.542   171195,(,0,0,1
7:55.611   171220,N,0,0,0
7:55.614   171221,),0,0,1
7:55.619   171223,(,0,0,2
7:55.797   171287,t,0,0,0
7:56.064   171383,),0,0,2
8:11.472   176930,(,0,0,0
8:11.539   176954,p,0,0,0
8:11.619   176983,),0,0,0
8:11.811   177052,(,0,0,1
8:11.875   177075,N,0,0,0
8:11.875   177075,),0,0,1
8:11.878   177076,(,0,0,2
8:12.139   177170,t,0,0,0
8:12.347   177245,),0,0,2
8:17.072   178946,(,0,0,0
8:17.136   178969,p,0,0,0
8:17.239   179006,),0,0,0
8:17.417   179070,(,0,0,1
8:17.486   179095,N,0,0,0
8:17.525   179109,),0,0,1
8:17.656   179156,(,0,0,2
8:17.736   179185,t,0,0,0
8:17.908   179247,),0,0,2
8:29.317   183354,(,0,0,0
8:29.331   183359,p,0,0,0
8:29.403   183385,),0,0,0
8:29.556   183440,(,0,0,1
8:29.625   183465,N,0,0,0
8:29.625   183465,),0,0,1
8:29.628   183466,(,0,0,2
8:29.875   183555,t,0,0,0
8:30.150   183654,),0,0,2
8:34.728   185302,(,0,0,1
8:34.792   185325,N,0,0,0
8:34.836   185341,),0,0,1
8:34.933   185376,(,0,0,2
8:35.031   185411,t,0,0,0
8:35.347   185525,),0,0,2
8:36.686   186007,(,0,0,1
8:36.739   186026,N,0,0,0
8:36.739   186026,),0,0,1
8:36.894   186082,(,0,0,2
8:36.983   186114,t,0,0,0
8:37.161   186178,),0,0,2
9:11.869   198673,(,0,0,1
9:11.989   198716,N,0,0,0
9:12.069   198745,),0,0,1
9:12.717   198978,),0,0,2
9:12.722   198980,t,0,0,1
9:12.728   198982,(,0,0,2
9:12.919   199051,(,0,0,1
9:13.036   199093,N,0,0,0
9:13.131   199127,),0,0,1
9:13.806   199370,),0,0,2
9:13.811   199372,t,0,0,1
9:13.817   199374,(,0,0,2
9:14.039   199454,(,0,0,1
9:14.158   199497,N,0,0,0
9:14.233   199524,),0,0,1
9:15.164   199859,(,0,0,1
9:15.325   199917,N,0,0,0
9:15.383   199938,),0,0,1
9:15.994   200158,(,0,0,2
9:16.022   200168,t,0,0,0
9:16.067   200184,),0,0,2
9:18.400   201024,(,0,0,1
9:18.544   201076,N,0,0,0
9:18.725   201141,),0,0,1
9:19.247   201329,(,0,0,2
9:19.278   201340,t,0,0,1
9:19.297   201347,),0,0,2
9:19.444   201400,(,0,0,1
9:19.594   201454,N,0,0,0
9:19.681   201485,),0,0,1
9:20.156   201656,(,0,0,2
9:20.233   201684,t,0,0,0
9:20.306   201710,),0,0,2
9:20.642   201831,(,0,0,1
9:20.731   201863,N,0,0,0
9:20.794   201886,),0,0,1
9:21.492   202137,(,0,0,2
9:21.522   202148,t,0,0,1
9:21.544   202156,),0,0,2
9:21.725   202221,(,0,0,1
9:21.842   202263,N,0,0,0
9:21.897   202283,),0,0,1
9:22.339   202442,(,0,0,2
9:22.386   202459,t,0,0,0
9:22.425   202473,),0,0,2
9:22.722   202580,(,0,0,1
9:22.900   202644,N,0,0,0
9:23.067   202704,),0,0,1
9:23.578   202888,(,0,0,2
9:23.606   202898,t,0,0,5
9:23.642   202911,t,0,0,5
9:23.661   202918,),0,0,2
9:24.386   203179,(,0,0,1
9:24.497   203219,N,0,0,0
9:24.600   203256,),0,0,1
9:24.658   203277,(,0,0,2
9:24.919   203371,t,0,0,1
9:25.103   203437,),0,0,2
9:27.092   204153,(,0,0,1
9:27.222   204200,N,0,0,0
9:27.369   204253,),0,0,1
9:27.942   204459,(,0,0,2
9:27.964   204467,t,0,0,0
9:27.983   204474,),0,0,2
9:28.172   204542,(,0,0,1
9:28.292   204585,N,0,0,0
9:28.347   204605,),0,0,1
9:28.472   204650,(,0,0,2
9:28.519   204667,t,0,0,0
9:28.653   204715,),0,0,2
9:29.017   204846,(,0,0,1
9:29.100   204876,N,0,0,0
9:29.100   204876,),0,0,1
9:29.236   204925,t,0,0,2
9:29.353   204967,),0,0,2
9:29.494   205018,(,0,0,1
9:29.547   205037,N,0,0,0
9:29.589   205052,),0,0,1
9:29.686   205087,(,0,0,2
9:29.811   205132,t,0,0,0
9:30.083   205230,),0,0,2
9:31.078   205588,(,0,0,1
9:31.106   205598,N,0,0,0
9:31.128   205606,),0,0,1
9:31.392   205701,(,0,0,2
9:31.528   205750,t,0,0,0
9:31.708   205815,),0,0,2
9:41.356   209288,(,0,0,1
9:41.392   209301,N,0,0,0
9:41.425   209313,),0,0,1
9:41.428   209314,(,0,0,2
9:41.686   209407,t,0,0,5
9:42.056   209540,t,0,0,5
9:42.158   209577,),0,0,2
   10:00.000   216000,(,0,0,1
   10:00.081   216029,N,0,0,0
   10:00.081   216029,),0,0,1
   10:00.264   216095,(,0,0,2
   10:00.342   216123,t,0,0,5
   10:00.731   216263,t,0,0,5
   10:00.772   216278,),0,0,2
   10:18.731   222743,(,0,0,1
   10:18.767   222756,N,0,0,0
   10:18.797   222767,),0,0,1
   10:18.978   222832,(,0,0,2
   10:19.053   222859,t,0,0,5
   10:19.439   222998,t,0,0,5
   10:19.500   223020,),0,0,2
   10:24.372   224774,(,0,0,1
   10:24.453   224803,N,0,0,0
   10:24.456   224804,),0,0,1
   10:24.642   224871,(,0,0,2
   10:24.694   224890,t,0,0,5
   10:25.008   225003,t,0,0,5
   10:25.083   225030,),0,0,2
   10:27.189   225788,(,0,0,1
   10:27.269   225817,N,0,0,0
   10:27.272   225818,),0,0,1
   10:27.419   225871,(,0,0,2
   10:27.531   225911,t,0,0,5
   10:27.856   226028,t,0,0,5
   10:27.939   226058,),0,0,2
   10:29.822   226736,(,0,0,1
   10:29.903   226765,N,0,0,0
   10:29.906   226766,),0,0,1
   10:30.075   226827,(,0,0,2
   10:30.164   226859,t,0,0,5
   10:30.517   226986,t,0,0,5
   10:30.628   227026,),0,0,2
   10:32.658   227757,(,0,0,1
   10:32.692   227769,N,0,0,0
   10:32.714   227777,),0,0,1
   10:32.900   227844,(,0,0,2
   10:32.975   227871,t,0,0,0
   10:33.075   227907,),0,0,2
   10:33.614   228101,(,0,0,1
   10:33.631   228107,N,0,0,0
   10:33.653   228115,),0,0,1
   10:33.836   228181,(,0,0,2
   10:33.892   228201,t,0,0,0
   10:33.983   228234,),0,0,2
   10:34.492   228417,(,0,0,1
   10:34.511   228424,N,0,0,0
   10:34.533   228432,),0,0,1
   10:34.708   228495,(,0,0,2
   10:34.789   228524,t,0,0,0
   10:34.878   228556,),0,0,2
   10:35.381   228737,(,0,0,1
   10:35.431   228755,N,0,0,0
   10:35.431   228755,),0,0,1
   10:35.575   228807,(,0,0,2
   10:35.692   228849,t,0,0,5
   10:36.047   228977,t,0,0,5
   10:36.097   228995,),0,0,2
   10:37.128   229366,(,0,0,1
   10:37.214   229397,N,0,0,0
   10:37.214   229397,),0,0,1
   10:37.403   229465,(,0,0,2
   10:37.478   229492,t,0,0,5
   10:37.825   229617,t,0,0,5
   10:37.900   229644,),0,0,2
   10:40.867   230712,(,0,0,1
   10:40.950   230742,N,0,0,0
   10:40.950   230742,),0,0,1
   10:41.106   230798,(,0,0,2
   10:41.206   230834,t,0,0,5
   10:41.561   230962,t,0,0,5
   10:41.622   230984,),0,0,2
   10:57.053   236539,(,0,0,1
   10:57.067   236544,N,0,0,0
   10:57.089   236552,),0,0,1
   10:57.289   236624,(,0,0,2
   10:57.364   236651,t,0,0,0
   10:57.458   236685,),0,0,2
   10:58.061   236902,(,0,0,1
   10:58.092   236913,N,0,0,0
   10:58.114   236921,),0,0,1
   10:58.278   236980,(,0,0,2
   10:58.375   237015,t,0,0,0
   10:58.467   237048,),0,0,2
   11:03.017   238686,(,0,0,1
   11:03.078   238708,N,0,0,0
   11:03.097   238715,),0,0,1
   11:03.283   238782,(,0,0,2
   11:03.364   238811,t,0,0,0
   11:03.475   238851,),0,0,2
   11:04.025   239049,(,0,0,1
   11:04.111   239080,N,0,0,0
   11:04.114   239081,),0,0,1
   11:04.294   239146,(,0,0,2
   11:04.375   239175,t,0,0,0
   11:04.472   239210,),0,0,2
   11:05.033   239412,(,0,0,1
   11:05.083   239430,N,0,0,0
   11:05.106   239438,),0,0,1
   11:05.228   239482,(,0,0,2
   11:05.353   239527,t,0,0,5
   11:05.461   239566,t,0,0,5
   11:05.492   239577,),0,0,2
   11:05.967   239748,(,0,0,1
   11:06.036   239773,N,0,0,0
   11:06.142   239811,),0,0,1
   11:06.208   239835,(,0,0,2
   11:06.331   239879,t,0,0,0
   11:06.400   239904,),0,0,2
   11:06.917   240090,(,0,0,1
   11:06.997   240119,N,0,0,0
   11:07.081   240149,),0,0,1
   11:07.194   240190,(,0,0,2
   11:07.247   240209,t,0,0,5
   11:07.406   240266,t,0,0,5
   11:07.422   240272,),0,0,2
   11:07.944   240460,(,0,0,1
   11:08.008   240483,N,0,0,0
   11:08.028   240490,),0,0,1
   11:08.211   240556,(,0,0,2
   11:08.297   240587,t,0,0,0
   11:08.386   240619,),0,0,2
   11:08.956   240824,(,0,0,1
   11:09.019   240847,N,0,0,0
   11:09.039   240854,),0,0,1
   11:09.225   240921,(,0,0,2
   11:09.300   240948,t,0,0,5
   11:09.719   241099,t,0,0,5
   11:09.772   241118,),0,0,2
   11:10.908   241527,(,0,0,1
   11:10.969   241549,N,0,0,0
   11:10.989   241556,),0,0,1
   11:11.153   241615,(,0,0,2
   11:11.239   241646,t,0,0,0
   11:11.328   241678,),0,0,2
   11:11.872   241874,(,0,0,1
   11:11.903   241885,N,0,0,0
   11:11.922   241892,),0,0,1
   11:12.086   241951,(,0,0,2
   11:12.178   241984,t,0,0,0
   11:12.267   242016,),0,0,2
   11:12.783   242202,(,0,0,1
   11:12.814   242213,N,0,0,0
   11:12.836   242221,),0,0,1
   11:13.019   242287,(,0,0,2
   11:13.106   242318,t,0,0,0
   11:13.192   242349,),0,0,2
   11:13.794   242566,(,0,0,1
   11:13.864   242591,N,0,0,0
   11:13.883   242598,),0,0,1
   11:14.083   242670,(,0,0,2
   11:14.158   242697,t,0,0,0
   11:14.261   242734,),0,0,2
   11:14.803   242929,(,0,0,1
   11:14.886   242959,N,0,0,0
   11:14.886   242959,),0,0,1
   11:15.050   243018,(,0,0,2
   11:15.144   243052,t,0,0,0
   11:15.253   243091,),0,0,2
   11:15.800   243288,(,0,0,1
   11:15.861   243310,N,0,0,0
   11:15.878   243316,),0,0,1
   11:16.058   243381,(,0,0,2
   11:16.131   243407,t,0,0,5
   11:16.519   243547,t,0,0,5
   11:16.631   243587,),0,0,2
   11:17.758   243993,(,0,0,1
   11:17.817   244014,N,0,0,0
   11:17.836   244021,),0,0,1
   11:18.000   244080,(,0,0,2
   11:18.086   244111,t,0,0,5
   11:18.489   244256,t,0,0,5
   11:18.581   244289,),0,0,2
   11:19.753   244711,(,0,0,1
   11:19.789   244724,N,0,0,0
   11:19.811   244732,),0,0,1
   11:19.983   244794,(,0,0,2
   11:20.103   244837,t,0,0,0
   11:20.225   244881,),0,0,2
   11:20.794   245086,(,0,0,1
   11:20.861   245110,N,0,0,0
   11:20.883   245118,),0,0,1
   11:21.075   245187,(,0,0,2
   11:21.144   245212,t,0,0,0
   11:21.269   245257,),0,0,2
   11:21.814   245453,(,0,0,1
   11:21.872   245474,N,0,0,0
   11:21.892   245481,),0,0,1
   11:22.067   245544,(,0,0,2
   11:22.150   245574,t,0,0,0
   11:22.244   245608,),0,0,2
   11:22.856   245828,(,0,0,1
   11:22.911   245848,N,0,0,0
   11:22.931   245855,),0,0,1
   11:23.125   245925,(,0,0,2
   11:23.192   245949,t,0,0,0
   11:23.294   245986,),0,0,2
   11:23.839   246182,(,0,0,1
   11:23.900   246204,N,0,0,0
   11:23.919   246211,),0,0,1
   11:24.100   246276,(,0,0,2
   11:24.172   246302,t,0,0,5
   11:24.608   246459,t,0,0,5
   11:24.675   246483,),0,0,2
   11:25.925   246933,(,0,0,1
   11:25.947   246941,N,0,0,0
   11:25.972   246950,),0,0,1
   11:26.164   247019,(,0,0,2
   11:26.261   247054,t,0,0,0
   11:26.350   247086,),0,0,2
   11:26.964   247307,(,0,0,1
   11:27.025   247329,N,0,0,0
   11:27.044   247336,),0,0,1
   11:27.231   247403,(,0,0,2
   11:27.306   247430,t,0,0,0
   11:27.417   247470,),0,0,2
   11:27.958   247665,(,0,0,1
   11:28.022   247688,N,0,0,0
   11:28.042   247695,),0,0,1
   11:28.222   247760,(,0,0,2
   11:28.317   247794,t,0,0,0
   11:28.439   247838,),0,0,2
   11:40.383   252138,(,0,0,1
   11:40.425   252153,N,0,0,0
   11:40.456   252164,),0,0,1
   11:40.578   252208,(,0,0,2
   11:40.703   252253,t,0,0,5
   11:40.928   252334,t,0,0,5
   11:40.997   252359,),0,0,2
   11:41.339   252482,(,0,0,1
   11:41.406   252506,N,0,0,0
   11:41.436   252517,),0,0,1
   11:41.608   252579,(,0,0,2
   11:41.911   252688,t,0,0,0
   11:42.189   252788,),0,0,2
   11:42.569   252925,(,0,0,1
   11:42.628   252946,N,0,0,0
   11:42.675   252963,),0,0,1
   11:42.742   252987,(,0,0,2
   11:42.825   253017,t,0,0,0
   11:42.958   253065,),0,0,2
   12:12.175   263583,(,0,0,1
   12:12.239   263606,N,0,0,0
   12:12.239   263606,),0,0,1
   12:12.242   263607,(,0,0,2
   12:12.494   263698,t,0,0,0
   12:12.636   263749,),0,0,2
   12:17.697   265571,(,0,0,1
   12:17.764   265595,N,0,0,0
   12:17.764   265595,),0,0,1
   12:17.908   265647,(,0,0,2
   12:18.017   265686,t,0,0,0
   12:18.133   265728,),0,0,2
   12:25.839   268502,(,0,0,1
   12:25.908   268527,N,0,0,0
   12:25.908   268527,),0,0,1
   12:25.911   268528,(,0,0,2
   12:26.169   268621,t,0,0,0
   12:26.322   268676,),0,0,2
   12:33.125   271125,(,0,0,1
   12:33.189   271148,N,0,0,0
   12:33.231   271163,),0,0,1
   12:33.347   271205,(,0,0,2
   12:33.453   271243,t,0,0,0
   12:33.636   271309,),0,0,2
   12:50.733   277464,(,0,0,1
   12:50.783   277482,N,0,0,0
   12:50.808   277491,),0,0,1
   12:50.994   277558,(,0,0,2
   12:51.069   277585,t,0,0,5
   12:51.431   277715,t,0,0,5
   12:51.500   277740,),0,0,2
   13:02.136   281569,(,0,0,1
   13:02.200   281592,N,0,0,0
   13:02.225   281601,),0,0,1
   13:02.436   281677,(,0,0,2
   13:02.503   281701,t,0,0,0
   13:02.581   281729,),0,0,2
   13:03.142   281931,(,0,0,1
   13:03.197   281951,N,0,0,0
   13:03.222   281960,),0,0,1
   13:03.411   282028,(,0,0,2
   13:03.486   282055,t,0,0,0
   13:03.575   282087,),0,0,2
   13:04.075   282267,(,0,0,1
   13:04.136   282289,N,0,0,0
   13:04.161   282298,),0,0,1
   13:04.358   282369,(,0,0,2
   13:04.433   282396,t,0,0,5
   13:04.811   282532,t,0,0,5
   13:04.881   282557,),0,0,2
   13:47.600   297936,(,0,0,1
   13:47.608   297939,N,0,0,0
   13:47.628   297946,),0,0,1
   13:47.803   298009,(,0,0,2
   13:47.892   298041,t,0,0,5
   13:48.336   298201,t,0,0,5
   13:48.392   298221,),0,0,2
   13:57.544   301516,(,0,0,1
   13:57.611   301540,N,0,0,0
   13:57.611   301540,),0,0,1
   13:57.614   301541,(,0,0,2
   13:57.856   301628,t,0,0,0
   13:57.981   301673,),0,0,2
   14:07.567   305124,(,0,0,1
   14:07.633   305148,N,0,0,0
   14:07.633   305148,),0,0,1
   14:07.639   305150,(,0,0,2
   14:07.911   305248,t,0,0,0
   14:08.053   305299,),0,0,2
   14:18.839   309182,(,0,0,0
   14:18.908   309207,p,0,0,0
   14:18.994   309238,),0,0,0
   14:19.022   309248,(,0,0,1
   14:19.033   309252,N,0,0,0
   14:19.053   309259,),0,0,1
   14:19.244   309328,(,0,0,2
   14:19.336   309361,t,0,0,5
   14:19.750   309510,t,0,0,5
   14:19.800   309528,),0,0,2
   15:40.153   338455,(,0,0,1
   15:40.214   338477,N,0,0,0
   15:40.236   338485,),0,0,1
   15:40.433   338556,(,0,0,2
   15:40.506   338582,t,0,0,0
   15:40.589   338612,),0,0,2
   15:46.906   340886,(,0,0,1
   15:46.978   340912,N,0,0,0
   15:47.000   340920,),0,0,1
   15:47.194   340990,(,0,0,2
   15:47.267   341016,t,0,0,0
   15:47.344   341044,),0,0,2
   15:47.753   341191,(,0,0,0
   15:47.814   341213,p,0,0,0
   15:47.894   341242,),0,0,0
   15:47.900   341244,(,0,0,1
   15:47.908   341247,N,0,0,0
   15:47.933   341256,),0,0,1
   15:48.133   341328,(,0,0,2
   15:48.197   341351,t,0,0,0
   15:48.272   341378,),0,0,2
   15:48.656   341516,(,0,0,0
   15:48.697   341531,p,0,0,0
   15:48.781   341561,),0,0,0
   15:48.786   341563,(,0,0,1
   15:48.792   341565,N,0,0,0
   15:48.817   341574,),0,0,1
   15:49.008   341643,(,0,0,2
   15:49.075   341667,t,0,0,0
   15:49.178   341704,),0,0,2
   15:53.500   343260,(,0,0,1
   15:53.567   343284,N,0,0,0
   15:53.592   343293,),0,0,1
   15:53.775   343359,(,0,0,2
   15:53.847   343385,t,0,0,0
   15:53.922   343412,),0,0,2
   15:54.467   343608,(,0,0,1
   15:54.522   343628,N,0,0,0
   15:54.544   343636,),0,0,1
   15:54.686   343687,(,0,0,2
   15:54.764   343715,t,0,0,0
   15:54.844   343744,),0,0,2
   16:08.011   348484,(,0,0,1
   16:08.069   348505,N,0,0,0
   16:08.092   348513,),0,0,1
   16:08.283   348582,(,0,0,2
   16:08.375   348615,t,0,0,5
   16:08.819   348775,t,0,0,5
   16:08.869   348793,),0,0,2
   16:23.811   354172,(,0,0,0
   16:23.858   354189,p,0,0,0
   16:23.914   354209,),0,0,0
   16:24.003   354241,(,0,0,1
   16:24.072   354266,N,0,0,0
   16:24.125   354285,),0,0,1
   16:24.219   354319,(,0,0,2
   16:24.292   354345,t,0,0,4
   16:24.408   354387,t,0,0,4
   16:24.600   354456,),0,0,2
   18:23.150   397134,(,0,0,1
   18:23.314   397193,N,0,0,0
   18:23.458   397245,),0,0,1
   18:23.617   397302,(,0,0,2
   18:23.686   397327,t,0,0,0
   18:23.775   397359,),0,0,2
   18:24.292   397545,(,0,0,1
   18:24.369   397573,N,0,0,0
   18:24.592   397653,),0,0,1
   18:25.175   397863,(,0,0,2
   18:25.200   397872,t,0,0,0
   18:25.233   397884,),0,0,2
   18:25.261   397894,(,0,0,0
   18:25.269   397897,p,0,0,0
   18:25.297   397907,),0,0,0
   18:25.456   397964,(,0,0,1
   18:25.533   397992,N,0,0,0
   18:25.692   398049,),0,0,1
   18:25.911   398128,(,0,0,1
   18:26.122   398204,N,0,0,0
   18:26.225   398241,),0,0,1
   18:26.244   398248,t,0,0,2
   18:26.292   398265,),0,0,2
   18:26.431   398315,(,0,0,1
   18:26.525   398349,N,0,0,0
   18:26.706   398414,),0,0,1
   18:26.753   398431,t,0,0,3
   18:26.808   398451,),0,0,2
   18:26.944   398500,(,0,0,1
   18:27.125   398565,N,0,0,0
   18:27.250   398610,),0,0,1
   18:27.253   398611,t,0,0,2
   18:27.300   398628,),0,0,2
   18:27.367   398652,(,0,0,1
   18:27.494   398698,N,0,0,0
   18:27.578   398728,),0,0,1
   18:28.039   398894,(,0,0,2
   18:28.067   398904,t,0,0,0
   18:28.089   398912,),0,0,2
   18:28.125   398925,(,0,0,0
   18:28.133   398928,p,0,0,0
   18:28.161   398938,),0,0,0
   18:28.289   398984,(,0,0,1
   18:28.386   399019,N,0,0,0
   18:28.458   399045,),0,0,1
   18:28.961   399226,(,0,0,2
   18:28.989   399236,t,0,0,0
   18:29.017   399246,),0,0,2
   18:29.161   399298,(,0,0,1
   18:29.300   399348,N,0,0,0
   18:29.378   399376,),0,0,1
   18:29.878   399556,(,0,0,1
   18:29.958   399585,N,0,0,0
   18:29.958   399585,),0,0,1
   18:30.103   399637,(,0,0,1
   18:30.217   399678,N,0,0,0
   18:30.297   399707,),0,0,1
   18:30.767   399876,),0,0,2
   18:30.772   399878,t,0,0,1
   18:30.775   399879,(,0,0,2
   18:30.975   399951,(,0,0,1
   18:31.114   400001,N,0,0,0
   18:31.200   400032,),0,0,1
   18:31.703   400213,(,0,0,2
   18:31.733   400224,t,0,0,0
   18:31.761   400234,),0,0,2
   18:31.792   400245,(,0,0,0
   18:31.800   400248,p,0,0,0
   18:31.828   400258,),0,0,0
   18:31.914   400289,(,0,0,1
   18:32.061   400342,N,0,0,0
   18:32.194   400390,),0,0,1
   18:32.686   400567,(,0,0,2
   18:32.714   400577,t,0,0,0
   18:32.742   400587,),0,0,2
   18:32.781   400601,(,0,0,0
   18:32.786   400603,p,0,0,0
   18:32.814   400613,),0,0,0
   18:32.914   400649,(,0,0,1
   18:33.047   400697,N,0,0,0
   18:33.131   400727,),0,0,1
   18:33.583   400890,),0,0,2
   18:33.614   400901,t,0,0,0
   18:33.642   400911,(,0,0,2
   18:33.772   400958,(,0,0,1
   18:33.964   401027,N,0,0,0
   18:34.033   401052,),0,0,1
   18:34.550   401238,(,0,0,1
   18:34.628   401266,N,0,0,0
   18:34.628   401266,),0,0,1
   18:34.778   401320,(,0,0,2
   18:34.881   401357,t,0,0,5
   18:35.247   401489,t,0,0,5
   18:35.294   401506,),0,0,2
   19:05.153   412255,(,0,0,1
   19:05.236   412285,N,0,0,0
   19:05.256   412292,),0,0,1
   19:05.419   412351,(,0,0,2
   19:05.478   412372,t,0,0,5
   19:05.839   412502,t,0,0,5
   19:05.892   412521,),0,0,2
   19:07.906   413246,(,0,0,1
   19:07.986   413275,N,0,0,0
   19:07.986   413275,),0,0,1
   19:08.172   413342,(,0,0,2
   19:08.253   413371,t,0,0,5
   19:08.619   413503,t,0,0,5
   19:08.711   413536,),0,0,2
   19:09.814   413933,(,0,0,1
   19:09.897   413963,N,0,0,0
   19:09.925   413973,),0,0,1
   19:10.106   414038,(,0,0,2
   19:10.164   414059,t,0,0,0
   19:10.264   414095,),0,0,2
   19:10.767   414276,(,0,0,1
   19:10.847   414305,N,0,0,0
   19:10.847   414305,),0,0,1
   19:11.014   414365,(,0,0,2
   19:11.092   414393,t,0,0,0
   19:11.178   414424,),0,0,2
   19:11.489   414536,(,0,0,0
   19:11.497   414539,p,0,0,0
   19:11.525   414549,),0,0,0
   19:11.681   414605,(,0,0,1
   19:11.764   414635,N,0,0,0
   19:11.764   414635,),0,0,1
   19:11.933   414696,(,0,0,2
   19:12.017   414726,t,0,0,5
   19:12.381   414857,t,0,0,5
   19:12.453   414883,),0,0,2
   19:16.475   416331,(,0,0,1
   19:16.558   416361,N,0,0,0
   19:16.558   416361,),0,0,1
   19:16.722   416420,(,0,0,2
   19:16.806   416450,t,0,0,0
   19:16.881   416477,),0,0,2
   19:17.383   416658,(,0,0,1
   19:17.464   416687,N,0,0,0
   19:17.464   416687,),0,0,1
   19:17.617   416742,(,0,0,2
   19:17.700   416772,t,0,0,0
   19:17.794   416806,),0,0,2
   19:28.492   420657,(,0,0,0
   19:28.539   420674,p,0,0,0
   19:28.636   420709,),0,0,0
   19:28.639   420710,(,0,0,1
   19:28.647   420713,N,0,0,0
   19:28.672   420722,),0,0,1
   19:28.847   420785,(,0,0,2
   19:28.931   420815,t,0,0,5
   19:29.306   420950,t,0,0,5
   19:29.358   420969,),0,0,2
   19:31.219   421639,(,0,0,0
   19:31.272   421658,p,0,0,0
   19:31.369   421693,),0,0,0
   19:31.372   421694,(,0,0,1
   19:31.406   421706,N,0,0,0
   19:31.406   421706,),0,0,1
   19:31.581   421769,(,0,0,2
   19:31.656   421796,t,0,0,0
   19:31.794   421846,),0,0,2
   19:36.033   423372,(,0,0,1
   19:36.042   423375,N,0,0,0
   19:36.064   423383,),0,0,1
   19:36.247   423449,(,0,0,2
   19:36.306   423470,t,0,0,0
   19:36.411   423508,),0,0,2
   19:36.892   423681,(,0,0,1
   19:36.928   423694,N,0,0,0
   19:36.931   423695,),0,0,1
   19:37.097   423755,(,0,0,2
   19:37.186   423787,t,0,0,5
   19:37.594   423934,t,0,0,5
   19:37.653   423955,),0,0,2
   19:41.469   425329,(,0,0,0
   19:41.542   425355,p,0,0,0
   19:41.614   425381,),0,0,0
   19:41.619   425383,(,0,0,1
   19:41.628   425386,N,0,0,0
   19:41.650   425394,),0,0,1
   19:41.833   425460,(,0,0,2
   19:41.900   425484,t,0,0,5
   19:42.269   425617,t,0,0,5
   19:42.336   425641,),0,0,2
   19:47.181   427385,(,0,0,0
   19:47.236   427405,p,0,0,0
   19:47.328   427438,),0,0,0
   19:47.331   427439,(,0,0,1
   19:47.364   427451,N,0,0,0
   19:47.364   427451,),0,0,1
   19:47.550   427518,(,0,0,2
   19:47.628   427546,t,0,0,0
   19:47.706   427574,),0,0,2
   19:48.122   427724,(,0,0,0
   19:48.186   427747,p,0,0,0
   19:48.258   427773,),0,0,0
   19:48.264   427775,(,0,0,1
   19:48.294   427786,N,0,0,0
   19:48.328   427798,),0,0,1
   19:48.481   427853,(,0,0,2
   19:48.542   427875,t,0,0,0
   19:48.628   427906,),0,0,2
   19:49.169   428101,(,0,0,1
   19:49.200   428112,N,0,0,0
   19:49.200   428112,),0,0,1
   19:49.386   428179,(,0,0,2
   19:49.469   428209,t,0,0,5
   19:49.842   428343,t,0,0,5
   19:49.947   428381,),0,0,2
   19:51.900   429084,(,0,0,0
   19:51.972   429110,p,0,0,0
   19:52.050   429138,),0,0,0
   19:52.053   429139,(,0,0,1
   19:52.061   429142,N,0,0,0
   19:52.083   429150,),0,0,1
   19:52.278   429220,(,0,0,2
   19:52.347   429245,t,0,0,5
   19:52.711   429376,t,0,0,5
   19:52.767   429396,),0,0,2
   19:54.644   430072,(,0,0,0
   19:54.697   430091,p,0,0,0
   19:54.781   430121,),0,0,0
   19:54.783   430122,(,0,0,1
   19:54.792   430125,N,0,0,0
   19:54.814   430133,),0,0,1
   19:55.003   430201,(,0,0,2
   19:55.072   430226,t,0,0,0
   19:55.183   430266,),0,0,2
   19:56.717   430818,(,0,0,1
   19:56.728   430822,N,0,0,0
   19:56.750   430830,),0,0,1
   19:56.947   430901,(,0,0,2
   19:57.019   430927,t,0,0,0
   19:57.106   430958,),0,0,2
   19:57.531   431111,(,0,0,0
   19:57.603   431137,p,0,0,0
   19:57.669   431161,),0,0,0
   19:57.675   431163,(,0,0,1
   19:57.706   431174,N,0,0,0
   19:57.731   431183,),0,0,1
   19:57.878   431236,(,0,0,2
   19:57.944   431260,t,0,0,5
   19:58.331   431399,t,0,0,5
   19:58.383   431418,),0,0,2
   20:00.264   432095,(,0,0,0
   20:00.339   432122,p,0,0,0
   20:00.406   432146,),0,0,0
   20:00.411   432148,(,0,0,1
   20:00.419   432151,N,0,0,0
   20:00.442   432159,),0,0,1
   20:00.594   432214,(,0,0,2
   20:00.675   432243,t,0,0,0
   20:00.800   432288,),0,0,2
   20:01.167   432420,(,0,0,0
   20:01.236   432445,p,0,0,0
   20:01.297   432467,),0,0,0
   20:01.300   432468,(,0,0,1
   20:01.333   432480,N,0,0,0
   20:01.358   432489,),0,0,1
   20:01.525   432549,(,0,0,2
   20:01.622   432584,t,0,0,5
   20:02.022   432728,t,0,0,5
   20:02.067   432744,),0,0,2
   20:05.969   434149,(,0,0,1
   20:06.050   434178,N,0,0,0
   20:06.078   434188,),0,0,1
   20:06.183   434226,(,0,0,2
   20:06.300   434268,t,0,0,5
   20:06.644   434392,t,0,0,5
   20:06.697   434411,),0,0,2
   20:09.131   435287,(,0,0,1
   20:09.283   435342,N,0,0,0
   20:09.339   435362,),0,0,1
   20:09.722   435500,(,0,0,2
   20:09.747   435509,t,0,0,5
   20:09.811   435532,t,0,0,5
   20:09.844   435544,),0,0,2
   20:13.308   436791,(,0,0,1
   20:13.389   436820,N,0,0,0
   20:13.389   436820,),0,0,1
   20:13.558   436881,(,0,0,2
   20:13.653   436915,t,0,0,5
   20:14.014   437045,t,0,0,5
   20:14.081   437069,),0,0,2
   20:15.189   437468,(,0,0,1
   20:15.278   437500,N,0,0,0
   20:15.281   437501,),0,0,1
   20:15.425   437553,(,0,0,2
   20:15.531   437591,t,0,0,0
   20:15.642   437631,),0,0,2
   20:16.100   437796,(,0,0,1
   20:16.183   437826,N,0,0,0
   20:16.186   437827,),0,0,1
   20:16.314   437873,(,0,0,2
   20:16.431   437915,t,0,0,0
   20:16.531   437951,),0,0,2
   20:16.989   438116,(,0,0,1
   20:17.067   438144,N,0,0,0
   20:17.067   438144,),0,0,1
   20:17.217   438198,(,0,0,2
   20:17.308   438231,t,0,0,0
   20:17.422   438272,),0,0,2
   20:17.869   438433,(,0,0,1
   20:17.950   438462,N,0,0,0
   20:17.950   438462,),0,0,1
   20:18.075   438507,(,0,0,2
   20:18.206   438554,t,0,0,5
   20:18.319   438595,t,0,0,5
   20:18.344   438604,),0,0,2
   20:18.744   438748,(,0,0,1
   20:18.828   438778,N,0,0,0
   20:18.831   438779,),0,0,1
   20:18.981   438833,(,0,0,2
   20:19.103   438877,t,0,0,0
   20:19.200   438912,),0,0,2
   20:19.692   439089,(,0,0,1
   20:19.778   439120,N,0,0,0
   20:19.778   439120,),0,0,1
   20:19.975   439191,(,0,0,2
   20:20.047   439217,t,0,0,0
   20:20.133   439248,),0,0,2
   20:20.656   439436,(,0,0,1
   20:20.742   439467,N,0,0,0
   20:20.744   439468,),0,0,1
   20:20.925   439533,(,0,0,2
   20:20.989   439556,t,0,0,5
   20:21.347   439685,t,0,0,5
   20:21.436   439717,),0,0,2
   20:22.558   440121,(,0,0,1
   20:22.608   440139,N,0,0,0
   20:22.611   440140,),0,0,1
   20:22.758   440193,(,0,0,2
   20:22.861   440230,t,0,0,0
   20:22.967   440268,),0,0,2
   20:23.333   440400,(,0,0,0
   20:23.403   440425,p,0,0,0
   20:23.469   440449,),0,0,0
   20:23.475   440451,(,0,0,1
   20:23.506   440462,N,0,0,0
   20:23.508   440463,),0,0,1
   20:23.631   440507,(,0,0,2
   20:23.744   440548,t,0,0,5
   20:24.075   440667,t,0,0,5
   20:24.200   440712,),0,0,2
   20:25.294   441106,(,0,0,1
   20:25.383   441138,N,0,0,0
   20:25.383   441138,),0,0,1
   20:25.583   441210,(,0,0,2
   20:25.650   441234,t,0,0,0
   20:25.753   441271,),0,0,2
   20:26.261   441454,(,0,0,1
   20:26.344   441484,N,0,0,0
   20:26.344   441484,),0,0,1
   20:26.453   441523,(,0,0,2
   20:26.597   441575,t,0,0,0
   20:26.694   441610,),0,0,2
   20:28.181   442145,(,0,0,1
   20:28.267   442176,N,0,0,0
   20:28.267   442176,),0,0,1
   20:28.450   442242,(,0,0,2
   20:28.536   442273,t,0,0,5
   20:28.894   442402,t,0,0,5
   20:28.986   442435,),0,0,2
   20:29.856   442748,(,0,0,0
   20:29.911   442768,p,0,0,0
   20:30.028   442810,),0,0,0
   20:30.069   442825,(,0,0,1
   20:30.150   442854,N,0,0,0
   20:30.150   442854,),0,0,1
   20:30.336   442921,(,0,0,2
   20:30.408   442947,t,0,0,0
   20:30.494   442978,),0,0,2
   20:31.006   443162,(,0,0,1
   20:31.069   443185,N,0,0,0
   20:31.092   443193,),0,0,1
   20:31.278   443260,(,0,0,2
   20:31.353   443287,t,0,0,0
   20:31.442   443319,),0,0,2
   20:32.017   443526,(,0,0,1
   20:32.094   443554,N,0,0,0
   20:32.094   443554,),0,0,1
   20:32.267   443616,(,0,0,2
   20:32.356   443648,t,0,0,5
   20:32.792   443805,t,0,0,5
   20:32.850   443826,),0,0,2
   20:33.961   444226,(,0,0,1
   20:34.042   444255,N,0,0,0
   20:34.042   444255,),0,0,1
   20:34.194   444310,(,0,0,2
   20:34.300   444348,t,0,0,5
   20:34.650   444474,t,0,0,5
   20:34.767   444516,),0,0,2
   20:38.614   445901,(,0,0,1
   20:38.703   445933,N,0,0,0
   20:38.703   445933,),0,0,1
   20:38.872   445994,(,0,0,2
   20:38.956   446024,t,0,0,5
   20:39.333   446160,t,0,0,5
   20:39.414   446189,),0,0,2
   20:40.458   446565,(,0,0,1
   20:40.544   446596,N,0,0,0
   20:40.547   446597,),0,0,1
   20:40.697   446651,(,0,0,2
   20:40.797   446687,t,0,0,5
   20:41.158   446817,t,0,0,5
   20:41.211   446836,),0,0,2
   20:43.006   447482,(,0,0,0
   20:43.086   447511,p,0,0,0
   20:43.125   447525,),0,0,0
   20:43.139   447530,(,0,0,1
   20:43.175   447543,N,0,0,0
   20:43.194   447550,),0,0,1
   20:43.386   447619,(,0,0,2
   20:43.486   447655,t,0,0,5
   20:43.836   447781,t,0,0,5
   20:43.911   447808,),0,0,2
   20:45.042   448215,(,0,0,1
   20:45.094   448234,N,0,0,0
   20:45.097   448235,),0,0,1
   20:45.294   448306,(,0,0,2
   20:45.358   448329,t,0,0,0
   20:45.456   448364,),0,0,2
   20:45.897   448523,(,0,0,1
   20:45.958   448545,N,0,0,0
   20:45.981   448553,),0,0,1
   20:46.167   448620,(,0,0,2
   20:46.233   448644,t,0,0,0
   20:46.322   448676,),0,0,2
   20:46.789   448844,(,0,0,1
   20:46.867   448872,N,0,0,0
   20:46.867   448872,),0,0,1
   20:47.061   448942,(,0,0,2
   20:47.122   448964,t,0,0,5
   20:47.639   449150,t,0,0,5
   20:47.669   449161,),0,0,2
   20:50.289   450104,(,0,0,1
   20:50.375   450135,N,0,0,0
   20:50.378   450136,),0,0,1
   20:50.544   450196,(,0,0,2
   20:50.647   450233,t,0,0,0
   20:50.778   450280,),0,0,2
   20:51.167   450420,(,0,0,1
   20:51.253   450451,N,0,0,0
   20:51.275   450459,),0,0,1
   20:51.406   450506,(,0,0,2
   20:51.508   450543,t,0,0,0
   20:51.597   450575,),0,0,2
   20:52.014   450725,(,0,0,1
   20:52.097   450755,N,0,0,0
   20:52.097   450755,),0,0,1
   20:52.264   450815,(,0,0,2
   20:52.347   450845,t,0,0,5
   20:52.800   451008,t,0,0,5
   20:52.864   451031,),0,0,2
   20:55.303   451909,(,0,0,1
   20:55.392   451941,N,0,0,0
   20:55.394   451942,),0,0,1
   20:55.569   452005,(,0,0,2
   20:55.661   452038,t,0,0,5
   20:56.019   452167,t,0,0,5
   20:56.078   452188,),0,0,2
   20:57.131   452567,(,0,0,1
   20:57.192   452589,N,0,0,0
   20:57.211   452596,),0,0,1
   20:57.383   452658,(,0,0,2
   20:57.450   452682,t,0,0,5
   20:57.936   452857,t,0,0,5
   20:57.986   452875,),0,0,2
   20:59.658   453477,(,0,0,1
   20:59.742   453507,N,0,0,0
   20:59.742   453507,),0,0,1
   20:59.919   453571,(,0,0,2
   20:59.989   453596,t,0,0,5
   21:00.481   453773,t,0,0,5
   21:00.547   453797,),0,0,2
   21:02.306   454430,(,0,0,1
   21:02.397   454463,N,0,0,0
   21:02.400   454464,),0,0,1
   21:02.578   454528,(,0,0,2
   21:02.661   454558,t,0,0,5
   21:02.992   454677,t,0,0,5
   21:03.072   454706,),0,0,2
   21:05.719   455659,(,0,0,0
   21:05.786   455683,p,0,0,0
   21:05.839   455702,),0,0,0
   21:05.856   455708,(,0,0,1
   21:05.875   455715,N,0,0,0
   21:05.894   455722,),0,0,1
   21:06.064   455783,(,0,0,2
   21:06.147   455813,t,0,0,0
   21:06.225   455841,),0,0,2
   21:06.547   455957,(,0,0,0
   21:06.592   455973,p,0,0,0
   21:06.686   456007,),0,0,0
   21:06.689   456008,(,0,0,1
   21:06.697   456011,N,0,0,0
   21:06.719   456019,),0,0,1
   21:06.900   456084,(,0,0,2
   21:06.981   456113,t,0,0,0
   21:07.083   456150,),0,0,2
   21:07.406   456266,(,0,0,0
   21:07.514   456305,p,0,0,0
   21:07.575   456327,),0,0,0
   21:07.600   456336,(,0,0,1
   21:07.611   456340,N,0,0,0
   21:07.633   456348,),0,0,1
   21:07.789   456404,(,0,0,2
   21:07.906   456446,t,0,0,5
   21:08.250   456570,t,0,0,5
   21:08.300   456588,),0,0,2
   21:09.256   456932,(,0,0,0
   21:09.333   456960,p,0,0,0
   21:09.433   456996,),0,0,0
   21:09.447   457001,(,0,0,1
   21:09.467   457008,N,0,0,0
   21:09.489   457016,),0,0,1
   21:09.650   457074,(,0,0,2
   21:09.728   457102,t,0,0,0
   21:09.808   457131,),0,0,2
   21:10.175   457263,(,0,0,0
   21:10.239   457286,p,0,0,0
   21:10.317   457314,),0,0,0
   21:10.322   457316,(,0,0,1
   21:10.331   457319,N,0,0,0
   21:10.353   457327,),0,0,1
   21:11.903   457885,(,0,0,0
   21:11.967   457908,p,0,0,0
   21:12.044   457936,),0,0,0
   21:12.050   457938,(,0,0,1
   21:12.058   457941,N,0,0,0
   21:12.081   457949,),0,0,1
   21:12.275   458019,(,0,0,2
   21:12.336   458041,t,0,0,0
   21:12.414   458069,),0,0,2
   21:12.756   458192,(,0,0,0
   21:12.825   458217,p,0,0,0
   21:12.906   458246,),0,0,0
   21:12.908   458247,(,0,0,1
   21:12.919   458251,N,0,0,0
   21:12.942   458259,),0,0,1
   21:13.133   458328,(,0,0,2
   21:13.214   458357,t,0,0,0
   21:13.308   458391,),0,0,2
   21:13.664   458519,(,0,0,0
   21:13.728   458542,p,0,0,0
   21:13.808   458571,),0,0,0
   21:13.811   458572,(,0,0,1
   21:13.822   458576,N,0,0,0
   21:13.847   458585,),0,0,1
   21:14.025   458649,(,0,0,2
   21:14.108   458679,t,0,0,0
   21:14.197   458711,),0,0,2
   21:14.711   458896,(,0,0,1
   21:14.800   458928,N,0,0,0
   21:14.800   458928,),0,0,1
   21:14.981   458993,(,0,0,2
   21:15.064   459023,t,0,0,5
   21:15.406   459146,t,0,0,5
   21:15.481   459173,),0,0,2
   21:18.114   460121,(,0,0,0
   21:18.181   460145,p,0,0,0
   21:18.258   460173,),0,0,0
   21:18.261   460174,(,0,0,1
   21:18.269   460177,N,0,0,0
   21:18.292   460185,),0,0,1
   21:18.453   460243,(,0,0,2
   21:18.525   460269,t,0,0,5
   21:19.047   460457,t,0,0,5
   21:19.092   460473,),0,0,2
   21:25.303   462709,(,0,0,1
   21:25.394   462742,N,0,0,0
   21:25.394   462742,),0,0,1
   21:25.578   462808,(,0,0,2
   21:25.653   462835,t,0,0,0
   21:25.733   462864,),0,0,2
   21:26.111   463000,(,0,0,0
   21:26.164   463019,p,0,0,0
   21:26.231   463043,),0,0,0
   21:26.242   463047,(,0,0,1
   21:26.272   463058,N,0,0,0
   21:26.294   463066,),0,0,1
   21:26.464   463127,(,0,0,2
   21:26.553   463159,t,0,0,5
   21:26.939   463298,t,0,0,5
   21:26.997   463319,),0,0,2
   21:32.292   465225,(,0,0,0
   21:32.361   465250,p,0,0,0
   21:32.467   465288,),0,0,0
   21:32.472   465290,(,0,0,1
   21:32.503   465301,N,0,0,0
   21:32.525   465309,),0,0,1
   21:32.711   465376,(,0,0,2
   21:32.789   465404,t,0,0,0
   21:32.908   465447,),0,0,2
   21:33.253   465571,(,0,0,0
   21:33.322   465596,p,0,0,0
   21:33.403   465625,),0,0,0
   21:33.408   465627,(,0,0,1
   21:33.417   465630,N,0,0,0
   21:33.439   465638,),0,0,1
   21:33.603   465697,(,0,0,2
   21:33.681   465725,t,0,0,0
   21:33.750   465750,),0,0,2
   21:34.122   465884,(,0,0,0
   21:34.186   465907,p,0,0,0
   21:34.247   465929,),0,0,0
   21:34.253   465931,(,0,0,1
   21:34.278   465940,N,0,0,0
   21:34.297   465947,),0,0,1
   21:34.542   466035,(,0,0,2
   21:34.858   466149,t,0,0,1
   21:35.103   466237,),0,0,2
   21:35.786   466483,(,0,0,0
   21:35.847   466505,p,0,0,0
   21:35.925   466533,),0,0,0
   21:35.931   466535,(,0,0,1
   21:35.939   466538,N,0,0,0
   21:35.961   466546,),0,0,1
   21:37.511   467104,(,0,0,0
   21:37.567   467124,p,0,0,0
   21:37.644   467152,),0,0,0
   21:37.658   467157,(,0,0,1
   21:37.678   467164,N,0,0,0
   21:37.703   467173,),0,0,1
   21:37.881   467237,(,0,0,2
   21:37.958   467265,t,0,0,0
   21:38.044   467296,),0,0,2
   21:38.383   467418,(,0,0,0
   21:38.442   467439,p,0,0,0
   21:38.539   467474,),0,0,0
   21:38.544   467476,(,0,0,1
   21:38.553   467479,N,0,0,0
   21:38.578   467488,),0,0,1
   21:38.761   467554,(,0,0,2
   21:38.836   467581,t,0,0,5
   21:39.197   467711,t,0,0,5
   21:39.264   467735,),0,0,2
   21:40.328   468118,(,0,0,1
   21:40.333   468120,N,0,0,0
   21:40.358   468129,),0,0,1
   21:40.600   468216,(,0,0,2
   21:40.931   468335,t,0,0,1
   21:41.156   468416,),0,0,2
   21:41.869   468673,(,0,0,0
   21:41.922   468692,p,0,0,0
   21:42.003   468721,),0,0,0
   21:42.011   468724,(,0,0,1
   21:42.017   468726,N,0,0,0
   21:42.039   468734,),0,0,1
   21:42.297   468827,(,0,0,2
   21:42.600   468936,t,0,0,1
   21:42.817   469014,),0,0,2
   21:43.583   469290,(,0,0,0
   21:43.639   469310,p,0,0,0
   21:43.717   469338,),0,0,0
   21:43.722   469340,(,0,0,1
   21:43.750   469350,N,0,0,0
   21:43.772   469358,),0,0,1
   21:43.947   469421,(,0,0,2
   21:44.033   469452,t,0,0,0
   21:44.114   469481,),0,0,2
   21:44.564   469643,(,0,0,1
   21:44.628   469666,N,0,0,0
   21:44.650   469674,),0,0,1
   21:44.842   469743,(,0,0,2
   21:44.908   469767,t,0,0,5
   21:45.256   469892,t,0,0,5
   21:45.311   469912,),0,0,2
   21:47.208   470595,(,0,0,1
   21:47.214   470597,N,0,0,0
   21:47.236   470605,),0,0,1
   21:48.678   471124,(,0,0,0
   21:48.792   471165,p,0,0,0
   21:48.856   471188,),0,0,0
   21:48.861   471190,(,0,0,1
   21:48.886   471199,N,0,0,0
   21:48.908   471207,),0,0,1
   21:49.111   471280,(,0,0,2
   21:49.178   471304,t,0,0,0
   21:49.292   471345,),0,0,2
   21:49.633   471468,(,0,0,0
   21:49.686   471487,p,0,0,0
   21:49.786   471523,),0,0,0
   21:49.789   471524,(,0,0,1
   21:49.797   471527,N,0,0,0
   21:49.822   471536,),0,0,1
   21:50.014   471605,(,0,0,2
   21:50.089   471632,t,0,0,5
   21:50.450   471762,t,0,0,5
   21:50.497   471779,),0,0,2
   21:52.278   472420,(,0,0,0
   21:52.386   472459,p,0,0,0
   21:52.453   472483,),0,0,0
   21:52.461   472486,(,0,0,1
   21:52.486   472495,N,0,0,0
   21:52.508   472503,),0,0,1
   21:52.681   472565,(,0,0,2
   21:52.753   472591,t,0,0,0
   21:52.836   472621,),0,0,2
   21:53.064   472703,(,0,0,0
   21:53.097   472715,p,0,0,0
   21:53.131   472727,),0,0,0
   21:53.278   472780,(,0,0,1
   21:53.342   472803,N,0,0,0
   21:53.364   472811,),0,0,1
   21:53.533   472872,(,0,0,2
   21:53.603   472897,t,0,0,0
   21:53.689   472928,),0,0,2
   21:55.850   473706,(,0,0,0
   21:55.908   473727,p,0,0,0
   21:55.997   473759,),0,0,0
   21:56.003   473761,(,0,0,1
   21:56.011   473764,N,0,0,0
   21:56.036   473773,),0,0,1
   21:56.222   473840,(,0,0,2
   21:56.300   473868,t,0,0,0
   21:56.422   473912,),0,0,2
   21:56.769   474037,(,0,0,0
   21:56.825   474057,p,0,0,0
   21:56.914   474089,),0,0,0
   21:56.919   474091,(,0,0,1
   21:56.928   474094,N,0,0,0
   21:56.950   474102,),0,0,1
   21:57.136   474169,(,0,0,2
   21:57.214   474197,t,0,0,5
   21:57.533   474312,t,0,0,5
   21:57.636   474349,),0,0,2
   21:59.461   475006,(,0,0,0
   21:59.517   475026,p,0,0,0
   21:59.606   475058,),0,0,0
   21:59.611   475060,(,0,0,1
   21:59.619   475063,N,0,0,0
   21:59.642   475071,),0,0,1
   21:59.825   475137,(,0,0,2
   21:59.886   475159,t,0,0,5
   22:00.244   475288,t,0,0,5
   22:00.311   475312,),0,0,2
   22:02.208   475995,(,0,0,0
   22:02.286   476023,p,0,0,0
   22:02.361   476050,),0,0,0
   22:02.364   476051,(,0,0,1
   22:02.372   476054,N,0,0,0
   22:02.397   476063,),0,0,1
   22:02.594   476134,(,0,0,2
   22:02.669   476161,t,0,0,0
   22:02.761   476194,),0,0,2
   22:04.956   476984,(,0,0,0
   22:05.008   477003,p,0,0,0
   22:05.103   477037,),0,0,0
   22:05.106   477038,(,0,0,1
   22:05.114   477041,N,0,0,0
   22:05.139   477050,),0,0,1
   22:05.317   477114,(,0,0,2
   22:05.383   477138,t,0,0,5
   22:05.731   477263,t,0,0,5
   22:05.783   477282,),0,0,2
   22:06.686   477607,(,0,0,0
   22:06.736   477625,p,0,0,0
   22:06.822   477656,),0,0,0
   22:06.825   477657,(,0,0,1
   22:06.833   477660,N,0,0,0
   22:06.853   477667,),0,0,1
   22:07.028   477730,(,0,0,2
   22:07.108   477759,t,0,0,0
   22:07.214   477797,),0,0,2
   22:08.556   478280,(,0,0,0
   22:08.628   478306,p,0,0,0
   22:08.703   478333,),0,0,0
   22:08.706   478334,(,0,0,1
   22:08.717   478338,N,0,0,0
   22:08.742   478347,),0,0,1
   22:08.919   478411,(,0,0,2
   22:08.997   478439,t,0,0,0
   22:09.089   478472,),0,0,2
   22:09.472   478610,(,0,0,0
   22:09.531   478631,p,0,0,0
   22:09.608   478659,),0,0,0
   22:09.611   478660,(,0,0,1
   22:09.619   478663,N,0,0,0
   22:09.642   478671,),0,0,1
   22:09.806   478730,(,0,0,2
   22:09.886   478759,t,0,0,0
   22:09.981   478793,),0,0,2
   22:10.347   478925,(,0,0,0
   22:10.397   478943,p,0,0,0
   22:10.497   478979,),0,0,0
   22:10.503   478981,(,0,0,1
   22:10.511   478984,N,0,0,0
   22:10.533   478992,),0,0,1
   22:10.714   479057,(,0,0,2
   22:10.781   479081,t,0,0,0
   22:10.869   479113,),0,0,2
   22:20.061   482422,(,0,0,0
   22:20.119   482443,p,0,0,0
   22:20.211   482476,),0,0,0
   22:20.214   482477,(,0,0,1
   22:20.225   482481,N,0,0,0
   22:20.244   482488,),0,0,1
   22:20.428   482554,(,0,0,2
   22:20.511   482584,t,0,0,0
   22:20.594   482614,),0,0,2
   23:01.319   497275,(,0,0,0
   23:01.342   497283,p,0,0,0
   23:01.367   497292,),0,0,0
   23:01.497   497339,(,0,0,1
   23:01.583   497370,N,0,0,0
   23:01.647   497393,),0,0,1
   23:02.158   497577,(,0,0,2
   23:02.189   497588,t,0,0,5
   23:02.261   497614,t,0,0,5
   23:02.344   497644,),0,0,2
   23:03.967   498228,(,0,0,0
   23:04.011   498244,p,0,0,0
   23:04.053   498259,),0,0,0
   23:04.178   498304,(,0,0,1
   23:04.294   498346,N,0,0,0
   23:04.381   498377,),0,0,1
   23:04.822   498536,(,0,0,2
   23:04.856   498548,t,0,0,5
   23:04.919   498571,t,0,0,5
   23:04.975   498591,),0,0,2
   23:07.467   499488,(,0,0,0
   23:07.489   499496,p,0,0,0
   23:07.517   499506,),0,0,0
   23:07.617   499542,(,0,0,1
   23:07.728   499582,N,0,0,0
   23:07.875   499635,),0,0,1
   23:08.272   499778,(,0,0,2
   23:08.303   499789,t,0,0,5
   23:08.369   499813,t,0,0,5
   23:08.436   499837,),0,0,2
   23:10.081   500429,(,0,0,0
   23:10.106   500438,p,0,0,0
   23:10.131   500447,),0,0,0
   23:10.214   500477,(,0,0,1
   23:10.347   500525,N,0,0,0
   23:10.417   500550,),0,0,1
   23:10.764   500675,(,0,0,2
   23:10.803   500689,t,0,0,1
   23:10.883   500718,),0,0,2
   23:10.922   500732,(,0,0,0
   23:10.947   500741,p,0,0,0
   23:10.972   500750,),0,0,0
   23:11.075   500787,(,0,0,1
   23:11.178   500824,N,0,0,0
   23:11.247   500849,),0,0,1
   23:11.594   500974,(,0,0,2
   23:11.669   501001,t,0,0,1
   23:11.714   501017,),0,0,2
   23:11.761   501034,(,0,0,0
   23:11.783   501042,p,0,0,0
   23:11.808   501051,),0,0,0
   23:11.903   501085,(,0,0,1
   23:12.025   501129,N,0,0,0
   23:12.097   501155,),0,0,1
   23:12.469   501289,),0,0,2
   23:12.492   501297,t,0,0,0
   23:12.514   501305,(,0,0,2
   23:12.586   501331,(,0,0,0
   23:12.608   501339,p,0,0,0
   23:12.633   501348,),0,0,0
   23:12.756   501392,(,0,0,1
   23:12.850   501426,N,0,0,0
   23:12.944   501460,),0,0,1
   23:13.286   501583,),0,0,2
   23:13.344   501604,t,0,0,0
   23:13.403   501625,(,0,0,2
   23:13.481   501653,(,0,0,0
   23:13.500   501660,p,0,0,0
   23:13.525   501669,),0,0,0
   23:13.647   501713,(,0,0,1
   23:13.733   501744,N,0,0,0
   23:13.811   501772,),0,0,1
   23:14.281   501941,(,0,0,2
   23:14.311   501952,t,0,0,5
   23:14.375   501975,t,0,0,5
   23:14.431   501995,),0,0,2
   23:15.219   502279,(,0,0,0
   23:15.242   502287,p,0,0,0
   23:15.269   502297,),0,0,0
   23:15.408   502347,(,0,0,1
   23:15.489   502376,N,0,0,0
   23:15.544   502396,),0,0,1
   23:15.858   502509,(,0,0,2
   23:15.975   502551,t,0,0,4
   23:16.025   502569,t,0,0,4
   23:16.050   502578,),0,0,2
   23:16.075   502587,(,0,0,0
   23:16.097   502595,p,0,0,0
   23:16.122   502604,),0,0,0
   23:16.228   502642,(,0,0,1
   23:16.344   502684,N,0,0,0
   23:16.511   502744,),0,0,1
   23:16.781   502841,(,0,0,2
   23:16.833   502860,t,0,0,1
   23:16.883   502878,),0,0,2
   23:17.078   502948,(,0,0,1
   23:17.200   502992,N,0,0,0
   23:17.300   503028,),0,0,1
   23:17.756   503192,(,0,0,2
   23:17.783   503202,t,0,0,1
   23:17.833   503220,),0,0,2
   23:19.497   503819,(,0,0,0
   23:19.522   503828,p,0,0,0
   23:19.547   503837,),0,0,0
   23:19.692   503889,(,0,0,1
   23:19.781   503921,N,0,0,0
   23:19.858   503949,),0,0,1
   23:20.158   504057,(,0,0,2
   23:20.231   504083,t,0,0,1
   23:20.333   504120,),0,0,2
   23:20.381   504137,(,0,0,0
   23:20.406   504146,p,0,0,0
   23:20.431   504155,),0,0,0
   23:20.569   504205,(,0,0,1
   23:20.647   504233,N,0,0,0
   23:20.731   504263,),0,0,1
   23:21.150   504414,),0,0,2
   23:21.181   504425,t,0,0,0
   23:21.211   504436,(,0,0,2
   23:21.286   504463,(,0,0,0
   23:21.306   504470,p,0,0,0
   23:21.331   504479,),0,0,0
   23:21.475   504531,(,0,0,1
   23:21.533   504552,N,0,0,0
   23:21.697   504611,),0,0,1
   23:22.086   504751,(,0,0,2
   23:22.131   504767,t,0,0,1
   23:22.228   504802,),0,0,2
   23:22.986   505075,(,0,0,0
   23:23.008   505083,p,0,0,0
   23:23.033   505092,),0,0,0
   23:23.142   505131,(,0,0,1
   23:23.242   505167,N,0,0,0
   23:23.317   505194,),0,0,1
   23:23.678   505324,(,0,0,2
   23:23.744   505348,t,0,0,4
   23:23.789   505364,),0,0,2
   23:23.833   505380,(,0,0,0
   23:23.856   505388,p,0,0,0
   23:23.881   505397,),0,0,0
   23:23.989   505436,(,0,0,1
   23:24.083   505470,N,0,0,0
   23:24.256   505532,),0,0,1
   23:24.644   505672,(,0,0,2
   23:24.661   505678,t,0,0,5
   23:24.692   505689,t,0,0,5
   23:24.733   505704,),0,0,2
   23:25.308   505911,(,0,0,0
   23:25.356   505928,p,0,0,0
   23:25.439   505958,),0,0,0
   23:25.514   505985,(,0,0,1
   23:25.603   506017,N,0,0,0
   23:25.603   506017,),0,0,1
   23:25.778   506080,(,0,0,2
   23:25.878   506116,t,0,0,5
   23:26.222   506240,t,0,0,5
   23:26.283   506262,),0,0,2
   23:35.908   509727,(,0,0,0
   23:35.967   509748,p,0,0,0
   23:36.047   509777,),0,0,0
   23:36.056   509780,(,0,0,1
   23:36.086   509791,N,0,0,0
   23:36.089   509792,),0,0,1
   23:36.247   509849,(,0,0,2
   23:36.314   509873,t,0,0,5
   23:36.783   510042,t,0,0,5
   23:36.872   510074,),0,0,2
   23:38.642   510711,(,0,0,0
   23:38.714   510737,p,0,0,0
   23:38.789   510764,),0,0,0
   23:38.792   510765,(,0,0,1
   23:38.800   510768,N,0,0,0
   23:38.819   510775,),0,0,1
   23:39.000   510840,(,0,0,2
   23:39.072   510866,t,0,0,5
   23:39.450   511002,t,0,0,5
   23:39.494   511018,),0,0,2
   23:54.761   516514,(,0,0,0
   23:54.833   516540,p,0,0,0
   23:54.883   516558,),0,0,0
   23:54.914   516569,(,0,0,1
   23:54.925   516573,N,0,0,0
   23:54.947   516581,),0,0,1
   23:55.128   516646,(,0,0,2
   23:55.200   516672,t,0,0,0
   23:55.289   516704,),0,0,2
   24:03.369   519613,(,0,0,0
   24:03.406   519626,p,0,0,0
   24:03.500   519660,),0,0,0
   24:03.539   519674,(,0,0,1
   24:03.611   519700,N,0,0,0
   24:03.667   519720,),0,0,1
   24:03.781   519761,(,0,0,2
   24:03.864   519791,t,0,0,5
   24:04.172   519902,t,0,0,5
   24:04.244   519928,),0,0,2
   24:17.286   524623,(,0,0,0
   24:17.328   524638,p,0,0,0
   24:17.403   524665,),0,0,0
   24:17.461   524686,(,0,0,1
   24:17.508   524703,N,0,0,0
   24:17.561   524722,),0,0,1
   24:17.797   524807,(,0,0,2
   24:18.028   524890,t,0,0,1
   24:18.161   524938,),0,0,2
   24:19.892   525561,(,0,0,0
   24:19.931   525575,p,0,0,0
   24:20.011   525604,),0,0,0
   24:20.058   525621,(,0,0,1
   24:20.131   525647,N,0,0,0
   24:20.164   525659,),0,0,1
   24:20.347   525725,(,0,0,2
   24:20.417   525750,t,0,0,5
   24:20.775   525879,t,0,0,5
   24:20.825   525897,),0,0,2
   24:25.142   527451,(,0,0,0
   24:25.208   527475,p,0,0,0
   24:25.269   527497,),0,0,0
   24:25.350   527526,(,0,0,1
   24:25.439   527558,N,0,0,0
   24:25.442   527559,),0,0,1
   24:25.628   527626,(,0,0,2
   24:25.703   527653,t,0,0,5
   24:26.056   527780,t,0,0,5
   24:26.122   527804,),0,0,2
   24:45.425   534753,(,0,0,0
   24:45.483   534774,p,0,0,0
   24:45.572   534806,),0,0,0
   24:45.575   534807,(,0,0,1
   24:45.583   534810,N,0,0,0
   24:45.606   534818,),0,0,1
   24:45.786   534883,(,0,0,2
   24:45.853   534907,t,0,0,0
   24:45.992   534957,),0,0,2
   24:47.944   535660,(,0,0,0
   24:47.981   535673,p,0,0,0
   24:48.011   535684,),0,0,0
   24:48.131   535727,(,0,0,1
   24:48.208   535755,N,0,0,0
   24:48.208   535755,),0,0,1
   24:48.361   535810,(,0,0,2
   24:48.422   535832,t,0,0,5
   24:48.953   536023,t,0,0,5
   24:49.006   536042,),0,0,2
   24:50.653   536635,(,0,0,0
   24:50.694   536650,p,0,0,0
   24:50.769   536677,),0,0,0
   24:50.847   536705,(,0,0,1
   24:50.928   536734,N,0,0,0
   24:50.928   536734,),0,0,1
   24:51.111   536800,(,0,0,2
   24:51.178   536824,t,0,0,0
   24:51.281   536861,),0,0,2
   24:51.558   536961,(,0,0,0
   24:51.600   536976,p,0,0,0
   24:51.686   537007,),0,0,0
   24:51.747   537029,(,0,0,1
   24:51.836   537061,N,0,0,0
   24:51.839   537062,),0,0,1
   24:52.011   537124,(,0,0,2
   24:52.097   537155,t,0,0,0
   24:52.211   537196,),0,0,2
   24:52.475   537291,(,0,0,0
   24:52.522   537308,p,0,0,0
   24:52.594   537334,),0,0,0
   24:52.675   537363,(,0,0,1
   24:52.756   537392,N,0,0,0
   24:52.756   537392,),0,0,1
   24:52.881   537437,(,0,0,2
   24:52.997   537479,t,0,0,0
   24:53.094   537514,),0,0,2
   24:53.325   537597,(,0,0,0
   24:53.364   537611,p,0,0,0
   24:53.447   537641,),0,0,0
   24:53.514   537665,(,0,0,1
   24:53.597   537695,N,0,0,0
   24:53.597   537695,),0,0,1
   24:53.739   537746,(,0,0,2
   24:53.831   537779,t,0,0,5
   24:54.167   537900,t,0,0,5
   24:54.244   537928,),0,0,2
   24:57.814   539213,(,0,0,0
   24:57.861   539230,p,0,0,0
   24:57.950   539262,),0,0,0
   24:58.028   539290,(,0,0,1
   24:58.117   539322,N,0,0,0
   24:58.119   539323,),0,0,1
   24:58.281   539381,(,0,0,2
   24:58.372   539414,t,0,0,0
   24:58.461   539446,),0,0,2
   24:58.747   539549,(,0,0,0
   24:58.789   539564,p,0,0,0
   24:58.869   539593,),0,0,0
   24:58.944   539620,(,0,0,1
   24:59.025   539649,N,0,0,0
   24:59.025   539649,),0,0,1
   24:59.200   539712,(,0,0,2
   24:59.264   539735,t,0,0,0
   24:59.364   539771,),0,0,2
   24:59.633   539868,(,0,0,0
   24:59.694   539890,p,0,0,0
   24:59.756   539912,),0,0,0
   24:59.822   539936,(,0,0,1
   24:59.903   539965,N,0,0,0
   24:59.903   539965,),0,0,1
   25:00.072   540026,(,0,0,2
   25:00.142   540051,t,0,0,0
   25:00.225   540081,),0,0,2
   25:00.469   540169,(,0,0,0
   25:00.514   540185,p,0,0,0
   25:00.592   540213,),0,0,0
   25:00.672   540242,(,0,0,1
   25:00.753   540271,N,0,0,0
   25:00.778   540280,),0,0,1
   25:00.914   540329,(,0,0,2
   25:00.997   540359,t,0,0,0
   25:01.089   540392,),0,0,2
   25:01.414   540509,(,0,0,0
   25:01.458   540525,p,0,0,0
   25:01.492   540537,),0,0,0
   25:01.619   540583,(,0,0,1
   25:01.706   540614,N,0,0,0
   25:01.706   540614,),0,0,1
   25:01.900   540684,(,0,0,2
   25:01.975   540711,t,0,0,5
   25:02.353   540847,t,0,0,5
   25:02.422   540872,),0,0,2
   25:10.489   543776,(,0,0,0
   25:10.528   543790,p,0,0,0
   25:10.611   543820,),0,0,0
   25:10.689   543848,(,0,0,1
   25:10.775   543879,N,0,0,0
   25:10.775   543879,),0,0,1
   25:10.919   543931,(,0,0,2
   25:11.022   543968,t,0,0,5
   25:11.369   544093,t,0,0,5
   25:11.422   544112,),0,0,2
   25:13.119   544723,(,0,0,0
   25:13.167   544740,p,0,0,0
   25:13.253   544771,),0,0,0
   25:13.331   544799,(,0,0,1
   25:13.411   544828,N,0,0,0
   25:13.411   544828,),0,0,1
   25:13.575   544887,(,0,0,2
   25:13.656   544916,t,0,0,5
   25:14.044   545056,t,0,0,5
   25:14.108   545079,),0,0,2
   25:15.867   545712,(,0,0,0
   25:15.931   545735,p,0,0,0
   25:15.994   545758,),0,0,0
   25:16.061   545782,(,0,0,1
   25:16.144   545812,N,0,0,0
   25:16.147   545813,),0,0,1
   25:16.308   545871,(,0,0,2
   25:16.383   545898,t,0,0,5
   25:16.747   546029,t,0,0,5
   25:16.794   546046,),0,0,2
   25:18.447   546641,(,0,0,0
   25:18.475   546651,p,0,0,0
   25:18.547   546677,),0,0,0
   25:18.617   546702,(,0,0,1
   25:18.706   546734,N,0,0,0
   25:18.706   546734,),0,0,1
   25:18.886   546799,(,0,0,2
   25:18.953   546823,t,0,0,5
   25:19.061   546862,t,0,0,5
   25:19.108   546879,),0,0,2
   25:19.317   546954,(,0,0,0
   25:19.361   546970,p,0,0,0
   25:19.453   547003,),0,0,0
   25:19.533   547032,(,0,0,1
   25:19.617   547062,N,0,0,0
   25:19.617   547062,),0,0,1
   25:19.794   547126,(,0,0,2
   25:19.861   547150,t,0,0,0
   25:19.956   547184,),0,0,2
   25:20.236   547285,(,0,0,0
   25:20.289   547304,p,0,0,0
   25:20.369   547333,),0,0,0
   25:20.444   547360,(,0,0,1
   25:20.528   547390,N,0,0,0
   25:20.564   547403,),0,0,1
   25:20.700   547452,(,0,0,2
   25:20.778   547480,t,0,0,5
   25:21.119   547603,t,0,0,5
   25:21.175   547623,),0,0,2
   25:21.969   547909,(,0,0,0
   25:22.011   547924,p,0,0,0
   25:22.083   547950,),0,0,0
   25:22.156   547976,(,0,0,1
   25:22.236   548005,N,0,0,0
   25:22.239   548006,),0,0,1
   25:22.492   548097,(,0,0,2
   25:22.775   548199,t,0,0,1
   25:23.000   548280,),0,0,2
   25:24.450   548802,(,0,0,0
   25:24.486   548815,p,0,0,0
   25:24.550   548838,),0,0,0
   25:24.614   548861,(,0,0,1
   25:24.697   548891,N,0,0,0
   25:24.700   548892,),0,0,1
   25:24.875   548955,(,0,0,2
   25:24.961   548986,t,0,0,5
   25:25.281   549101,t,0,0,5
   25:25.319   549115,),0,0,2
   25:27.925   550053,(,0,0,0
   25:27.989   550076,p,0,0,0
   25:28.053   550099,),0,0,0
   25:28.125   550125,(,0,0,1
   25:28.206   550154,N,0,0,0
   25:28.206   550154,),0,0,1
   25:28.369   550213,(,0,0,2
   25:28.439   550238,t,0,0,5
   25:28.939   550418,t,0,0,5
   25:28.978   550432,),0,0,2
   25:32.225   551601,(,0,0,0
   25:32.300   551628,p,0,0,0
   25:32.358   551649,),0,0,0
   25:32.436   551677,(,0,0,1
   25:32.486   551695,N,0,0,0
   25:32.525   551709,),0,0,1
   25:32.669   551761,(,0,0,2
   25:32.781   551801,t,0,0,5
   25:33.125   551925,t,0,0,5
   25:33.181   551945,),0,0,2
   25:34.119   552283,(,0,0,0
   25:34.167   552300,p,0,0,0
   25:34.233   552324,),0,0,0
   25:34.250   552330,(,0,0,1
   25:34.306   552350,N,0,0,0
   25:34.308   552351,),0,0,1
   25:34.456   552404,(,0,0,2
   25:34.542   552435,t,0,0,0
   25:34.661   552478,),0,0,2
   25:34.886   552559,(,0,0,0
   25:34.922   552572,p,0,0,0
   25:34.994   552598,),0,0,0
   25:35.072   552626,(,0,0,1
   25:35.156   552656,N,0,0,0
   25:35.158   552657,),0,0,1
   25:35.331   552719,(,0,0,2
   25:35.394   552742,t,0,0,5
   25:35.750   552870,t,0,0,5
   25:35.811   552892,),0,0,2
   25:36.617   553182,(,0,0,0
   25:36.656   553196,p,0,0,0
   25:36.761   553234,),0,0,0
   25:36.817   553254,(,0,0,1
   25:36.897   553283,N,0,0,0
   25:36.897   553283,),0,0,1
   25:37.072   553346,(,0,0,2
   25:37.144   553372,t,0,0,0
   25:37.244   553408,),0,0,2
   25:37.619   553543,(,0,0,0
   25:37.683   553566,p,0,0,0
   25:37.742   553587,),0,0,0
   25:37.753   553591,(,0,0,1
   25:37.808   553611,N,0,0,0
   25:37.833   553620,),0,0,1
   25:38.017   553686,(,0,0,2
   25:38.086   553711,t,0,0,0
   25:38.175   553743,),0,0,2
   25:38.539   553874,(,0,0,0
   25:38.594   553894,p,0,0,0
   25:38.664   553919,),0,0,0
   25:38.672   553922,(,0,0,1
   25:38.728   553942,N,0,0,0
   25:38.728   553942,),0,0,1
   25:38.931   554015,(,0,0,2
   25:38.997   554039,t,0,0,5
   25:39.317   554154,t,0,0,5
   25:39.397   554183,),0,0,2
   25:40.211   554476,(,0,0,0
   25:40.258   554493,p,0,0,0
   25:40.289   554504,),0,0,0
   25:40.467   554568,(,0,0,1
   25:40.472   554570,N,0,0,0
   25:40.494   554578,),0,0,1
   25:40.686   554647,(,0,0,2
   25:40.739   554666,t,0,0,0
   25:40.806   554690,),0,0,2
   25:41.153   554815,(,0,0,0
   25:41.197   554831,p,0,0,0
   25:41.292   554865,),0,0,0
   25:41.303   554869,(,0,0,1
   25:41.333   554880,N,0,0,0
   25:41.333   554880,),0,0,1
   25:41.517   554946,(,0,0,2
   25:41.594   554974,t,0,0,0
   25:41.681   555005,),0,0,2
   25:42.856   555428,(,0,0,0
   25:42.925   555453,p,0,0,0
   25:42.994   555478,),0,0,0
   25:43.003   555481,(,0,0,1
   25:43.008   555483,N,0,0,0
   25:43.031   555491,),0,0,1
   25:43.239   555566,(,0,0,2
   25:43.294   555586,t,0,0,5
   25:43.611   555700,t,0,0,5
   25:43.667   555720,),0,0,2
   25:44.633   556068,(,0,0,0
   25:44.717   556098,p,0,0,0
   25:44.786   556123,),0,0,0
   25:44.789   556124,(,0,0,1
   25:44.800   556128,N,0,0,0
   25:44.825   556137,),0,0,1
   25:45.089   556232,(,0,0,2
   25:45.269   556297,t,0,0,1
   25:45.467   556368,),0,0,2
   25:47.206   556994,(,0,0,0
   25:47.283   557022,p,0,0,0
   25:47.350   557046,),0,0,0
   25:47.353   557047,(,0,0,1
   25:47.386   557059,N,0,0,0
   25:47.389   557060,),0,0,1
   25:47.647   557153,(,0,0,2
   25:47.919   557251,t,0,0,1
   25:48.203   557353,),0,0,2
   25:49.775   557919,(,0,0,0
   25:49.836   557941,p,0,0,0
   25:49.919   557971,),0,0,0
   25:49.922   557972,(,0,0,1
   25:49.958   557985,N,0,0,0
   25:49.958   557985,),0,0,1
   25:52.383   558858,(,0,0,0
   25:52.425   558873,p,0,0,0
   25:52.503   558901,),0,0,0
   25:52.528   558910,(,0,0,1
   25:52.539   558914,N,0,0,0
   25:52.558   558921,),0,0,1
   25:52.628   558946,(,0,0,2
   25:52.806   559010,t,0,0,0
   25:52.869   559033,),0,0,2
   25:53.094   559114,(,0,0,0
   25:53.131   559127,p,0,0,0
   25:53.158   559137,),0,0,0
   25:53.275   559179,(,0,0,1
   25:53.336   559201,N,0,0,0
   25:53.361   559210,),0,0,1
   25:53.547   559277,(,0,0,2
   25:53.608   559299,t,0,0,0
   25:53.728   559342,),0,0,2
   25:54.042   559455,(,0,0,0
   25:54.092   559473,p,0,0,0
   25:54.186   559507,),0,0,0
   25:54.189   559508,(,0,0,1
   25:54.197   559511,N,0,0,0
   25:54.222   559520,),0,0,1
   25:54.447   559601,(,0,0,2
   25:54.697   559691,t,0,0,1
   25:55.008   559803,),0,0,2
   25:56.458   560325,(,0,0,0
   25:56.489   560336,p,0,0,0
   25:56.539   560354,),0,0,0
   25:56.683   560406,(,0,0,1
   25:56.747   560429,N,0,0,0
   25:56.769   560437,),0,0,1
   25:58.289   560984,(,0,0,0
   25:58.347   561005,p,0,0,0
   25:58.431   561035,),0,0,0
   25:58.433   561036,(,0,0,1
   25:58.467   561048,N,0,0,0
   25:58.469   561049,),0,0,1
   25:59.183   561306,(,0,0,2
   25:59.231   561323,t,0,0,0
   25:59.267   561336,),0,0,2
   25:59.817   561534,(,0,0,0
   25:59.861   561550,p,0,0,0
   25:59.969   561589,),0,0,0
   26:00.006   561602,(,0,0,1
   26:00.069   561625,N,0,0,0
   26:00.094   561634,),0,0,1
   26:00.353   561727,(,0,0,2
   26:00.608   561819,t,0,0,1
   26:00.872   561914,),0,0,2
   26:02.433   562476,(,0,0,0
   26:02.475   562491,p,0,0,0
   26:02.561   562522,),0,0,0
   26:02.583   562530,(,0,0,1
   26:02.619   562543,N,0,0,0
   26:02.619   562543,),0,0,1
   26:02.772   562598,(,0,0,2
   26:02.867   562632,t,0,0,0
   26:02.961   562666,),0,0,2
   26:03.269   562777,(,0,0,0
   26:03.336   562801,p,0,0,0
   26:03.414   562829,),0,0,0
   26:03.422   562832,(,0,0,1
   26:03.428   562834,N,0,0,0
   26:03.456   562844,),0,0,1
   26:03.619   562903,(,0,0,2
   26:03.681   562925,t,0,0,0
   26:03.753   562951,),0,0,2
   26:03.983   563034,(,0,0,0
   26:04.053   563059,p,0,0,0
   26:04.117   563082,),0,0,0
   26:04.192   563109,(,0,0,1
   26:04.242   563127,N,0,0,0
   26:04.267   563136,),0,0,1
   26:04.436   563197,(,0,0,2
   26:04.506   563222,t,0,0,0
   26:04.631   563267,),0,0,2
   26:04.906   563366,(,0,0,0
   26:04.961   563386,p,0,0,0
   26:05.033   563412,),0,0,0
   26:05.042   563415,(,0,0,1
   26:05.047   563417,N,0,0,0
   26:05.072   563426,),0,0,1
   26:05.256   563492,(,0,0,2
   26:05.314   563513,t,0,0,0
   26:05.406   563546,),0,0,2
   26:05.586   563611,(,0,0,0
   26:05.653   563635,p,0,0,0
   26:05.711   563656,),0,0,0
   26:05.783   563682,(,0,0,1
   26:05.842   563703,N,0,0,0
   26:05.867   563712,),0,0,1
   26:06.572   563966,(,0,0,2
   26:06.622   563984,t,0,0,0
   26:06.658   563997,),0,0,2
   26:07.475   564291,(,0,0,1
   26:07.481   564293,N,0,0,0
   26:07.503   564301,),0,0,1
   26:07.703   564373,(,0,0,2
   26:07.761   564394,t,0,0,0
   26:07.861   564430,),0,0,2
   26:08.044   564496,(,0,0,0
   26:08.089   564512,p,0,0,0
   26:08.117   564522,),0,0,0
   26:08.242   564567,(,0,0,1
   26:08.303   564589,N,0,0,0
   26:08.328   564598,),0,0,1
   26:09.811   565132,(,0,0,0
   26:09.856   565148,p,0,0,0
   26:09.958   565185,),0,0,0
   26:09.961   565186,(,0,0,1
   26:09.969   565189,N,0,0,0
   26:09.994   565198,),0,0,1
   26:10.194   565270,(,0,0,2
   26:10.261   565294,t,0,0,0
   26:10.367   565332,),0,0,2
   26:10.631   565427,(,0,0,0
   26:10.689   565448,p,0,0,0
   26:10.769   565477,),0,0,0
   26:10.775   565479,(,0,0,1
   26:10.781   565481,N,0,0,0
   26:10.806   565490,),0,0,1
   26:18.925   568413,(,0,0,0
   26:18.983   568434,p,0,0,0
   26:19.056   568460,),0,0,0
   26:19.078   568468,(,0,0,1
   26:19.092   568473,N,0,0,0
   26:19.117   568482,),0,0,1
   26:19.292   568545,(,0,0,2
   26:19.369   568573,t,0,0,0
   26:19.447   568601,),0,0,2
   26:19.719   568699,(,0,0,0
   26:19.769   568717,p,0,0,0
   26:19.847   568745,),0,0,0
   26:19.922   568772,(,0,0,1
   26:19.983   568794,N,0,0,0
   26:20.008   568803,),0,0,1
   26:20.183   568866,(,0,0,2
   26:20.250   568890,t,0,0,0
   26:20.328   568918,),0,0,2
   26:20.697   569051,(,0,0,0
   26:20.758   569073,p,0,0,0
   26:20.819   569095,),0,0,0
   26:20.839   569102,(,0,0,1
   26:20.853   569107,N,0,0,0
   26:20.878   569116,),0,0,1
   26:21.069   569185,(,0,0,2
   26:21.136   569209,t,0,0,0
   26:21.244   569248,),0,0,2
   26:21.569   569365,(,0,0,0
   26:21.628   569386,p,0,0,0
   26:21.697   569411,),0,0,0
   26:21.700   569412,(,0,0,1
   26:21.708   569415,N,0,0,0
   26:21.733   569424,),0,0,1
   26:21.928   569494,(,0,0,2
   26:21.997   569519,t,0,0,0
   26:22.100   569556,),0,0,2
   26:30.158   572457,(,0,0,1
   26:30.217   572478,N,0,0,0
   26:30.239   572486,),0,0,1
   26:30.403   572545,(,0,0,2
   26:30.450   572562,t,0,0,0
   26:30.586   572611,),0,0,2
   26:30.756   572672,(,0,0,0
   26:30.806   572690,p,0,0,0
   26:30.878   572716,),0,0,0
   26:30.939   572738,(,0,0,1
   26:31.031   572771,N,0,0,0
   26:31.053   572779,),0,0,1
   26:31.256   572852,(,0,0,2
   26:31.333   572880,t,0,0,0
   26:31.406   572906,),0,0,2
   26:33.436   573637,(,0,0,0
   26:33.467   573648,p,0,0,0
   26:33.539   573674,),0,0,0
   26:33.608   573699,(,0,0,1
   26:33.658   573717,N,0,0,0
   26:33.683   573726,),0,0,1
   26:33.875   573795,(,0,0,2
   26:33.944   573820,t,0,0,5
   26:34.431   573995,t,0,0,5
   26:34.522   574028,),0,0,2
   26:36.042   574575,(,0,0,0
   26:36.086   574591,p,0,0,0
   26:36.183   574626,),0,0,0
   26:36.186   574627,(,0,0,1
   26:36.197   574631,N,0,0,0
   26:36.219   574639,),0,0,1
   26:36.436   574717,(,0,0,2
   26:36.775   574839,t,0,0,1
   26:37.019   574927,),0,0,2
   26:37.797   575207,(,0,0,0
   26:37.842   575223,p,0,0,0
   26:37.958   575265,),0,0,0
   26:37.961   575266,(,0,0,1
   26:37.969   575269,N,0,0,0
   26:37.994   575278,),0,0,1
   26:38.192   575349,(,0,0,2
   26:38.253   575371,t,0,0,0
   26:38.336   575401,),0,0,2
   27:36.917   596490,(,0,0,0
   27:36.975   596511,p,0,0,0
   27:37.056   596540,),0,0,0
   27:37.078   596548,(,0,0,1
   27:37.094   596554,N,0,0,0
   27:37.119   596563,),0,0,1
   27:37.306   596630,(,0,0,2
   27:37.367   596652,t,0,0,0
   27:37.458   596685,),0,0,2
   27:37.839   596822,(,0,0,0
   27:37.897   596843,p,0,0,0
   27:37.978   596872,),0,0,0
   27:37.994   596878,(,0,0,1
   27:38.014   596885,N,0,0,0
   27:38.039   596894,),0,0,1
   27:38.214   596957,(,0,0,2
   27:38.283   596982,t,0,0,0
   27:38.381   597017,),0,0,2
   27:38.758   597153,(,0,0,0
   27:38.817   597174,p,0,0,0
   27:38.886   597199,),0,0,0
   27:38.911   597208,(,0,0,1
   27:38.925   597213,N,0,0,0
   27:38.947   597221,),0,0,1
   27:39.142   597291,(,0,0,2
   27:39.217   597318,t,0,0,0
   27:39.294   597346,),0,0,2
   27:45.606   599618,(,0,0,0
   27:45.639   599630,p,0,0,0
   27:45.725   599661,),0,0,0
   27:45.736   599665,(,0,0,1
   27:45.769   599677,N,0,0,0
   27:45.792   599685,),0,0,1
   27:45.972   599750,(,0,0,2
   27:46.050   599778,t,0,0,0
   27:46.114   599801,),0,0,2
   27:46.425   599913,(,0,0,0
   27:46.461   599926,p,0,0,0
   27:46.561   599962,),0,0,0
   27:46.575   599967,(,0,0,1
   27:46.581   599969,N,0,0,0
   27:46.603   599977,),0,0,1
   27:46.844   600064,(,0,0,2
   27:47.136   600169,t,0,0,1
   27:47.342   600243,),0,0,2
   27:50.453   601363,(,0,0,0
   27:50.492   601377,p,0,0,0
   27:50.522   601388,),0,0,0
   27:50.697   601451,(,0,0,1
   27:50.706   601454,N,0,0,0
   27:50.728   601462,),0,0,1
   27:50.914   601529,(,0,0,2
   27:50.967   601548,t,0,0,0
   27:51.056   601580,),0,0,2
   27:51.375   601695,(,0,0,0
   27:51.439   601718,p,0,0,0
   27:51.544   601756,),0,0,0
   27:51.550   601758,(,0,0,1
   27:51.558   601761,N,0,0,0
   27:51.575   601767,),0,0,1
   27:51.833   601860,(,0,0,2
   27:52.122   601964,t,0,0,1
   27:52.372   602054,),0,0,2
   28:16.681   610805,(,0,0,0
   28:16.728   610822,p,0,0,0
   28:16.761   610834,),0,0,0
   28:16.858   610869,(,0,0,1
   28:16.928   610894,N,0,0,0
   28:16.961   610906,),0,0,1
   28:17.156   610976,(,0,0,2
   28:17.211   610996,t,0,0,5
   28:17.683   611166,t,0,0,5
   28:17.719   611179,),0,0,2
   28:22.694   612970,(,0,0,0
   28:22.764   612995,p,0,0,0
   28:22.817   613014,),0,0,0
   28:22.894   613042,(,0,0,1
   28:22.978   613072,N,0,0,0
   28:23.011   613084,),0,0,1
   28:23.133   613128,(,0,0,2
   28:23.222   613160,t,0,0,5
   28:23.731   613343,t,0,0,5
   28:23.756   613352,),0,0,2
   28:27.236   614605,(,0,0,1
   28:27.319   614635,N,0,0,0
