Elapsedtime,sample,Type,Sub,Chan,Num
0:00.219, 79,(,0,0,0
0:00.269, 97,p,0,0,0
0:00.322,116,),0,0,0
0:00.389,140,(,0,0,1
0:00.447,161,N,0,0,0
0:00.489,176,),0,0,1
0:00.644,232,(,0,0,2
0:00.808,291,t,0,0,5
0:00.914,329,t,0,0,5
0:00.992,357,),0,0,2
0:01.217,438,(,0,0,0
0:01.269,457,p,0,0,0
0:01.319,475,),0,0,0
0:01.386,499,(,0,0,1
0:01.436,517,N,0,0,0
0:01.478,532,),0,0,1
0:01.681,605,(,0,0,2
0:01.775,639,t,0,0,5
0:01.894,682,t,0,0,5
0:01.936,697,),0,0,2
0:02.133,768,(,0,0,0
0:02.178,784,p,0,0,0
0:02.231,803,),0,0,0
0:02.317,834,(,0,0,1
0:02.358,849,N,0,0,0
0:02.403,865,),0,0,1
0:02.589,932,(,0,0,2
0:02.700,972,t,0,0,5
0:02.811,1012,t,0,0,5
0:02.869,1033,),0,0,2
0:03.125,1125,(,0,0,0
0:03.178,1144,p,0,0,0
0:03.233,1164,),0,0,0
0:03.317,1194,(,0,0,1
0:03.364,1211,N,0,0,0
0:03.408,1227,),0,0,1
0:03.561,1282,(,0,0,2
0:03.714,1337,t,0,0,5
0:03.811,1372,t,0,0,5
0:03.900,1404,),0,0,2
0:04.300,1548,(,0,0,0
0:04.347,1565,p,0,0,0
0:04.400,1584,),0,0,0
0:04.478,1612,(,0,0,1
0:04.525,1629,N,0,0,0
0:04.564,1643,),0,0,1
0:04.719,1699,(,0,0,2
0:04.825,1737,t,0,0,5
0:04.978,1792,t,0,0,5
0:05.031,1811,),0,0,2
0:05.272,1898,(,0,0,0
0:05.317,1914,p,0,0,0
0:05.367,1932,),0,0,0
0:05.450,1962,(,0,0,1
0:05.489,1976,N,0,0,0
0:05.531,1991,),0,0,1
0:05.722,2060,(,0,0,2
0:05.808,2091,t,0,0,5
0:05.939,2138,t,0,0,5
0:05.997,2159,),0,0,2
0:06.228,2242,(,0,0,0
0:06.286,2263,p,0,0,0
0:06.336,2281,),0,0,0
0:06.419,2311,(,0,0,1
0:06.464,2327,N,0,0,0
0:06.506,2342,),0,0,1
0:06.681,2405,(,0,0,2
0:06.819,2455,t,0,0,5
0:06.931,2495,t,0,0,5
0:07.008,2523,),0,0,2
0:07.281,2621,(,0,0,0
0:07.325,2637,p,0,0,0
0:07.381,2657,),0,0,0
0:07.447,2681,(,0,0,1
0:07.497,2699,N,0,0,0
0:07.539,2714,),0,0,1
0:07.719,2779,(,0,0,2
0:07.808,2811,t,0,0,5
0:07.953,2863,t,0,0,5
0:08.019,2887,),0,0,2
0:08.297,2987,(,0,0,0
0:08.344,3004,p,0,0,0
0:08.397,3023,),0,0,0
0:08.458,3045,(,0,0,1
0:08.514,3065,N,0,0,0
0:08.556,3080,),0,0,1
0:08.747,3149,(,0,0,2
0:08.844,3184,t,0,0,5
0:08.983,3234,t,0,0,5
0:09.042,3255,),0,0,2
0:09.222,3320,(,0,0,0
0:09.286,3343,p,0,0,0
0:09.331,3359,),0,0,0
0:09.419,3391,(,0,0,1
0:09.461,3406,N,0,0,0
0:09.503,3421,),0,0,1
0:09.686,3487,(,0,0,2
0:09.806,3530,t,0,0,5
0:09.917,3570,t,0,0,5
0:09.992,3597,),0,0,2
0:10.147,3653,(,0,0,0
0:10.197,3671,p,0,0,0
0:10.244,3688,),0,0,0
0:10.325,3717,(,0,0,1
0:10.381,3737,N,0,0,0
0:10.422,3752,),0,0,1
0:10.628,3826,(,0,0,2
0:10.733,3864,t,0,0,5
0:10.847,3905,t,0,0,5
0:10.911,3928,),0,0,2
0:11.186,4027,(,0,0,0
0:11.236,4045,p,0,0,0
0:11.289,4064,),0,0,0
0:11.358,4089,(,0,0,1
0:11.428,4114,N,0,0,0
0:11.469,4129,),0,0,1
0:11.653,4195,(,0,0,2
0:11.778,4240,t,0,0,5
0:11.883,4278,t,0,0,5
0:11.944,4300,),0,0,2
0:12.236,4405,(,0,0,0
0:12.283,4422,p,0,0,0
0:12.342,4443,),0,0,0
0:12.422,4472,(,0,0,1
0:12.467,4488,N,0,0,0
0:12.508,4503,),0,0,1
0:12.678,4564,(,0,0,2
0:12.778,4600,t,0,0,5
0:12.922,4652,t,0,0,5
0:12.992,4677,),0,0,2
0:13.167,4740,(,0,0,0
0:13.214,4757,p,0,0,0
0:13.267,4776,),0,0,0
0:13.356,4808,(,0,0,1
0:13.397,4823,N,0,0,0
0:13.439,4838,),0,0,1
0:13.650,4914,(,0,0,2
0:13.742,4947,t,0,0,5
0:13.867,4992,t,0,0,5
0:13.942,5019,),0,0,2
0:14.156,5096,(,0,0,0
0:14.203,5113,p,0,0,0
0:14.256,5132,),0,0,0
0:14.328,5158,(,0,0,1
0:14.386,5179,N,0,0,0
0:14.428,5194,),0,0,1
0:14.597,5255,(,0,0,2
0:14.731,5303,t,0,0,5
0:14.850,5346,t,0,0,5
0:14.906,5366,),0,0,2
0:15.097,5435,(,0,0,0
0:15.147,5453,p,0,0,0
0:15.200,5472,),0,0,0
0:15.283,5502,(,0,0,1
0:15.331,5519,N,0,0,0
0:15.372,5534,),0,0,1
0:15.558,5601,(,0,0,2
0:15.669,5641,t,0,0,5
0:15.775,5679,t,0,0,5
0:15.814,5693,),0,0,2
0:15.997,5759,(,0,0,0
0:16.050,5778,p,0,0,0
0:16.108,5799,),0,0,0
0:16.189,5828,(,0,0,1
0:16.236,5845,N,0,0,0
0:16.278,5860,),0,0,1
0:16.453,5923,(,0,0,2
0:16.575,5967,t,0,0,5
0:16.689,6008,t,0,0,5
0:16.742,6027,),0,0,2
0:16.886,6079,(,0,0,0
0:16.931,6095,p,0,0,0
0:16.981,6113,),0,0,0
0:17.061,6142,(,0,0,1
0:17.111,6160,N,0,0,0
0:17.150,6174,),0,0,1
0:17.328,6238,(,0,0,2
0:17.439,6278,t,0,0,5
0:17.547,6317,t,0,0,5
0:17.611,6340,),0,0,2
0:17.814,6413,(,0,0,0
0:17.867,6432,p,0,0,0
0:17.919,6451,),0,0,0
0:17.997,6479,(,0,0,1
0:18.047,6497,N,0,0,0
0:18.089,6512,),0,0,1
0:18.250,6570,(,0,0,2
0:18.400,6624,t,0,0,5
0:18.519,6667,t,0,0,5
0:18.581,6689,),0,0,2
0:18.822,6776,(,0,0,0
0:18.872,6794,p,0,0,0
0:18.925,6813,),0,0,0
0:18.997,6839,(,0,0,1
0:19.047,6857,N,0,0,0
0:19.086,6871,),0,0,1
0:19.261,6934,(,0,0,2
0:19.383,6978,t,0,0,5
0:19.500,7020,t,0,0,5
0:19.581,7049,),0,0,2
0:19.725,7101,(,0,0,0
0:19.769,7117,p,0,0,0
0:19.814,7133,),0,0,0
0:19.897,7163,(,0,0,1
0:19.944,7180,N,0,0,0
0:19.983,7194,),0,0,1
0:20.133,7248,(,0,0,2
0:20.275,7299,t,0,0,5
0:20.378,7336,t,0,0,5
0:20.450,7362,),0,0,2
0:20.586,7411,(,0,0,0
0:20.636,7429,p,0,0,0
0:20.689,7448,),0,0,0
0:20.767,7476,(,0,0,1
0:20.819,7495,N,0,0,0
0:20.861,7510,),0,0,1
0:21.053,7579,(,0,0,2
0:21.172,7622,t,0,0,5
0:21.281,7661,t,0,0,5
0:21.356,7688,),0,0,2
0:21.522,7748,(,0,0,0
0:21.581,7769,p,0,0,0
0:21.633,7788,),0,0,0
0:21.728,7822,(,0,0,1
0:21.767,7836,N,0,0,0
0:21.808,7851,),0,0,1
0:21.992,7917,(,0,0,2
0:22.111,7960,t,0,0,5
0:22.228,8002,t,0,0,5
0:22.289,8024,),0,0,2
0:22.500,8100,(,0,0,0
0:22.553,8119,p,0,0,0
0:22.606,8138,),0,0,0
0:22.678,8164,(,0,0,1
0:22.733,8184,N,0,0,0
0:22.775,8199,),0,0,1
0:22.933,8256,(,0,0,2
0:23.072,8306,t,0,0,5
0:23.169,8341,t,0,0,5
0:23.250,8370,),0,0,2
0:23.444,8440,(,0,0,0
0:23.489,8456,p,0,0,0
0:23.536,8473,),0,0,0
0:23.622,8504,(,0,0,1
0:23.658,8517,N,0,0,0
0:23.700,8532,),0,0,1
0:23.864,8591,(,0,0,2
0:23.986,8635,t,0,0,5
0:24.114,8681,t,0,0,5
0:24.186,8707,),0,0,2
0:24.308,8751,(,0,0,0
0:24.358,8769,p,0,0,0
0:24.408,8787,),0,0,0
0:24.472,8810,(,0,0,1
0:24.528,8830,N,0,0,0
0:24.569,8845,),0,0,1
0:24.767,8916,(,0,0,2
0:24.867,8952,t,0,0,5
0:24.989,8996,t,0,0,5
0:25.058,9021,),0,0,2
0:25.231,9083,(,0,0,0
0:25.275,9099,p,0,0,0
0:25.325,9117,),0,0,0
0:25.403,9145,(,0,0,1
0:25.456,9164,N,0,0,0
0:25.494,9178,),0,0,1
0:25.700,9252,(,0,0,2
0:25.817,9294,t,0,0,5
0:25.936,9337,t,0,0,5
0:26.008,9363,),0,0,2
0:26.161,9418,(,0,0,0
0:26.206,9434,p,0,0,0
0:26.261,9454,),0,0,0
0:26.333,9480,(,0,0,1
0:26.383,9498,N,0,0,0
0:26.425,9513,),0,0,1
0:26.578,9568,(,0,0,2
0:26.725,9621,t,0,0,5
0:26.836,9661,t,0,0,5
0:26.908,9687,),0,0,2
0:27.108,9759,(,0,0,0
0:27.156,9776,p,0,0,0
0:27.208,9795,),0,0,0
0:27.278,9820,(,0,0,1
0:27.336,9841,N,0,0,0
0:27.378,9856,),0,0,1
0:27.533,9912,(,0,0,2
0:27.628,9946,t,0,0,5
0:27.772,9998,t,0,0,5
0:27.831,10019,),0,0,2
0:27.981,10073,(,0,0,0
0:28.031,10091,p,0,0,0
0:28.081,10109,),0,0,0
0:28.172,10142,(,0,0,1
0:28.217,10158,N,0,0,0
0:28.258,10173,),0,0,1
0:28.436,10237,(,0,0,2
0:28.558,10281,t,0,0,5
0:28.678,10324,t,0,0,5
0:28.750,10350,),0,0,2
0:28.914,10409,(,0,0,0
0:28.967,10428,p,0,0,0
0:29.014,10445,),0,0,0
0:29.103,10477,(,0,0,1
0:29.142,10491,N,0,0,0
0:29.183,10506,),0,0,1
0:29.347,10565,(,0,0,2
0:29.478,10612,t,0,0,5
0:29.586,10651,t,0,0,5
0:29.675,10683,),0,0,2
0:29.858,10749,(,0,0,0
0:29.906,10766,p,0,0,0
0:29.958,10785,),0,0,0
0:30.039,10814,(,0,0,1
0:30.078,10828,N,0,0,0
0:30.119,10843,),0,0,1
0:30.272,10898,(,0,0,2
0:30.419,10951,t,0,0,5
0:30.528,10990,t,0,0,5
0:30.589,11012,),0,0,2
0:30.775,11079,(,0,0,0
0:30.822,11096,p,0,0,0
0:30.869,11113,),0,0,0
0:30.942,11139,(,0,0,1
0:30.994,11158,N,0,0,0
0:31.036,11173,),0,0,1
0:31.239,11246,(,0,0,2
0:31.333,11280,t,0,0,5
0:31.447,11321,t,0,0,5
0:31.528,11350,),0,0,2
0:31.647,11393,(,0,0,0
0:31.697,11411,p,0,0,0
0:31.744,11428,),0,0,0
0:31.808,11451,(,0,0,1
0:31.869,11473,N,0,0,0
0:31.911,11488,),0,0,1
0:32.078,11548,(,0,0,2
0:32.217,11598,t,0,0,5
0:32.339,11642,t,0,0,5
0:32.392,11661,),0,0,2
0:32.522,11708,(,0,0,0
0:32.567,11724,p,0,0,0
0:32.622,11744,),0,0,0
0:32.681,11765,(,0,0,1
0:32.750,11790,N,0,0,0
0:32.792,11805,),0,0,1
0:32.975,11871,(,0,0,2
0:33.094,11914,t,0,0,5
0:33.208,11955,t,0,0,5
0:33.275,11979,),0,0,2
0:33.425,12033,(,0,0,0
0:33.472,12050,p,0,0,0
0:33.522,12068,),0,0,0
0:33.600,12096,(,0,0,1
0:33.644,12112,N,0,0,0
0:33.686,12127,),0,0,1
0:33.869,12193,(,0,0,2
0:33.994,12238,t,0,0,5
0:34.106,12278,t,0,0,5
0:34.153,12295,),0,0,2
0:34.303,12349,(,0,0,0
0:34.347,12365,p,0,0,0
0:34.400,12384,),0,0,0
0:34.475,12411,(,0,0,1
0:34.522,12428,N,0,0,0
0:34.564,12443,),0,0,1
0:34.747,12509,(,0,0,2
0:34.858,12549,t,0,0,5
0:34.972,12590,t,0,0,5
0:35.033,12612,),0,0,2
0:35.142,12651,(,0,0,0
0:35.192,12669,p,0,0,0
0:35.244,12688,),0,0,0
0:35.317,12714,(,0,0,1
0:35.375,12735,N,0,0,0
0:35.419,12751,),0,0,1
0:35.581,12809,(,0,0,2
0:35.722,12860,t,0,0,5
0:35.842,12903,t,0,0,5
0:35.917,12930,),0,0,2
0:36.122,13004,(,0,0,0
0:36.172,13022,p,0,0,0
0:36.228,13042,),0,0,0
0:36.311,13072,(,0,0,1
0:36.353,13087,N,0,0,0
0:36.394,13102,),0,0,1
0:36.567,13164,(,0,0,2
0:36.697,13211,t,0,0,5
0:36.819,13255,t,0,0,5
0:36.889,13280,),0,0,2
0:37.067,13344,(,0,0,0
0:37.114,13361,p,0,0,0
0:37.161,13378,),0,0,0
0:37.239,13406,(,0,0,1
0:37.283,13422,N,0,0,0
0:37.325,13437,),0,0,1
0:37.517,13506,(,0,0,2
0:37.622,13544,t,0,0,5
0:37.744,13588,t,0,0,5
0:37.797,13607,),0,0,2
0:37.919,13651,(,0,0,0
0:37.969,13669,p,0,0,0
0:38.025,13689,),0,0,0
0:38.103,13717,(,0,0,1
0:38.150,13734,N,0,0,0
0:38.192,13749,),0,0,1
0:38.372,13814,(,0,0,2
0:38.489,13856,t,0,0,5
0:38.614,13901,t,0,0,5
0:38.689,13928,),0,0,2
0:38.900,14004,(,0,0,0
0:38.953,14023,p,0,0,0
0:39.003,14041,),0,0,0
0:39.081,14069,(,0,0,1
0:39.133,14088,N,0,0,0
0:39.175,14103,),0,0,1
0:39.322,14156,(,0,0,2
0:39.492,14217,t,0,0,5
0:39.611,14260,t,0,0,5
0:39.681,14285,),0,0,2
0:39.958,14385,(,0,0,0
0:40.008,14403,p,0,0,0
0:40.064,14423,),0,0,0
0:40.147,14453,(,0,0,1
0:40.194,14470,N,0,0,0
0:40.236,14485,),0,0,1
0:40.386,14539,(,0,0,2
0:40.544,14596,t,0,0,5
0:40.653,14635,t,0,0,5
0:40.728,14662,),0,0,2
0:40.908,14727,(,0,0,0
0:40.953,14743,p,0,0,0
0:41.000,14760,),0,0,0
0:41.083,14790,(,0,0,1
0:41.133,14808,N,0,0,0
0:41.175,14823,),0,0,1
0:41.383,14898,(,0,0,2
0:41.467,14928,t,0,0,5
0:41.586,14971,t,0,0,5
0:41.653,14995,),0,0,2
0:41.967,15108,(,0,0,0
0:42.014,15125,p,0,0,0
0:42.075,15147,),0,0,0
0:42.147,15173,(,0,0,1
0:42.194,15190,N,0,0,0
0:42.236,15205,),0,0,1
0:42.383,15258,(,0,0,2
0:42.547,15317,t,0,0,5
0:42.656,15356,t,0,0,5
0:42.728,15382,),0,0,2
0:43.103,15517,(,0,0,0
0:43.150,15534,p,0,0,0
0:43.206,15554,),0,0,0
0:43.283,15582,(,0,0,1
0:43.333,15600,N,0,0,0
0:43.375,15615,),0,0,1
0:43.550,15678,(,0,0,2
0:43.681,15725,t,0,0,5
0:43.781,15761,t,0,0,5
0:43.844,15784,),0,0,2
0:44.117,15882,(,0,0,0
0:44.169,15901,p,0,0,0
0:44.219,15919,),0,0,0
0:44.286,15943,(,0,0,1
0:44.344,15964,N,0,0,0
0:44.386,15979,),0,0,1
0:44.581,16049,(,0,0,2
0:44.642,16071,t,0,0,5
0:44.786,16123,t,0,0,5
0:44.844,16144,),0,0,2
0:45.111,16240,(,0,0,0
0:45.158,16257,p,0,0,0
0:45.208,16275,),0,0,0
0:45.281,16301,(,0,0,1
0:45.325,16317,N,0,0,0
0:45.369,16333,),0,0,1
0:45.575,16407,(,0,0,2
0:45.681,16445,t,0,0,5
0:45.794,16486,t,0,0,5
0:45.861,16510,),0,0,2
0:46.150,16614,(,0,0,0
0:46.200,16632,p,0,0,0
0:46.247,16649,),0,0,0
0:46.322,16676,(,0,0,1
0:46.375,16695,N,0,0,0
0:46.417,16710,),0,0,1
0:47.183,16986,(,0,0,0
0:47.233,17004,p,0,0,0
0:47.286,17023,),0,0,0
0:47.358,17049,(,0,0,1
0:47.419,17071,N,0,0,0
0:47.461,17086,),0,0,1
0:47.656,17156,(,0,0,2
0:47.722,17180,t,0,0,5
0:47.883,17238,t,0,0,5
0:47.936,17257,),0,0,2
0:48.167,17340,(,0,0,0
0:48.222,17360,p,0,0,0
0:48.275,17379,),0,0,0
0:48.356,17408,(,0,0,1
0:48.403,17425,N,0,0,0
0:48.447,17441,),0,0,1
0:48.611,17500,(,0,0,2
0:48.750,17550,t,0,0,5
0:48.858,17589,t,0,0,5
0:48.911,17608,),0,0,2
0:49.175,17703,(,0,0,0
0:49.225,17721,p,0,0,0
0:49.278,17740,),0,0,0
0:49.356,17768,(,0,0,1
0:49.408,17787,N,0,0,0
0:49.450,17802,),0,0,1
0:49.639,17870,(,0,0,2
0:49.767,17916,t,0,0,5
0:49.875,17955,t,0,0,5
0:49.944,17980,),0,0,2
0:50.203,18073,(,0,0,0
0:50.258,18093,p,0,0,0
0:50.314,18113,),0,0,0
0:50.392,18141,(,0,0,1
0:50.450,18162,N,0,0,0
0:50.494,18178,),0,0,1
0:50.711,18256,(,0,0,2
0:50.772,18278,t,0,0,5
0:50.911,18328,t,0,0,5
0:50.978,18352,),0,0,2
0:51.200,18432,(,0,0,0
0:51.258,18453,p,0,0,0
0:51.311,18472,),0,0,0
0:51.394,18502,(,0,0,1
0:51.439,18518,N,0,0,0
0:51.481,18533,),0,0,1
0:51.661,18598,(,0,0,2
0:51.744,18628,t,0,0,5
0:51.864,18671,t,0,0,5
0:51.933,18696,),0,0,2
0:52.181,18785,(,0,0,0
0:52.228,18802,p,0,0,0
0:52.286,18823,),0,0,0
0:52.358,18849,(,0,0,1
0:52.400,18864,N,0,0,0
0:52.442,18879,),0,0,1
0:52.611,18940,(,0,0,2
0:52.744,18988,t,0,0,5
0:52.861,19030,t,0,0,5
0:52.939,19058,),0,0,2
0:53.161,19138,(,0,0,0
0:53.208,19155,p,0,0,0
0:53.261,19174,),0,0,0
0:53.328,19198,(,0,0,1
0:53.378,19216,N,0,0,0
0:53.419,19231,),0,0,1
0:53.619,19303,(,0,0,2
0:53.739,19346,t,0,0,5
0:53.850,19386,t,0,0,5
0:53.933,19416,),0,0,2
0:54.128,19486,(,0,0,0
0:54.172,19502,p,0,0,0
0:54.222,19520,),0,0,0
0:54.297,19547,(,0,0,1
0:54.353,19567,N,0,0,0
0:54.397,19583,),0,0,1
0:54.586,19651,(,0,0,2
0:54.678,19684,t,0,0,5
0:54.825,19737,t,0,0,5
0:54.883,19758,),0,0,2
0:55.006,19802,(,0,0,0
0:55.053,19819,p,0,0,0
0:55.103,19837,),0,0,0
0:55.167,19860,(,0,0,1
0:55.228,19882,N,0,0,0
0:55.269,19897,),0,0,1
0:55.453,19963,(,0,0,2
0:55.556,20000,t,0,0,5
0:55.692,20049,t,0,0,5
0:55.750,20070,),0,0,2
0:55.897,20123,(,0,0,0
0:55.944,20140,p,0,0,0
0:55.994,20158,),0,0,0
0:56.061,20182,(,0,0,1
0:56.117,20202,N,0,0,0
0:56.161,20218,),0,0,1
0:56.328,20278,(,0,0,2
0:56.450,20322,t,0,0,5
0:56.586,20371,t,0,0,5
0:56.639,20390,),0,0,2
0:56.814,20453,(,0,0,0
0:56.869,20473,p,0,0,0
0:56.919,20491,),0,0,0
0:56.994,20518,(,0,0,1
0:57.050,20538,N,0,0,0
0:57.094,20554,),0,0,1
0:57.267,20616,(,0,0,2
0:57.411,20668,t,0,0,5
0:57.522,20708,t,0,0,5
0:57.578,20728,),0,0,2
0:57.758,20793,(,0,0,0
0:57.806,20810,p,0,0,0
0:57.858,20829,),0,0,0
0:57.928,20854,(,0,0,1
0:57.986,20875,N,0,0,0
0:58.028,20890,),0,0,1
0:58.200,20952,(,0,0,2
0:58.322,20996,t,0,0,5
0:58.431,21035,t,0,0,5
0:58.503,21061,),0,0,2
0:58.597,21095,(,0,0,0
0:58.642,21111,p,0,0,0
0:58.694,21130,),0,0,0
0:58.764,21155,(,0,0,1
0:58.817,21174,N,0,0,0
0:58.856,21188,),0,0,1
0:59.039,21254,(,0,0,2
0:59.144,21292,t,0,0,5
0:59.261,21334,t,0,0,5
0:59.322,21356,),0,0,2
0:59.467,21408,(,0,0,0
0:59.511,21424,p,0,0,0
0:59.564,21443,),0,0,0
0:59.631,21467,(,0,0,1
0:59.689,21488,N,0,0,0
0:59.731,21503,),0,0,1
0:59.933,21576,(,0,0,2
1:00.042,21615,t,0,0,5
1:00.167,21660,t,0,0,5
1:00.231,21683,),0,0,2
1:00.411,21748,(,0,0,0
1:00.461,21766,p,0,0,0
1:00.508,21783,),0,0,0
1:00.594,21814,(,0,0,1
1:00.644,21832,N,0,0,0
1:00.686,21847,),0,0,1
1:00.861,21910,(,0,0,2
1:01.006,21962,t,0,0,5
1:01.111,22000,t,0,0,5
1:01.183,22026,),0,0,2
1:01.336,22081,(,0,0,0
1:01.386,22099,p,0,0,0
1:01.442,22119,),0,0,0
1:01.533,22152,(,0,0,1
1:01.578,22168,N,0,0,0
1:01.622,22184,),0,0,1
1:01.825,22257,(,0,0,2
1:01.914,22289,t,0,0,5
1:02.050,22338,t,0,0,5
1:02.114,22361,),0,0,2
1:02.317,22434,(,0,0,0
1:02.375,22455,p,0,0,0
1:02.425,22473,),0,0,0
1:02.497,22499,(,0,0,1
1:02.550,22518,N,0,0,0
1:02.594,22534,),0,0,1
1:02.772,22598,(,0,0,2
1:02.903,22645,t,0,0,5
1:03.028,22690,t,0,0,5
1:03.086,22711,),0,0,2
1:03.325,22797,(,0,0,0
1:03.375,22815,p,0,0,0
1:03.425,22833,),0,0,0
1:03.503,22861,(,0,0,1
1:03.550,22878,N,0,0,0
1:03.592,22893,),0,0,1
1:03.794,22966,(,0,0,2
1:03.906,23006,t,0,0,5
1:04.011,23044,t,0,0,5
1:04.058,23061,),0,0,2
1:04.261,23134,(,0,0,0
1:04.311,23152,p,0,0,0
1:04.356,23168,),0,0,0
1:04.436,23197,(,0,0,1
1:04.497,23219,N,0,0,0
1:04.536,23233,),0,0,1
1:04.719,23299,(,0,0,2
1:04.828,23338,t,0,0,5
1:04.956,23384,t,0,0,5
1:04.992,23397,),0,0,2
1:05.164,23459,(,0,0,0
1:05.211,23476,p,0,0,0
1:05.267,23496,),0,0,0
1:05.336,23521,(,0,0,1
1:05.392,23541,N,0,0,0
1:05.436,23557,),0,0,1
1:05.606,23618,(,0,0,2
1:05.744,23668,t,0,0,5
1:05.853,23707,t,0,0,5
1:05.914,23729,),0,0,2
1:06.081,23789,(,0,0,0
1:06.131,23807,p,0,0,0
1:06.181,23825,),0,0,0
1:06.267,23856,(,0,0,1
1:06.311,23872,N,0,0,0
1:06.353,23887,),0,0,1
1:06.539,23954,(,0,0,2
1:06.650,23994,t,0,0,5
1:06.753,24031,t,0,0,5
1:06.814,24053,),0,0,2
1:07.083,24150,(,0,0,0
1:07.136,24169,p,0,0,0
1:07.192,24189,),0,0,0
1:07.269,24217,(,0,0,1
1:07.322,24236,N,0,0,0
1:07.364,24251,),0,0,1
1:07.550,24318,(,0,0,2
1:07.625,24345,t,0,0,5
1:07.769,24397,t,0,0,5
1:07.825,24417,),0,0,2
1:08.000,24480,(,0,0,0
1:08.053,24499,p,0,0,0
1:08.103,24517,),0,0,0
1:08.175,24543,(,0,0,1
1:08.236,24565,N,0,0,0
1:08.278,24580,),0,0,1
1:08.453,24643,(,0,0,2
1:08.547,24677,t,0,0,5
1:08.686,24727,t,0,0,5
1:08.761,24754,),0,0,2
1:08.981,24833,(,0,0,0
1:09.031,24851,p,0,0,0
1:09.081,24869,),0,0,0
1:09.169,24901,(,0,0,1
1:09.211,24916,N,0,0,0
1:09.253,24931,),0,0,1
1:09.408,24987,(,0,0,2
1:09.550,25038,t,0,0,5
1:09.658,25077,t,0,0,5
1:09.714,25097,),0,0,2
1:10.014,25205,(,0,0,0
1:10.061,25222,p,0,0,0
1:10.114,25241,),0,0,0
1:10.178,25264,(,0,0,1
1:10.236,25285,N,0,0,0
1:10.278,25300,),0,0,1
1:10.469,25369,(,0,0,2
1:10.575,25407,t,0,0,5
1:10.672,25442,t,0,0,5
1:10.731,25463,),0,0,2
1:11.042,25575,(,0,0,0
1:11.086,25591,p,0,0,0
1:11.144,25612,),0,0,0
1:11.214,25637,(,0,0,1
1:11.275,25659,N,0,0,0
1:11.317,25674,),0,0,1
1:11.481,25733,(,0,0,2
1:11.592,25773,t,0,0,5
1:11.744,25828,t,0,0,5
1:11.808,25851,),0,0,2
1:12.028,25930,(,0,0,0
1:12.072,25946,p,0,0,0
1:12.133,25968,),0,0,0
1:12.206,25994,(,0,0,1
1:12.256,26012,N,0,0,0
1:12.297,26027,),0,0,1
1:13.044,26296,(,0,0,0
1:13.094,26314,p,0,0,0
1:13.144,26332,),0,0,0
1:13.211,26356,(,0,0,1
1:13.258,26373,N,0,0,0
1:13.300,26388,),0,0,1
1:13.506,26462,(,0,0,2
1:13.617,26502,t,0,0,5
1:13.719,26539,t,0,0,5
1:13.792,26565,),0,0,2
1:14.022,26648,(,0,0,0
1:14.072,26666,p,0,0,0
1:14.136,26689,),0,0,0
1:14.211,26716,(,0,0,1
1:14.258,26733,N,0,0,0
1:14.297,26747,),0,0,1
1:14.464,26807,(,0,0,2
1:14.614,26861,t,0,0,5
1:14.711,26896,t,0,0,5
1:14.781,26921,),0,0,2
1:14.953,26983,(,0,0,0
1:15.000,27000,p,0,0,0
1:15.058,27021,),0,0,0
1:15.144,27052,(,0,0,1
1:15.192,27069,N,0,0,0
1:15.233,27084,),0,0,1
1:15.450,27162,(,0,0,2
1:15.522,27188,t,0,0,5
1:15.639,27230,t,0,0,5
1:15.700,27252,),0,0,2
1:15.828,27298,(,0,0,0
1:15.881,27317,p,0,0,0
1:15.933,27336,),0,0,0
1:16.011,27364,(,0,0,1
1:16.064,27383,N,0,0,0
1:16.106,27398,),0,0,1
1:16.278,27460,(,0,0,2
1:16.400,27504,t,0,0,5
1:16.517,27546,t,0,0,5
1:16.586,27571,),0,0,2
1:16.742,27627,(,0,0,0
1:16.786,27643,p,0,0,0
1:16.839,27662,),0,0,0
1:16.917,27690,(,0,0,1
1:16.967,27708,N,0,0,0
1:17.008,27723,),0,0,1
1:17.172,27782,(,0,0,2
1:17.303,27829,t,0,0,5
1:17.411,27868,t,0,0,5
1:17.489,27896,),0,0,2
1:17.642,27951,(,0,0,0
1:17.694,27970,p,0,0,0
1:17.747,27989,),0,0,0
1:17.819,28015,(,0,0,1
1:17.875,28035,N,0,0,0
1:17.919,28051,),0,0,1
1:18.083,28110,(,0,0,2
1:18.228,28162,t,0,0,5
1:18.344,28204,t,0,0,5
1:18.414,28229,),0,0,2
1:18.528,28270,(,0,0,0
1:18.572,28286,p,0,0,0
1:18.625,28305,),0,0,0
1:18.714,28337,(,0,0,1
1:18.761,28354,N,0,0,0
1:18.803,28369,),0,0,1
1:19.031,28451,(,0,0,2
1:19.097,28475,t,0,0,5
1:19.219,28519,t,0,0,5
1:19.289,28544,),0,0,2
1:19.400,28584,(,0,0,0
1:19.447,28601,p,0,0,0
1:19.497,28619,),0,0,0
1:19.581,28649,(,0,0,1
1:19.622,28664,N,0,0,0
1:19.664,28679,),0,0,1
1:19.847,28745,(,0,0,2
1:19.967,28788,t,0,0,5
1:20.081,28829,t,0,0,5
1:20.156,28856,),0,0,2
1:20.292,28905,(,0,0,0
1:20.342,28923,p,0,0,0
1:20.392,28941,),0,0,0
1:20.456,28964,(,0,0,1
1:20.517,28986,N,0,0,0
1:20.561,29002,),0,0,1
1:20.758,29073,(,0,0,2
1:20.858,29109,t,0,0,5
1:20.981,29153,t,0,0,5
1:21.028,29170,),0,0,2
1:21.300,29268,(,0,0,0
1:21.344,29284,p,0,0,0
1:21.406,29306,),0,0,0
1:21.486,29335,(,0,0,1
1:21.533,29352,N,0,0,0
1:21.578,29368,),0,0,1
1:21.764,29435,(,0,0,2
1:21.833,29460,t,0,0,5
1:21.986,29515,t,0,0,5
1:22.031,29531,),0,0,2
1:22.189,29588,(,0,0,0
1:22.236,29605,p,0,0,0
1:22.289,29624,),0,0,0
1:22.356,29648,(,0,0,1
1:22.422,29672,N,0,0,0
1:22.464,29687,),0,0,1
1:22.656,29756,(,0,0,2
1:22.736,29785,t,0,0,5
1:22.867,29832,t,0,0,5
1:22.931,29855,),0,0,2
1:23.100,29916,(,0,0,0
1:23.156,29936,p,0,0,0
1:23.211,29956,),0,0,0
1:23.289,29984,(,0,0,1
1:23.339,30002,N,0,0,0
1:23.383,30018,),0,0,1
1:23.550,30078,(,0,0,2
1:23.672,30122,t,0,0,5
1:23.789,30164,t,0,0,5
1:23.847,30185,),0,0,2
1:24.081,30269,(,0,0,0
1:24.131,30287,p,0,0,0
1:24.183,30306,),0,0,0
1:24.258,30333,(,0,0,1
1:24.314,30353,N,0,0,0
1:24.356,30368,),0,0,1
1:24.550,30438,(,0,0,2
1:24.661,30478,t,0,0,5
1:24.775,30519,t,0,0,5
1:24.836,30541,),0,0,2
1:25.025,30609,(,0,0,0
1:25.075,30627,p,0,0,0
1:25.125,30645,),0,0,0
1:25.219,30679,(,0,0,1
1:25.261,30694,N,0,0,0
1:25.303,30709,),0,0,1
1:25.486,30775,(,0,0,2
1:25.597,30815,t,0,0,5
1:25.728,30862,t,0,0,5
1:25.794,30886,),0,0,2
1:25.953,30943,(,0,0,0
1:26.006,30962,p,0,0,0
1:26.058,30981,),0,0,0
1:26.128,31006,(,0,0,1
1:26.194,31030,N,0,0,0
1:26.236,31045,),0,0,1
1:26.392,31101,(,0,0,2
1:26.525,31149,t,0,0,5
1:26.642,31191,t,0,0,5
1:26.703,31213,),0,0,2
1:26.931,31295,(,0,0,0
1:26.986,31315,p,0,0,0
1:27.039,31334,),0,0,0
1:27.119,31363,(,0,0,1
1:27.169,31381,N,0,0,0
1:27.211,31396,),0,0,1
1:27.350,31446,(,0,0,2
1:27.500,31500,t,0,0,5
1:27.608,31539,t,0,0,5
1:27.686,31567,),0,0,2
1:28.019,31687,(,0,0,0
1:28.064,31703,p,0,0,0
1:28.125,31725,),0,0,0
1:28.192,31749,(,0,0,1
1:28.239,31766,N,0,0,0
1:28.281,31781,),0,0,1
1:28.489,31856,(,0,0,2
1:28.539,31874,t,0,0,5
1:28.697,31931,t,0,0,5
1:28.767,31956,),0,0,2
1:28.967,32028,(,0,0,0
1:29.011,32044,p,0,0,0
1:29.064,32063,),0,0,0
1:29.128,32086,(,0,0,1
1:29.189,32108,N,0,0,0
1:29.231,32123,),0,0,1
1:29.411,32188,(,0,0,2
1:29.511,32224,t,0,0,5
1:29.650,32274,t,0,0,5
1:29.719,32299,),0,0,2
1:29.906,32366,(,0,0,0
1:29.953,32383,p,0,0,0
1:30.006,32402,),0,0,0
1:30.092,32433,(,0,0,1
1:30.139,32450,N,0,0,0
1:30.181,32465,),0,0,1
1:30.356,32528,(,0,0,2
1:30.483,32574,t,0,0,5
1:30.603,32617,t,0,0,5
1:30.658,32637,),0,0,2
1:30.875,32715,(,0,0,0
1:30.922,32732,p,0,0,0
1:30.975,32751,),0,0,0
1:31.031,32771,(,0,0,1
1:31.103,32797,N,0,0,0
1:31.144,32812,),0,0,1
1:31.294,32866,(,0,0,2
1:31.453,32923,t,0,0,5
1:31.558,32961,t,0,0,5
1:31.611,32980,),0,0,2
1:31.853,33067,(,0,0,0
1:31.897,33083,p,0,0,0
1:31.953,33103,),0,0,0
1:32.028,33130,(,0,0,1
1:32.067,33144,N,0,0,0
1:32.108,33159,),0,0,1
1:32.289,33224,(,0,0,2
1:32.378,33256,t,0,0,5
1:32.531,33311,t,0,0,5
1:32.594,33334,),0,0,2
1:32.742,33387,(,0,0,0
1:32.789,33404,p,0,0,0
1:32.842,33423,),0,0,0
1:32.922,33452,(,0,0,1
1:32.975,33471,N,0,0,0
1:33.017,33486,),0,0,1
1:33.172,33542,(,0,0,2
1:33.311,33592,t,0,0,5
1:33.433,33636,t,0,0,5
1:33.506,33662,),0,0,2
1:33.694,33730,(,0,0,0
1:33.742,33747,p,0,0,0
1:33.792,33765,),0,0,0
1:33.861,33790,(,0,0,1
1:33.917,33810,N,0,0,0
1:33.958,33825,),0,0,1
1:34.128,33886,(,0,0,2
1:34.272,33938,t,0,0,5
1:34.386,33979,t,0,0,5
1:34.447,34001,),0,0,2
1:34.658,34077,(,0,0,0
1:34.703,34093,p,0,0,0
1:34.756,34112,),0,0,0
1:34.833,34140,(,0,0,1
1:34.889,34160,N,0,0,0
1:34.933,34176,),0,0,1
1:35.156,34256,(,0,0,2
1:35.253,34291,t,0,0,5
1:35.358,34329,t,0,0,5
1:35.406,34346,),0,0,2
1:35.622,34424,(,0,0,0
1:35.669,34441,p,0,0,0
1:35.722,34460,),0,0,0
1:35.803,34489,(,0,0,1
1:35.861,34510,N,0,0,0
1:35.903,34525,),0,0,1
1:36.064,34583,(,0,0,2
1:36.175,34623,t,0,0,5
1:36.300,34668,t,0,0,5
1:36.358,34689,),0,0,2
1:36.500,34740,(,0,0,0
1:36.553,34759,p,0,0,0
1:36.611,34780,),0,0,0
1:36.694,34810,(,0,0,1
1:36.744,34828,N,0,0,0
1:36.786,34843,),0,0,1
1:36.964,34907,(,0,0,2
1:37.083,34950,t,0,0,5
1:37.197,34991,t,0,0,5
1:37.261,35014,),0,0,2
1:37.531,35111,(,0,0,0
1:37.583,35130,p,0,0,0
1:37.642,35151,),0,0,0
1:37.703,35173,(,0,0,1
1:37.769,35197,N,0,0,0
1:37.811,35212,),0,0,1
1:37.961,35266,(,0,0,2
1:38.108,35319,t,0,0,5
1:38.233,35364,t,0,0,5
1:38.283,35382,),0,0,2
1:38.506,35462,(,0,0,0
1:38.550,35478,p,0,0,0
1:38.600,35496,),0,0,0
1:38.669,35521,(,0,0,1
1:38.728,35542,N,0,0,0
1:38.767,35556,),0,0,1
1:38.919,35611,(,0,0,2
1:39.047,35657,t,0,0,5
1:39.175,35703,t,0,0,5
1:39.244,35728,),0,0,2
1:39.397,35783,(,0,0,0
1:39.447,35801,p,0,0,0
1:39.497,35819,),0,0,0
1:39.569,35845,(,0,0,1
1:39.628,35866,N,0,0,0
1:39.669,35881,),0,0,1
1:39.836,35941,(,0,0,2
1:39.978,35992,t,0,0,5
1:40.103,36037,t,0,0,5
1:40.169,36061,),0,0,2
1:40.406,36146,(,0,0,0
1:40.458,36165,p,0,0,0
1:40.514,36185,),0,0,0
1:40.597,36215,(,0,0,1
1:40.647,36233,N,0,0,0
1:40.689,36248,),0,0,1
1:40.844,36304,(,0,0,2
1:40.983,36354,t,0,0,5
1:41.103,36397,t,0,0,5
1:41.172,36422,),0,0,2
1:41.469,36529,(,0,0,0
1:41.522,36548,p,0,0,0
1:41.569,36565,),0,0,0
1:41.636,36589,(,0,0,1
1:41.689,36608,N,0,0,0
1:41.731,36623,),0,0,1
1:41.867,36672,(,0,0,2
1:41.969,36709,t,0,0,5
1:42.133,36768,t,0,0,5
1:42.183,36786,),0,0,2
1:42.344,36844,(,0,0,0
1:42.394,36862,p,0,0,0
1:42.442,36879,),0,0,0
1:42.528,36910,(,0,0,1
1:42.567,36924,N,0,0,0
1:42.606,36938,),0,0,1
1:42.800,37008,(,0,0,2
1:42.872,37034,t,0,0,5
1:43.014,37085,t,0,0,5
1:43.094,37114,),0,0,2
1:43.258,37173,(,0,0,0
1:43.306,37190,p,0,0,0
1:43.358,37209,),0,0,0
1:43.433,37236,(,0,0,1
1:43.475,37251,N,0,0,0
1:43.517,37266,),0,0,1
1:43.711,37336,(,0,0,2
1:43.819,37375,t,0,0,5
1:43.944,37420,t,0,0,5
1:44.017,37446,),0,0,2
1:44.300,37548,(,0,0,0
1:44.353,37567,p,0,0,0
1:44.403,37585,),0,0,0
1:44.475,37611,(,0,0,1
1:44.536,37633,N,0,0,0
1:44.581,37649,),0,0,1
1:44.764,37715,(,0,0,2
1:44.894,37762,t,0,0,5
1:45.003,37801,t,0,0,5
1:45.069,37825,),0,0,2
1:45.350,37926,(,0,0,0
1:45.400,37944,p,0,0,0
1:45.447,37961,),0,0,0
1:45.514,37985,(,0,0,1
1:45.581,38009,N,0,0,0
1:45.622,38024,),0,0,1
1:45.775,38079,(,0,0,2
1:45.886,38119,t,0,0,5
1:46.031,38171,t,0,0,5
1:46.108,38199,),0,0,2
1:46.256,38252,(,0,0,0
1:46.306,38270,p,0,0,0
1:46.361,38290,),0,0,0
1:46.433,38316,(,0,0,1
1:46.481,38333,N,0,0,0
1:46.522,38348,),0,0,1
1:46.678,38404,(,0,0,2
1:46.800,38448,t,0,0,5
1:46.944,38500,t,0,0,5
1:47.006,38522,),0,0,2
1:47.269,38617,(,0,0,0
1:47.319,38635,p,0,0,0
1:47.375,38655,),0,0,0
1:47.444,38680,(,0,0,1
1:47.503,38701,N,0,0,0
1:47.547,38717,),0,0,1
1:47.739,38786,(,0,0,2
1:47.861,38830,t,0,0,5
1:47.975,38871,t,0,0,5
1:48.039,38894,),0,0,2
1:48.369,39013,(,0,0,0
1:48.419,39031,p,0,0,0
1:48.475,39051,),0,0,0
1:48.547,39077,(,0,0,1
1:48.603,39097,N,0,0,0
1:48.644,39112,),0,0,1
1:48.839,39182,(,0,0,2
1:48.917,39210,t,0,0,5
1:49.047,39257,t,0,0,5
1:49.111,39280,),0,0,2
1:49.308,39351,(,0,0,0
1:49.358,39369,p,0,0,0
1:49.414,39389,),0,0,0
1:49.481,39413,(,0,0,1
1:49.539,39434,N,0,0,0
1:49.583,39450,),0,0,1
1:49.725,39501,(,0,0,2
1:49.839,39542,t,0,0,5
1:49.986,39595,t,0,0,5
1:50.061,39622,),0,0,2
1:50.258,39693,(,0,0,0
1:50.300,39708,p,0,0,0
1:50.350,39726,),0,0,0
1:50.417,39750,(,0,0,1
1:50.481,39773,N,0,0,0
1:50.519,39787,),0,0,1
1:50.711,39856,(,0,0,2
1:50.806,39890,t,0,0,5
1:50.922,39932,t,0,0,5
1:50.989,39956,),0,0,2
1:51.264,40055,(,0,0,0
1:51.303,40069,p,0,0,0
1:51.364,40091,),0,0,0
1:51.444,40120,(,0,0,1
1:51.486,40135,N,0,0,0
1:51.528,40150,),0,0,1
1:52.278,40420,(,0,0,0
1:52.328,40438,p,0,0,0
1:52.381,40457,),0,0,0
1:52.450,40482,(,0,0,1
1:52.503,40501,N,0,0,0
1:52.544,40516,),0,0,1
1:52.736,40585,(,0,0,2
1:52.803,40609,t,0,0,5
1:52.956,40664,t,0,0,5
1:53.017,40686,),0,0,2
1:53.172,40742,(,0,0,0
1:53.219,40759,p,0,0,0
1:53.267,40776,),0,0,0
1:53.344,40804,(,0,0,1
1:53.394,40822,N,0,0,0
1:53.436,40837,),0,0,1
1:53.611,40900,(,0,0,2
1:53.708,40935,t,0,0,5
1:53.842,40983,t,0,0,5
1:53.894,41002,),0,0,2
1:54.083,41070,(,0,0,0
1:54.139,41090,p,0,0,0
1:54.189,41108,),0,0,0
1:54.278,41140,(,0,0,1
1:54.322,41156,N,0,0,0
1:54.361,41170,),0,0,1
1:54.519,41227,(,0,0,2
1:54.669,41281,t,0,0,5
1:54.781,41321,t,0,0,5
1:54.839,41342,),0,0,2
1:55.083,41430,(,0,0,0
1:55.136,41449,p,0,0,0
1:55.189,41468,),0,0,0
1:55.256,41492,(,0,0,1
1:55.314,41513,N,0,0,0
1:55.358,41529,),0,0,1
1:55.542,41595,(,0,0,2
1:55.664,41639,t,0,0,5
1:55.781,41681,t,0,0,5
1:55.836,41701,),0,0,2
1:56.011,41764,(,0,0,0
1:56.056,41780,p,0,0,0
1:56.111,41800,),0,0,0
1:56.186,41827,(,0,0,1
1:56.231,41843,N,0,0,0
1:56.269,41857,),0,0,1
1:56.481,41933,(,0,0,2
1:56.578,41968,t,0,0,5
1:56.689,42008,t,0,0,5
1:56.753,42031,),0,0,2
1:56.850,42066,(,0,0,0
1:56.903,42085,p,0,0,0
1:56.953,42103,),0,0,0
1:57.019,42127,(,0,0,1
1:57.072,42146,N,0,0,0
1:57.111,42160,),0,0,1
1:57.308,42231,(,0,0,2
1:57.417,42270,t,0,0,5
1:57.533,42312,t,0,0,5
1:57.606,42338,),0,0,2
1:57.736,42385,(,0,0,0
1:57.781,42401,p,0,0,0
1:57.831,42419,),0,0,0
1:57.892,42441,(,0,0,1
1:57.956,42464,N,0,0,0
1:57.994,42478,),0,0,1
1:58.183,42546,(,0,0,2
1:58.300,42588,t,0,0,5
1:58.419,42631,t,0,0,5
1:58.481,42653,),0,0,2
1:58.669,42721,(,0,0,0
1:58.719,42739,p,0,0,0
1:58.781,42761,),0,0,0
1:58.853,42787,(,0,0,1
1:58.911,42808,N,0,0,0
1:58.953,42823,),0,0,1
1:59.153,42895,(,0,0,2
1:59.275,42939,t,0,0,5
1:59.383,42978,t,0,0,5
1:59.475,43011,),0,0,2
1:59.586,43051,(,0,0,0
1:59.633,43068,p,0,0,0
1:59.681,43085,),0,0,0
1:59.753,43111,(,0,0,1
1:59.814,43133,N,0,0,0
1:59.856,43148,),0,0,1
2:00.028,43210,(,0,0,2
2:00.139,43250,t,0,0,5
2:00.272,43298,t,0,0,5
2:00.336,43321,),0,0,2
2:00.475,43371,(,0,0,0
2:00.525,43389,p,0,0,0
2:00.578,43408,),0,0,0
2:00.656,43436,(,0,0,1
2:00.700,43452,N,0,0,0
2:00.742,43467,),0,0,1
2:00.919,43531,(,0,0,2
2:01.036,43573,t,0,0,5
2:01.164,43619,t,0,0,5
2:01.206,43634,),0,0,2
2:01.428,43714,(,0,0,0
2:01.478,43732,p,0,0,0
2:01.531,43751,),0,0,0
2:01.625,43785,(,0,0,1
2:01.667,43800,N,0,0,0
2:01.708,43815,),0,0,1
2:01.908,43887,(,0,0,2
2:02.028,43930,t,0,0,5
2:02.150,43974,t,0,0,5
2:02.181,43985,),0,0,2
2:02.419,44071,(,0,0,0
2:02.475,44091,p,0,0,0
2:02.525,44109,),0,0,0
2:02.592,44133,(,0,0,1
2:02.653,44155,N,0,0,0
2:02.694,44170,),0,0,1
2:02.911,44248,(,0,0,2
2:02.964,44267,t,0,0,5
2:03.117,44322,t,0,0,5
2:03.172,44342,),0,0,2
2:03.325,44397,(,0,0,0
2:03.372,44414,p,0,0,0
2:03.419,44431,),0,0,0
2:03.494,44458,(,0,0,1
2:03.544,44476,N,0,0,0
2:03.586,44491,),0,0,1
2:03.750,44550,(,0,0,2
2:03.872,44594,t,0,0,5
2:03.989,44636,t,0,0,5
2:04.042,44655,),0,0,2
2:04.269,44737,(,0,0,0
2:04.317,44754,p,0,0,0
2:04.372,44774,),0,0,0
2:04.431,44795,(,0,0,1
2:04.503,44821,N,0,0,0
2:04.544,44836,),0,0,1
2:04.728,44902,(,0,0,2
2:04.861,44950,t,0,0,5
2:04.972,44990,t,0,0,5
2:05.011,45004,),0,0,2
2:05.297,45107,(,0,0,0
2:05.344,45124,p,0,0,0
2:05.397,45143,),0,0,0
2:05.461,45166,(,0,0,1
2:05.525,45189,N,0,0,0
2:05.567,45204,),0,0,1
2:05.753,45271,(,0,0,2
2:05.825,45297,t,0,0,5
2:05.983,45354,t,0,0,5
2:06.019,45367,),0,0,2
2:06.225,45441,(,0,0,0
2:06.272,45458,p,0,0,0
2:06.328,45478,),0,0,0
2:06.394,45502,(,0,0,1
2:06.453,45523,N,0,0,0
2:06.494,45538,),0,0,1
2:06.689,45608,(,0,0,2
2:06.767,45636,t,0,0,5
2:06.922,45692,t,0,0,5
2:06.969,45709,),0,0,2
2:07.158,45777,(,0,0,0
2:07.214,45797,p,0,0,0
2:07.261,45814,),0,0,0
2:07.333,45840,(,0,0,1
2:07.389,45860,N,0,0,0
2:07.431,45875,),0,0,1
2:07.586,45931,(,0,0,2
2:07.728,45982,t,0,0,5
2:07.839,46022,t,0,0,5
2:07.906,46046,),0,0,2
2:08.225,46161,(,0,0,0
2:08.272,46178,p,0,0,0
2:08.331,46199,),0,0,0
2:08.397,46223,(,0,0,1
2:08.456,46244,N,0,0,0
2:08.497,46259,),0,0,1
2:08.653,46315,(,0,0,2
2:08.781,46361,t,0,0,5
2:08.933,46416,t,0,0,5
2:08.983,46434,),0,0,2
2:09.231,46523,(,0,0,0
2:09.278,46540,p,0,0,0
2:09.333,46560,),0,0,0
2:09.406,46586,(,0,0,1
2:09.464,46607,N,0,0,0
2:09.508,46623,),0,0,1
2:09.667,46680,(,0,0,2
2:09.778,46720,t,0,0,5
2:09.917,46770,t,0,0,5
2:09.967,46788,),0,0,2
2:10.114,46841,(,0,0,0
2:10.164,46859,p,0,0,0
2:10.214,46877,),0,0,0
2:10.294,46906,(,0,0,1
2:10.344,46924,N,0,0,0
2:10.383,46938,),0,0,1
2:10.519,46987,(,0,0,2
2:10.664,47039,t,0,0,5
2:10.772,47078,t,0,0,5
2:10.847,47105,),0,0,2
2:10.975,47151,(,0,0,0
2:11.022,47168,p,0,0,0
2:11.072,47186,),0,0,0
2:11.164,47219,(,0,0,1
2:11.208,47235,N,0,0,0
2:11.250,47250,),0,0,1
2:11.417,47310,(,0,0,2
2:11.542,47355,t,0,0,5
2:11.664,47399,t,0,0,5
2:11.717,47418,),0,0,2
2:11.894,47482,(,0,0,0
2:11.942,47499,p,0,0,0
2:11.994,47518,),0,0,0
2:12.069,47545,(,0,0,1
2:12.125,47565,N,0,0,0
2:12.164,47579,),0,0,1
2:12.331,47639,(,0,0,2
2:12.467,47688,t,0,0,5
2:12.569,47725,t,0,0,5
2:12.644,47752,),0,0,2
2:12.758,47793,(,0,0,0
2:12.806,47810,p,0,0,0
2:12.861,47830,),0,0,0
2:12.936,47857,(,0,0,1
2:12.989,47876,N,0,0,0
2:13.033,47892,),0,0,1
2:13.203,47953,(,0,0,2
2:13.319,47995,t,0,0,5
2:13.444,48040,t,0,0,5
2:13.486,48055,),0,0,2
2:13.633,48108,(,0,0,0
2:13.678,48124,p,0,0,0
2:13.731,48143,),0,0,0
2:13.806,48170,(,0,0,1
2:13.864,48191,N,0,0,0
2:13.906,48206,),0,0,1
2:14.094,48274,(,0,0,2
2:14.200,48312,t,0,0,5
2:14.308,48351,t,0,0,5
2:14.372,48374,),0,0,2
2:14.550,48438,(,0,0,0
2:14.603,48457,p,0,0,0
2:14.656,48476,),0,0,0
2:14.733,48504,(,0,0,1
2:14.783,48522,N,0,0,0
2:14.825,48537,),0,0,1
2:15.028,48610,(,0,0,2
2:15.122,48644,t,0,0,5
2:15.236,48685,t,0,0,5
2:15.283,48702,),0,0,2
2:15.486,48775,(,0,0,0
2:15.533,48792,p,0,0,0
2:15.594,48814,),0,0,0
2:15.669,48841,(,0,0,1
2:15.722,48860,N,0,0,0
2:15.764,48875,),0,0,1
2:15.925,48933,(,0,0,2
2:16.078,48988,t,0,0,5
2:16.175,49023,t,0,0,5
2:16.242,49047,),0,0,2
2:16.400,49104,(,0,0,0
2:16.450,49122,p,0,0,0
2:16.503,49141,),0,0,0
2:16.597,49175,(,0,0,1
2:16.639,49190,N,0,0,0
2:16.681,49205,),0,0,1
2:16.858,49269,(,0,0,2
2:16.961,49306,t,0,0,5
2:17.078,49348,t,0,0,5
2:17.150,49374,),0,0,2
2:17.369,49453,(,0,0,0
2:17.422,49472,p,0,0,0
2:17.472,49490,),0,0,0
2:17.567,49524,(,0,0,1
2:17.603,49537,N,0,0,0
2:17.644,49552,),0,0,1
2:17.828,49618,(,0,0,2
2:17.933,49656,t,0,0,5
2:18.050,49698,t,0,0,5
2:18.117,49722,),0,0,2
2:18.367,49812,(,0,0,0
2:18.417,49830,p,0,0,0
2:18.469,49849,),0,0,0
2:18.542,49875,(,0,0,1
2:18.589,49892,N,0,0,0
2:18.628,49906,),0,0,1
2:18.825,49977,(,0,0,2
2:18.942,50019,t,0,0,5
2:19.044,50056,t,0,0,5
2:19.081,50069,),0,0,2
2:19.286,50143,(,0,0,0
2:19.336,50161,p,0,0,0
2:19.386,50179,),0,0,0
2:19.456,50204,(,0,0,1
2:19.508,50223,N,0,0,0
2:19.550,50238,),0,0,1
2:19.728,50302,(,0,0,2
2:19.831,50339,t,0,0,5
2:19.956,50384,t,0,0,5
2:20.022,50408,),0,0,2
2:20.175,50463,(,0,0,0
2:20.225,50481,p,0,0,0
2:20.275,50499,),0,0,0
2:20.364,50531,(,0,0,1
2:20.403,50545,N,0,0,0
2:20.444,50560,),0,0,1
2:20.631,50627,(,0,0,2
2:20.756,50672,t,0,0,5
2:20.875,50715,t,0,0,5
2:20.950,50742,),0,0,2
2:21.214,50837,(,0,0,0
2:21.258,50853,p,0,0,0
2:21.308,50871,),0,0,0
2:21.378,50896,(,0,0,1
2:21.428,50914,N,0,0,0
2:21.469,50929,),0,0,1
2:21.639,50990,(,0,0,2
2:21.789,51044,t,0,0,5
2:21.894,51082,t,0,0,5
2:21.931,51095,),0,0,2
2:22.206,51194,(,0,0,0
2:22.250,51210,p,0,0,0
2:22.303,51229,),0,0,0
2:22.375,51255,(,0,0,1
2:22.422,51272,N,0,0,0
2:22.461,51286,),0,0,1
2:22.631,51347,(,0,0,2
2:22.728,51382,t,0,0,5
2:22.869,51433,t,0,0,5
2:22.939,51458,),0,0,2
2:23.103,51517,(,0,0,0
2:23.150,51534,p,0,0,0
2:23.206,51554,),0,0,0
2:23.281,51581,(,0,0,1
2:23.333,51600,N,0,0,0
2:23.375,51615,),0,0,1
2:23.539,51674,(,0,0,2
2:23.686,51727,t,0,0,5
2:23.808,51771,t,0,0,5
2:23.883,51798,),0,0,2
2:24.069,51865,(,0,0,0
2:24.114,51881,p,0,0,0
2:24.167,51900,),0,0,0
2:24.244,51928,(,0,0,1
2:24.292,51945,N,0,0,0
2:24.333,51960,),0,0,1
2:24.542,52035,(,0,0,2
2:24.658,52077,t,0,0,5
2:24.764,52115,t,0,0,5
2:24.831,52139,),0,0,2
2:25.106,52238,(,0,0,0
2:25.150,52254,p,0,0,0
2:25.206,52274,),0,0,0
2:25.275,52299,(,0,0,1
2:25.317,52314,N,0,0,0
2:25.358,52329,),0,0,1
2:25.564,52403,(,0,0,2
2:25.633,52428,t,0,0,5
2:25.772,52478,t,0,0,5
2:25.831,52499,),0,0,2
2:25.997,52559,(,0,0,0
2:26.044,52576,p,0,0,0
2:26.094,52594,),0,0,0
2:26.178,52624,(,0,0,1
2:26.228,52642,N,0,0,0
2:26.269,52657,),0,0,1
2:26.436,52717,(,0,0,2
2:26.542,52755,t,0,0,5
2:26.669,52801,t,0,0,5
2:26.722,52820,),0,0,2
2:26.864,52871,(,0,0,0
2:26.908,52887,p,0,0,0
2:26.958,52905,),0,0,0
2:27.044,52936,(,0,0,1
2:27.089,52952,N,0,0,0
2:27.133,52968,),0,0,1
2:27.317,53034,(,0,0,2
2:27.444,53080,t,0,0,5
2:27.550,53118,t,0,0,5
2:27.617,53142,),0,0,2
2:27.778,53200,(,0,0,0
2:27.831,53219,p,0,0,0
2:27.883,53238,),0,0,0
2:27.950,53262,(,0,0,1
2:28.011,53284,N,0,0,0
2:28.056,53300,),0,0,1
2:28.242,53367,(,0,0,2
2:28.369,53413,t,0,0,5
2:28.475,53451,t,0,0,5
2:28.531,53471,),0,0,2
2:28.692,53529,(,0,0,0
2:28.739,53546,p,0,0,0
2:28.786,53563,),0,0,0
2:28.881,53597,(,0,0,1
2:28.922,53612,N,0,0,0
2:28.961,53626,),0,0,1
2:29.172,53702,(,0,0,2
2:29.264,53735,t,0,0,5
2:29.372,53774,t,0,0,5
2:29.431,53795,),0,0,2
2:29.542,53835,(,0,0,0
2:29.583,53850,p,0,0,0
2:29.631,53867,),0,0,0
2:29.714,53897,(,0,0,1
2:29.758,53913,N,0,0,0
2:29.800,53928,),0,0,1
2:29.969,53989,(,0,0,2
2:30.069,54025,t,0,0,5
2:30.217,54078,t,0,0,5
2:30.264,54095,),0,0,2
2:30.386,54139,(,0,0,0
2:30.436,54157,p,0,0,0
2:30.492,54177,),0,0,0
2:30.578,54208,(,0,0,1
2:30.619,54223,N,0,0,0
2:30.664,54239,),0,0,1
2:30.844,54304,(,0,0,2
2:30.978,54352,t,0,0,5
2:31.103,54397,t,0,0,5
2:31.172,54422,),0,0,2
2:31.317,54474,(,0,0,0
2:31.367,54492,p,0,0,0
2:31.417,54510,),0,0,0
2:31.489,54536,(,0,0,1
2:31.544,54556,N,0,0,0
2:31.589,54572,),0,0,1
2:31.786,54643,(,0,0,2
2:31.897,54683,t,0,0,5
2:32.008,54723,t,0,0,5
2:32.067,54744,),0,0,2
2:32.236,54805,(,0,0,0
2:32.289,54824,p,0,0,0
2:32.333,54840,),0,0,0
2:32.417,54870,(,0,0,1
2:32.458,54885,N,0,0,0
2:32.500,54900,),0,0,1
2:32.672,54962,(,0,0,2
2:32.803,55009,t,0,0,5
2:32.906,55046,t,0,0,5
2:32.967,55068,),0,0,2
2:33.086,55111,(,0,0,0
2:33.136,55129,p,0,0,0
2:33.186,55147,),0,0,0
2:33.256,55172,(,0,0,1
2:33.319,55195,N,0,0,0
2:33.364,55211,),0,0,1
2:33.544,55276,(,0,0,2
2:33.661,55318,t,0,0,5
2:33.772,55358,t,0,0,5
2:33.839,55382,),0,0,2
2:34.006,55442,(,0,0,0
2:34.053,55459,p,0,0,0
2:34.108,55479,),0,0,0
2:34.186,55507,(,0,0,1
2:34.239,55526,N,0,0,0
2:34.281,55541,),0,0,1
2:34.461,55606,(,0,0,2
2:34.592,55653,t,0,0,5
2:34.708,55695,t,0,0,5
2:34.772,55718,),0,0,2
2:35.111,55840,(,0,0,0
2:35.158,55857,p,0,0,0
2:35.217,55878,),0,0,0
2:35.294,55906,(,0,0,1
2:35.347,55925,N,0,0,0
2:35.392,55941,),0,0,1
2:35.614,56021,(,0,0,2
2:35.692,56049,t,0,0,5
2:35.792,56085,t,0,0,5
2:35.869,56113,),0,0,2
2:36.094,56194,(,0,0,0
2:36.147,56213,p,0,0,0
2:36.203,56233,),0,0,0
2:36.286,56263,(,0,0,1
2:36.331,56279,N,0,0,0
2:36.372,56294,),0,0,1
2:36.519,56347,(,0,0,2
2:36.631,56387,t,0,0,5
2:36.767,56436,t,0,0,5
2:36.842,56463,),0,0,2
2:37.025,56529,(,0,0,0
2:37.075,56547,p,0,0,0
2:37.125,56565,),0,0,0
2:37.217,56598,(,0,0,1
2:37.258,56613,N,0,0,0
2:37.300,56628,),0,0,1
2:37.486,56695,(,0,0,2
2:37.606,56738,t,0,0,5
2:37.719,56779,t,0,0,5
2:37.797,56807,),0,0,2
2:38.058,56901,(,0,0,0
2:38.106,56918,p,0,0,0
2:38.156,56936,),0,0,0
2:38.225,56961,(,0,0,1
2:38.286,56983,N,0,0,0
2:38.325,56997,),0,0,1
2:38.486,57055,(,0,0,2
2:38.625,57105,t,0,0,5
2:38.722,57140,t,0,0,5
2:38.800,57168,),0,0,2
2:39.025,57249,(,0,0,0
2:39.069,57265,p,0,0,0
2:39.122,57284,),0,0,0
2:39.192,57309,(,0,0,1
2:39.247,57329,N,0,0,0
2:39.289,57344,),0,0,1
2:39.419,57391,(,0,0,2
2:39.550,57438,t,0,0,5
2:39.689,57488,t,0,0,5
2:39.747,57509,),0,0,2
2:39.886,57559,(,0,0,0
2:39.928,57574,p,0,0,0
2:39.978,57592,),0,0,0
2:40.058,57621,(,0,0,1
2:40.103,57637,N,0,0,0
2:40.144,57652,),0,0,1
2:40.292,57705,(,0,0,2
2:40.442,57759,t,0,0,5
2:40.553,57799,t,0,0,5
2:40.628,57826,),0,0,2
2:40.842,57903,(,0,0,0
2:40.892,57921,p,0,0,0
2:40.942,57939,),0,0,0
2:41.017,57966,(,0,0,1
2:41.058,57981,N,0,0,0
2:41.100,57996,),0,0,1
2:41.272,58058,(,0,0,2
2:41.406,58106,t,0,0,5
2:41.517,58146,t,0,0,5
2:41.594,58174,),0,0,2
2:41.931,58295,(,0,0,0
2:41.981,58313,p,0,0,0
2:42.036,58333,),0,0,0
2:42.125,58365,(,0,0,1
2:42.167,58380,N,0,0,0
2:42.208,58395,),0,0,1
2:42.403,58465,(,0,0,2
2:42.475,58491,t,0,0,5
2:42.633,58548,t,0,0,5
2:42.708,58575,),0,0,2
2:42.900,58644,(,0,0,0
2:42.947,58661,p,0,0,0
2:42.994,58678,),0,0,0
2:43.086,58711,(,0,0,1
2:43.125,58725,N,0,0,0
2:43.167,58740,),0,0,1
2:43.361,58810,(,0,0,2
2:43.439,58838,t,0,0,5
2:43.586,58891,t,0,0,5
2:43.650,58914,),0,0,2
2:43.853,58987,(,0,0,0
2:43.900,59004,p,0,0,0
2:43.956,59024,),0,0,0
2:44.028,59050,(,0,0,1
2:44.072,59066,N,0,0,0
2:44.114,59081,),0,0,1
2:44.292,59145,(,0,0,2
2:44.411,59188,t,0,0,5
2:44.533,59232,t,0,0,5
2:44.614,59261,),0,0,2
2:44.844,59344,(,0,0,0
2:44.894,59362,p,0,0,0
2:44.953,59383,),0,0,0
2:45.028,59410,(,0,0,1
2:45.081,59429,N,0,0,0
2:45.125,59445,),0,0,1
2:45.292,59505,(,0,0,2
2:45.406,59546,t,0,0,5
2:45.553,59599,t,0,0,5
2:45.600,59616,),0,0,2
2:45.828,59698,(,0,0,0
2:45.875,59715,p,0,0,0
2:45.931,59735,),0,0,0
2:46.022,59768,(,0,0,1
2:46.058,59781,N,0,0,0
2:46.103,59797,),0,0,1
2:46.286,59863,(,0,0,2
2:46.372,59894,t,0,0,5
2:46.508,59943,t,0,0,5
2:46.572,59966,),0,0,2
2:46.697,60011,(,0,0,0
2:46.742,60027,p,0,0,0
2:46.794,60046,),0,0,0
2:46.864,60071,(,0,0,1
2:46.919,60091,N,0,0,0
2:46.961,60106,),0,0,1
2:47.147,60173,(,0,0,2
2:47.244,60208,t,0,0,5
2:47.372,60254,t,0,0,5
2:47.442,60279,),0,0,2
2:47.622,60344,(,0,0,0
2:47.672,60362,p,0,0,0
2:47.725,60381,),0,0,0
2:47.800,60408,(,0,0,1
2:47.856,60428,N,0,0,0
2:47.897,60443,),0,0,1
2:48.089,60512,(,0,0,2
2:48.189,60548,t,0,0,5
2:48.306,60590,t,0,0,5
2:48.367,60612,),0,0,2
2:48.589,60692,(,0,0,0
2:48.636,60709,p,0,0,0
2:48.692,60729,),0,0,0
2:48.772,60758,(,0,0,1
2:48.825,60777,N,0,0,0
2:48.867,60792,),0,0,1
2:49.000,60840,(,0,0,2
2:49.178,60904,t,0,0,5
2:49.286,60943,t,0,0,5
2:49.319,60955,),0,0,2
2:49.553,61039,(,0,0,0
2:49.597,61055,p,0,0,0
2:49.653,61075,),0,0,0
2:49.736,61105,(,0,0,1
2:49.789,61124,N,0,0,0
2:49.831,61139,),0,0,1
2:50.022,61208,(,0,0,2
2:50.089,61232,t,0,0,5
2:50.236,61285,t,0,0,5
2:50.283,61302,),0,0,2
2:50.433,61356,(,0,0,0
2:50.483,61374,p,0,0,0
2:50.533,61392,),0,0,0
2:50.606,61418,(,0,0,1
2:50.664,61439,N,0,0,0
2:50.706,61454,),0,0,1
2:50.861,61510,(,0,0,2
2:50.989,61556,t,0,0,5
2:51.097,61595,t,0,0,5
2:51.156,61616,),0,0,2
2:51.358,61689,(,0,0,0
2:51.411,61708,p,0,0,0
2:51.464,61727,),0,0,0
2:51.533,61752,(,0,0,1
2:51.592,61773,N,0,0,0
2:51.636,61789,),0,0,1
2:51.856,61868,(,0,0,2
2:51.933,61896,t,0,0,5
2:52.064,61943,t,0,0,5
2:52.131,61967,),0,0,2
2:52.378,62056,(,0,0,0
2:52.431,62075,p,0,0,0
2:52.489,62096,),0,0,0
2:52.572,62126,(,0,0,1
2:52.617,62142,N,0,0,0
2:52.658,62157,),0,0,1
2:52.842,62223,(,0,0,2
2:52.961,62266,t,0,0,5
2:53.064,62303,t,0,0,5
2:53.133,62328,),0,0,2
2:53.314,62393,(,0,0,0
2:53.364,62411,p,0,0,0
2:53.417,62430,),0,0,0
2:53.500,62460,(,0,0,1
2:53.542,62475,N,0,0,0
2:53.583,62490,),0,0,1
2:53.750,62550,(,0,0,2
2:53.872,62594,t,0,0,5
2:53.972,62630,t,0,0,5
2:54.039,62654,),0,0,2
2:54.164,62699,(,0,0,0
2:54.214,62717,p,0,0,0
2:54.264,62735,),0,0,0
2:54.339,62762,(,0,0,1
2:54.386,62779,N,0,0,0
2:54.425,62793,),0,0,1
2:54.603,62857,(,0,0,2
2:54.711,62896,t,0,0,5
2:54.833,62940,t,0,0,5
2:54.908,62967,),0,0,2
2:55.150,63054,(,0,0,0
2:55.194,63070,p,0,0,0
2:55.247,63089,),0,0,0
2:55.333,63120,(,0,0,1
2:55.369,63133,N,0,0,0
2:55.411,63148,),0,0,1
2:55.597,63215,(,0,0,2
2:55.733,63264,t,0,0,5
2:55.831,63299,t,0,0,5
2:55.917,63330,),0,0,2
2:56.186,63427,(,0,0,0
2:56.244,63448,p,0,0,0
2:56.297,63467,),0,0,0
2:56.372,63494,(,0,0,1
2:56.425,63513,N,0,0,0
2:56.469,63529,),0,0,1
2:56.642,63591,(,0,0,2
2:56.747,63629,t,0,0,5
2:56.900,63684,t,0,0,5
2:56.975,63711,),0,0,2
2:57.119,63763,(,0,0,0
2:57.169,63781,p,0,0,0
2:57.225,63801,),0,0,0
2:57.303,63829,(,0,0,1
2:57.347,63845,N,0,0,0
2:57.392,63861,),0,0,1
2:57.561,63922,(,0,0,2
2:57.661,63958,t,0,0,5
2:57.800,64008,t,0,0,5
2:57.858,64029,),0,0,2
2:58.075,64107,(,0,0,0
2:58.125,64125,p,0,0,0
2:58.178,64144,),0,0,0
2:58.242,64167,(,0,0,1
2:58.297,64187,N,0,0,0
2:58.342,64203,),0,0,1
2:58.536,64273,(,0,0,2
2:58.644,64312,t,0,0,5
2:58.769,64357,t,0,0,5
2:58.836,64381,),0,0,2
2:59.111,64480,(,0,0,0
2:59.164,64499,p,0,0,0
2:59.225,64521,),0,0,0
2:59.308,64551,(,0,0,1
2:59.350,64566,N,0,0,0
2:59.394,64582,),0,0,1
2:59.617,64662,(,0,0,2
2:59.678,64684,t,0,0,5
2:59.814,64733,t,0,0,5
2:59.892,64761,),0,0,2
3:00.114,64841,(,0,0,0
3:00.161,64858,p,0,0,0
3:00.214,64877,),0,0,0
3:00.308,64911,(,0,0,1
3:00.344,64924,N,0,0,0
3:00.389,64940,),0,0,1
3:00.572,65006,(,0,0,2
3:00.661,65038,t,0,0,5
3:00.797,65087,t,0,0,5
3:00.864,65111,),0,0,2
3:00.983,65154,(,0,0,0
3:01.033,65172,p,0,0,0
3:01.086,65191,),0,0,0
3:01.175,65223,(,0,0,1
3:01.217,65238,N,0,0,0
3:01.258,65253,),0,0,1
3:01.403,65305,(,0,0,2
3:01.550,65358,t,0,0,5
3:01.664,65399,t,0,0,5
3:01.722,65420,),0,0,2
3:01.847,65465,(,0,0,0
3:01.894,65482,p,0,0,0
3:01.950,65502,),0,0,0
3:02.036,65533,(,0,0,1
3:02.078,65548,N,0,0,0
3:02.119,65563,),0,0,1
3:02.311,65632,(,0,0,2
3:02.408,65667,t,0,0,5
3:02.519,65707,t,0,0,5
3:02.589,65732,),0,0,2
3:02.711,65776,(,0,0,0
3:02.761,65794,p,0,0,0
3:02.817,65814,),0,0,0
3:02.908,65847,(,0,0,1
3:02.953,65863,N,0,0,0
3:02.994,65878,),0,0,1
3:03.147,65933,(,0,0,2
3:03.300,65988,t,0,0,5
3:03.414,66029,t,0,0,5
3:03.464,66047,),0,0,2
3:03.594,66094,(,0,0,0
3:03.639,66110,p,0,0,0
3:03.694,66130,),0,0,0
3:03.775,66159,(,0,0,1
3:03.828,66178,N,0,0,0
3:03.869,66193,),0,0,1
3:04.072,66266,(,0,0,2
3:04.167,66300,t,0,0,5
3:04.275,66339,t,0,0,5
3:04.322,66356,),0,0,2
3:04.425,66393,(,0,0,0
3:04.472,66410,p,0,0,0
3:04.525,66429,),0,0,0
3:04.614,66461,(,0,0,1
3:04.656,66476,N,0,0,0
3:04.697,66491,),0,0,1
3:04.847,66545,(,0,0,2
3:04.992,66597,t,0,0,5
3:05.106,66638,t,0,0,5
3:05.181,66665,),0,0,2
3:05.311,66712,(,0,0,0
3:05.358,66729,p,0,0,0
3:05.408,66747,),0,0,0
3:05.483,66774,(,0,0,1
3:05.536,66793,N,0,0,0
3:05.578,66808,),0,0,1
3:05.753,66871,(,0,0,2
3:05.889,66920,t,0,0,5
3:06.006,66962,t,0,0,5
3:06.089,66992,),0,0,2
3:06.258,67053,(,0,0,0
3:06.308,67071,p,0,0,0
3:06.358,67089,),0,0,0
3:06.447,67121,(,0,0,1
3:06.497,67139,N,0,0,0
3:06.539,67154,),0,0,1
3:06.714,67217,(,0,0,2
3:06.850,67266,t,0,0,5
3:06.961,67306,t,0,0,5
3:07.028,67330,),0,0,2
3:07.167,67380,(,0,0,0
3:07.214,67397,p,0,0,0
3:07.264,67415,),0,0,0
3:07.350,67446,(,0,0,1
3:07.400,67464,N,0,0,0
3:07.442,67479,),0,0,1
3:07.664,67559,(,0,0,2
3:07.736,67585,t,0,0,5
3:07.856,67628,t,0,0,5
3:07.922,67652,),0,0,2
3:08.089,67712,(,0,0,0
3:08.139,67730,p,0,0,0
3:08.189,67748,),0,0,0
3:08.286,67783,(,0,0,1
3:08.333,67800,N,0,0,0
3:08.375,67815,),0,0,1
3:08.550,67878,(,0,0,2
3:08.672,67922,t,0,0,5
3:08.789,67964,t,0,0,5
3:08.858,67989,),0,0,2
3:09.314,68153,(,0,0,0
3:09.358,68169,p,0,0,0
3:09.411,68188,),0,0,0
3:09.486,68215,(,0,0,1
3:09.531,68231,N,0,0,0
3:09.572,68246,),0,0,1
3:09.744,68308,(,0,0,2
3:09.839,68342,t,0,0,5
3:09.997,68399,t,0,0,5
3:10.067,68424,),0,0,2
3:10.325,68517,(,0,0,0
3:10.381,68537,p,0,0,0
3:10.428,68554,),0,0,0
3:10.517,68586,(,0,0,1
3:10.558,68601,N,0,0,0
3:10.603,68617,),0,0,1
3:10.769,68677,(,0,0,2
3:10.878,68716,t,0,0,5
3:11.025,68769,t,0,0,5
3:11.097,68795,),0,0,2
3:11.369,68893,(,0,0,0
3:11.419,68911,p,0,0,0
3:11.469,68929,),0,0,0
3:11.550,68958,(,0,0,1
3:11.594,68974,N,0,0,0
3:11.636,68989,),0,0,1
3:11.831,69059,(,0,0,2
3:11.942,69099,t,0,0,5
3:12.056,69140,t,0,0,5
3:12.136,69169,),0,0,2
3:12.431,69275,(,0,0,0
3:12.475,69291,p,0,0,0
3:12.528,69310,),0,0,0
3:12.617,69342,(,0,0,1
3:12.653,69355,N,0,0,0
3:12.694,69370,),0,0,1
3:12.886,69439,(,0,0,2
3:13.017,69486,t,0,0,5
3:13.114,69521,t,0,0,5
3:13.197,69551,),0,0,2
3:13.475,69651,(,0,0,0
3:13.531,69671,p,0,0,0
3:13.581,69689,),0,0,0
3:13.678,69724,(,0,0,1
3:13.714,69737,N,0,0,0
3:13.758,69753,),0,0,1
3:13.958,69825,(,0,0,2
3:14.067,69864,t,0,0,5
3:14.178,69904,t,0,0,5
3:14.264,69935,),0,0,2
3:14.478,70012,(,0,0,0
3:14.522,70028,p,0,0,0
3:14.581,70049,),0,0,0
3:14.653,70075,(,0,0,1
3:14.706,70094,N,0,0,0
3:14.747,70109,),0,0,1
3:14.914,70169,(,0,0,2
3:15.042,70215,t,0,0,5
3:15.158,70257,t,0,0,5
3:15.233,70284,),0,0,2
3:15.519,70387,(,0,0,0
3:15.575,70407,p,0,0,0
3:15.628,70426,),0,0,0
3:15.692,70449,(,0,0,1
3:15.750,70470,N,0,0,0
3:15.792,70485,),0,0,1
3:15.947,70541,(,0,0,2
3:16.072,70586,t,0,0,5
3:16.206,70634,t,0,0,5
3:16.275,70659,),0,0,2
3:16.561,70762,(,0,0,0
3:16.611,70780,p,0,0,0
3:16.661,70798,),0,0,0
3:16.725,70821,(,0,0,1
3:16.778,70840,N,0,0,0
3:16.819,70855,),0,0,1
3:16.986,70915,(,0,0,2
3:17.089,70952,t,0,0,5
3:17.244,71008,t,0,0,5
3:17.319,71035,),0,0,2
3:17.531,71111,(,0,0,0
3:17.581,71129,p,0,0,0
3:17.633,71148,),0,0,0
3:17.719,71179,(,0,0,1
3:17.761,71194,N,0,0,0
3:17.803,71209,),0,0,1
3:18.011,71284,(,0,0,2
3:18.083,71310,t,0,0,5
3:18.233,71364,t,0,0,5
3:18.311,71392,),0,0,2
3:18.581,71489,(,0,0,0
3:18.631,71507,p,0,0,0
3:18.683,71526,),0,0,0
3:18.758,71553,(,0,0,1
3:18.797,71567,N,0,0,0
3:18.839,71582,),0,0,1
3:19.017,71646,(,0,0,2
3:19.133,71688,t,0,0,5
3:19.264,71735,t,0,0,5
3:19.342,71763,),0,0,2
3:19.603,71857,(,0,0,0
3:19.653,71875,p,0,0,0
3:19.706,71894,),0,0,0
3:19.786,71923,(,0,0,1
3:19.825,71937,N,0,0,0
3:19.869,71953,),0,0,1
3:20.058,72021,(,0,0,2
3:20.144,72052,t,0,0,5
3:20.286,72103,t,0,0,5
3:20.369,72133,),0,0,2
3:20.619,72223,(,0,0,0
3:20.667,72240,p,0,0,0
3:20.722,72260,),0,0,0
3:20.797,72287,(,0,0,1
3:20.850,72306,N,0,0,0
3:20.894,72322,),0,0,1
3:21.061,72382,(,0,0,2
3:21.169,72421,t,0,0,5
3:21.325,72477,t,0,0,5
3:21.381,72497,),0,0,2
3:21.597,72575,(,0,0,0
3:21.653,72595,p,0,0,0
3:21.697,72611,),0,0,0
3:21.786,72643,(,0,0,1
3:21.825,72657,N,0,0,0
3:21.869,72673,),0,0,1
3:22.025,72729,(,0,0,2
3:22.183,72786,t,0,0,5
3:22.283,72822,t,0,0,5
3:22.347,72845,),0,0,2
3:22.597,72935,(,0,0,0
3:22.642,72951,p,0,0,0
3:22.697,72971,),0,0,0
3:22.781,73001,(,0,0,1
3:22.822,73016,N,0,0,0
3:22.864,73031,),0,0,1
3:23.000,73080,(,0,0,2
3:23.119,73123,t,0,0,5
3:23.269,73177,t,0,0,5
3:23.314,73193,),0,0,2
3:23.608,73299,(,0,0,0
3:23.658,73317,p,0,0,0
3:23.708,73335,),0,0,0
3:23.794,73366,(,0,0,1
3:23.833,73380,N,0,0,0
3:23.872,73394,),0,0,1
3:24.069,73465,(,0,0,2
3:24.139,73490,t,0,0,5
3:24.286,73543,t,0,0,5
3:24.358,73569,),0,0,2
3:24.567,73644,(,0,0,0
3:24.619,73663,p,0,0,0
3:24.664,73679,),0,0,0
3:24.736,73705,(,0,0,1
3:24.792,73725,N,0,0,0
3:24.833,73740,),0,0,1
3:24.997,73799,(,0,0,2
3:25.094,73834,t,0,0,5
3:25.256,73892,t,0,0,5
3:25.311,73912,),0,0,2
3:25.550,73998,(,0,0,0
3:25.597,74015,p,0,0,0
3:25.653,74035,),0,0,0
3:25.731,74063,(,0,0,1
3:25.769,74077,N,0,0,0
3:25.811,74092,),0,0,1
3:26.000,74160,(,0,0,2
3:26.086,74191,t,0,0,5
3:26.228,74242,t,0,0,5
3:26.286,74263,),0,0,2
3:26.539,74354,(,0,0,0
3:26.589,74372,p,0,0,0
3:26.644,74392,),0,0,0
3:26.703,74413,(,0,0,1
3:26.761,74434,N,0,0,0
3:26.806,74450,),0,0,1
3:26.956,74504,(,0,0,2
3:27.067,74544,t,0,0,5
3:27.211,74596,t,0,0,5
3:27.297,74627,),0,0,2
3:27.531,74711,(,0,0,0
3:27.586,74731,p,0,0,0
3:27.644,74752,),0,0,0
3:27.731,74783,(,0,0,1
3:27.769,74797,N,0,0,0
3:27.814,74813,),0,0,1
3:27.944,74860,(,0,0,2
3:28.086,74911,t,0,0,5
3:28.239,74966,t,0,0,5
3:28.314,74993,),0,0,2
3:28.469,75049,(,0,0,0
3:28.519,75067,p,0,0,0
3:28.569,75085,),0,0,0
3:28.661,75118,(,0,0,1
3:28.700,75132,N,0,0,0
3:28.742,75147,),0,0,1
3:28.933,75216,(,0,0,2
3:29.014,75245,t,0,0,5
3:29.161,75298,t,0,0,5
3:29.217,75318,),0,0,2
3:29.419,75391,(,0,0,0
3:29.469,75409,p,0,0,0
3:29.517,75426,),0,0,0
3:29.572,75446,(,0,0,1
3:29.633,75468,N,0,0,0
3:29.675,75483,),0,0,1
3:29.864,75551,(,0,0,2
3:29.958,75585,t,0,0,5
3:30.106,75638,t,0,0,5
3:30.158,75657,),0,0,2
3:30.417,75750,(,0,0,0
3:30.458,75765,p,0,0,0
3:30.522,75788,),0,0,0
3:30.603,75817,(,0,0,1
3:30.647,75833,N,0,0,0
3:30.689,75848,),0,0,1
3:30.864,75911,(,0,0,2
3:30.961,75946,t,0,0,5
3:31.106,75998,t,0,0,5
3:31.158,76017,),0,0,2
3:31.414,76109,(,0,0,0
3:31.461,76126,p,0,0,0
3:31.522,76148,),0,0,0
3:31.597,76175,(,0,0,1
3:31.650,76194,N,0,0,0
3:31.692,76209,),0,0,1
3:31.869,76273,(,0,0,2
3:31.961,76306,t,0,0,5
3:32.119,76363,t,0,0,5
3:32.164,76379,),0,0,2
3:32.339,76442,(,0,0,0
3:32.383,76458,p,0,0,0
3:32.431,76475,),0,0,0
3:32.533,76512,(,0,0,1
3:32.572,76526,N,0,0,0
3:32.614,76541,),0,0,1
3:32.792,76605,(,0,0,2
3:32.881,76637,t,0,0,5
3:33.014,76685,t,0,0,5
3:33.086,76711,),0,0,2
3:33.289,76784,(,0,0,0
3:33.344,76804,p,0,0,0
3:33.394,76822,),0,0,0
3:33.472,76850,(,0,0,1
3:33.517,76866,N,0,0,0
3:33.558,76881,),0,0,1
3:33.728,76942,(,0,0,2
3:33.864,76991,t,0,0,5
3:33.986,77035,t,0,0,5
3:34.042,77055,),0,0,2
3:34.308,77151,(,0,0,0
3:34.356,77168,p,0,0,0
3:34.411,77188,),0,0,0
3:34.497,77219,(,0,0,1
3:34.539,77234,N,0,0,0
3:34.581,77249,),0,0,1
3:34.731,77303,(,0,0,2
3:34.853,77347,t,0,0,5
3:35.006,77402,t,0,0,5
3:35.064,77423,),0,0,2
3:35.281,77501,(,0,0,0
3:35.344,77524,p,0,0,0
3:35.397,77543,),0,0,0
3:35.475,77571,(,0,0,1
3:35.522,77588,N,0,0,0
3:35.564,77603,),0,0,1
3:35.733,77664,(,0,0,2
3:35.850,77706,t,0,0,5
3:35.983,77754,t,0,0,5
3:36.061,77782,),0,0,2
3:36.178,77824,(,0,0,0
3:36.231,77843,p,0,0,0
3:36.281,77861,),0,0,0
3:36.375,77895,(,0,0,1
3:36.417,77910,N,0,0,0
3:36.458,77925,),0,0,1
3:36.619,77983,(,0,0,2
3:36.756,78032,t,0,0,5
3:36.867,78072,t,0,0,5
3:36.919,78091,),0,0,2
3:37.081,78149,(,0,0,0
3:37.128,78166,p,0,0,0
3:37.181,78185,),0,0,0
3:37.269,78217,(,0,0,1
3:37.311,78232,N,0,0,0
3:37.356,78248,),0,0,1
3:37.506,78302,(,0,0,2
3:37.656,78356,t,0,0,5
3:37.756,78392,t,0,0,5
3:37.836,78421,),0,0,2
3:37.992,78477,(,0,0,0
3:38.047,78497,p,0,0,0
3:38.097,78515,),0,0,0
3:38.178,78544,(,0,0,1
3:38.231,78563,N,0,0,0
3:38.272,78578,),0,0,1
3:38.444,78640,(,0,0,2
3:38.564,78683,t,0,0,5
3:38.672,78722,t,0,0,5
3:38.728,78742,),0,0,2
3:38.861,78790,(,0,0,0
3:38.911,78808,p,0,0,0
3:38.961,78826,),0,0,0
3:39.047,78857,(,0,0,1
3:39.094,78874,N,0,0,0
3:39.136,78889,),0,0,1
3:39.306,78950,(,0,0,2
3:39.442,78999,t,0,0,5
3:39.547,79037,t,0,0,5
3:39.619,79063,),0,0,2
3:39.742,79107,(,0,0,0
3:39.792,79125,p,0,0,0
3:39.842,79143,),0,0,0
3:39.917,79170,(,0,0,1
3:39.975,79191,N,0,0,0
3:40.017,79206,),0,0,1
3:40.203,79273,(,0,0,2
3:40.308,79311,t,0,0,5
3:40.425,79353,t,0,0,5
3:40.494,79378,),0,0,2
3:40.614,79421,(,0,0,0
3:40.664,79439,p,0,0,0
3:40.719,79459,),0,0,0
3:40.808,79491,(,0,0,1
3:40.847,79505,N,0,0,0
3:40.892,79521,),0,0,1
3:41.083,79590,(,0,0,2
3:41.192,79629,t,0,0,5
3:41.308,79671,t,0,0,5
3:41.361,79690,),0,0,2
3:41.511,79744,(,0,0,0
3:41.561,79762,p,0,0,0
3:41.611,79780,),0,0,0
3:41.706,79814,(,0,0,1
3:41.747,79829,N,0,0,0
3:41.786,79843,),0,0,1
3:41.972,79910,(,0,0,2
3:42.100,79956,t,0,0,5
3:42.211,79996,t,0,0,5
3:42.267,80016,),0,0,2
3:42.381,80057,(,0,0,0
3:42.431,80075,p,0,0,0
3:42.481,80093,),0,0,0
3:42.578,80128,(,0,0,1
3:42.622,80144,N,0,0,0
3:42.664,80159,),0,0,1
3:42.850,80226,(,0,0,2
3:42.967,80268,t,0,0,5
3:43.075,80307,t,0,0,5
3:43.147,80333,),0,0,2
3:43.331,80399,(,0,0,0
3:43.381,80417,p,0,0,0
3:43.433,80436,),0,0,0
3:43.517,80466,(,0,0,1
3:43.572,80486,N,0,0,0
3:43.614,80501,),0,0,1
3:43.806,80570,(,0,0,2
3:43.911,80608,t,0,0,5
3:44.022,80648,t,0,0,5
3:44.086,80671,),0,0,2
3:44.328,80758,(,0,0,0
3:44.375,80775,p,0,0,0
3:44.425,80793,),0,0,0
3:44.517,80826,(,0,0,1
3:44.561,80842,N,0,0,0
3:44.603,80857,),0,0,1
3:44.781,80921,(,0,0,2
3:44.900,80964,t,0,0,0
3:44.978,80992,),0,0,2
3:45.317,81114,(,0,0,0
3:45.369,81133,p,0,0,0
3:45.417,81150,),0,0,0
3:45.506,81182,(,0,0,1
3:45.544,81196,N,0,0,0
3:45.586,81211,),0,0,1
3:45.747,81269,(,0,0,2
3:45.889,81320,t,0,0,5
3:45.994,81358,t,0,0,5
3:46.064,81383,),0,0,2
3:46.206,81434,(,0,0,0
3:46.261,81454,p,0,0,0
3:46.311,81472,),0,0,0
3:46.383,81498,(,0,0,1
3:46.433,81516,N,0,0,0
3:46.475,81531,),0,0,1
3:46.647,81593,(,0,0,2
3:46.781,81641,t,0,0,5
3:46.900,81684,t,0,0,5
3:46.969,81709,),0,0,2
3:47.142,81771,(,0,0,0
3:47.186,81787,p,0,0,0
3:47.244,81808,),0,0,0
3:47.322,81836,(,0,0,1
3:47.367,81852,N,0,0,0
3:47.408,81867,),0,0,1
3:47.617,81942,(,0,0,2
3:47.700,81972,t,0,0,5
3:47.828,82018,t,0,0,5
3:47.872,82034,),0,0,2
3:48.025,82089,(,0,0,0
3:48.075,82107,p,0,0,0
3:48.131,82127,),0,0,0
3:48.214,82157,(,0,0,1
3:48.256,82172,N,0,0,0
3:48.297,82187,),0,0,1
3:48.450,82242,(,0,0,2
3:48.594,82294,t,0,0,5
3:48.697,82331,t,0,0,5
3:48.739,82346,),0,0,2
3:48.875,82395,(,0,0,0
3:48.922,82412,p,0,0,0
3:48.975,82431,),0,0,0
3:49.056,82460,(,0,0,1
3:49.103,82477,N,0,0,0
3:49.144,82492,),0,0,1
3:49.364,82571,(,0,0,2
3:49.444,82600,t,0,0,5
3:49.556,82640,t,0,0,5
3:49.606,82658,),0,0,2
3:49.742,82707,(,0,0,0
3:49.792,82725,p,0,0,0
3:49.853,82747,),0,0,0
3:49.922,82772,(,0,0,1
3:49.981,82793,N,0,0,0
3:50.022,82808,),0,0,1
3:50.219,82879,(,0,0,2
3:50.319,82915,t,0,0,5
3:50.431,82955,t,0,0,5
3:50.508,82983,),0,0,2
3:50.625,83025,(,0,0,0
3:50.675,83043,p,0,0,0
3:50.722,83060,),0,0,0
3:50.819,83095,(,0,0,1
3:50.861,83110,N,0,0,0
3:50.903,83125,),0,0,1
3:51.081,83189,(,0,0,2
3:51.200,83232,t,0,0,5
3:51.308,83271,t,0,0,5
3:51.386,83299,),0,0,2
3:51.453,83323,(,0,0,0
3:51.497,83339,p,0,0,0
3:51.550,83358,),0,0,0
3:51.625,83385,(,0,0,1
3:51.686,83407,N,0,0,0
3:51.725,83421,),0,0,1
3:51.897,83483,(,0,0,2
3:52.011,83524,t,0,0,5
3:52.122,83564,t,0,0,5
3:52.183,83586,),0,0,2
3:52.283,83622,(,0,0,0
3:52.328,83638,p,0,0,0
3:52.381,83657,),0,0,0
3:52.478,83692,(,0,0,1
3:52.517,83706,N,0,0,0
3:52.558,83721,),0,0,1
3:52.731,83783,(,0,0,2
3:52.847,83825,t,0,0,5
3:52.961,83866,t,0,0,5
3:53.036,83893,),0,0,2
3:53.156,83936,(,0,0,0
3:53.203,83953,p,0,0,0
3:53.264,83975,),0,0,0
3:53.331,83999,(,0,0,1
3:53.394,84022,N,0,0,0
3:53.436,84037,),0,0,1
3:53.689,84128,(,0,0,2
3:53.742,84147,t,0,0,5
3:53.847,84185,t,0,0,5
3:53.919,84211,),0,0,2
3:53.997,84239,(,0,0,0
3:54.047,84257,p,0,0,0
3:54.100,84276,),0,0,0
3:54.161,84298,(,0,0,1
3:54.228,84322,N,0,0,0
3:54.272,84338,),0,0,1
3:54.447,84401,(,0,0,2
3:54.564,84443,t,0,0,5
3:54.675,84483,t,0,0,5
3:54.733,84504,),0,0,2
3:54.814,84533,(,0,0,0
3:54.858,84549,p,0,0,0
3:54.917,84570,),0,0,0
3:54.989,84596,(,0,0,1
3:55.033,84612,N,0,0,0
3:55.075,84627,),0,0,1
3:55.283,84702,(,0,0,2
3:55.372,84734,t,0,0,5
3:55.492,84777,t,0,0,5
3:55.561,84802,),0,0,2
3:55.647,84833,(,0,0,0
3:55.694,84850,p,0,0,0
3:55.744,84868,),0,0,0
3:55.819,84895,(,0,0,1
3:55.867,84912,N,0,0,0
3:55.908,84927,),0,0,1
3:56.097,84995,(,0,0,2
3:56.208,85035,t,0,0,5
3:56.344,85084,t,0,0,5
3:56.397,85103,),0,0,2
3:56.497,85139,(,0,0,0
3:56.547,85157,p,0,0,0
3:56.597,85175,),0,0,0
3:56.664,85199,(,0,0,1
3:56.733,85224,N,0,0,0
3:56.775,85239,),0,0,1
3:56.986,85315,(,0,0,2
3:57.086,85351,t,0,0,5
3:57.203,85393,t,0,0,5
3:57.272,85418,),0,0,2
3:57.367,85452,(,0,0,0
3:57.408,85467,p,0,0,0
3:57.461,85486,),0,0,0
3:57.550,85518,(,0,0,1
3:57.589,85532,N,0,0,0
3:57.631,85547,),0,0,1
3:57.836,85621,(,0,0,2
3:57.925,85653,t,0,0,5
3:58.042,85695,t,0,0,5
3:58.117,85722,),0,0,2
3:58.319,85795,(,0,0,0
3:58.367,85812,p,0,0,0
3:58.417,85830,),0,0,0
3:58.494,85858,(,0,0,1
3:58.539,85874,N,0,0,0
3:58.581,85889,),0,0,1
3:58.764,85955,(,0,0,2
3:58.881,85997,t,0,0,5
3:59.008,86043,t,0,0,5
3:59.072,86066,),0,0,2
3:59.297,86147,(,0,0,0
3:59.353,86167,p,0,0,0
3:59.411,86188,),0,0,0
3:59.500,86220,(,0,0,1
3:59.539,86234,N,0,0,0
3:59.581,86249,),0,0,1
3:59.758,86313,(,0,0,2
3:59.883,86358,t,0,0,5
3:59.997,86399,t,0,0,5
4:00.061,86422,),0,0,2
4:00.258,86493,(,0,0,0
4:00.311,86512,p,0,0,0
4:00.361,86530,),0,0,0
4:00.461,86566,(,0,0,1
4:00.497,86579,N,0,0,0
4:00.542,86595,),0,0,1
4:00.722,86660,(,0,0,2
4:00.844,86704,t,0,0,5
4:00.967,86748,t,0,0,5
4:01.047,86777,),0,0,2
4:01.306,86870,(,0,0,0
4:01.358,86889,p,0,0,0
4:01.417,86910,),0,0,0
4:01.497,86939,(,0,0,1
4:01.547,86957,N,0,0,0
4:01.589,86972,),0,0,1
4:01.792,87045,(,0,0,2
4:01.892,87081,t,0,0,5
4:02.011,87124,t,0,0,5
4:02.081,87149,),0,0,2
4:02.325,87237,(,0,0,0
4:02.372,87254,p,0,0,0
4:02.428,87274,),0,0,0
4:02.497,87299,(,0,0,1
4:02.553,87319,N,0,0,0
4:02.597,87335,),0,0,1
4:02.775,87399,(,0,0,2
4:02.886,87439,t,0,0,5
4:02.994,87478,t,0,0,5
4:03.047,87497,),0,0,2
4:03.253,87571,(,0,0,0
4:03.303,87589,p,0,0,0
4:03.350,87606,),0,0,0
4:03.433,87636,(,0,0,1
4:03.483,87654,N,0,0,0
4:03.522,87668,),0,0,1
4:03.692,87729,(,0,0,2
4:03.825,87777,t,0,0,5
4:03.931,87815,t,0,0,5
4:04.000,87840,),0,0,2
4:04.228,87922,(,0,0,0
4:04.275,87939,p,0,0,0
4:04.331,87959,),0,0,0
4:04.403,87985,(,0,0,1
4:04.458,88005,N,0,0,0
4:04.503,88021,),0,0,1
4:04.708,88095,(,0,0,2
4:04.797,88127,t,0,0,5
4:04.914,88169,t,0,0,5
4:04.975,88191,),0,0,2
4:05.139,88250,(,0,0,0
4:05.186,88267,p,0,0,0
4:05.239,88286,),0,0,0
4:05.306,88310,(,0,0,1
4:05.367,88332,N,0,0,0
4:05.406,88346,),0,0,1
4:05.617,88422,(,0,0,2
4:05.703,88453,t,0,0,5
4:05.806,88490,t,0,0,5
4:05.861,88510,),0,0,2
4:05.992,88557,(,0,0,0
4:06.039,88574,p,0,0,0
4:06.092,88593,),0,0,0
4:06.167,88620,(,0,0,1
4:06.214,88637,N,0,0,0
4:06.253,88651,),0,0,1
4:06.414,88709,(,0,0,2
4:06.539,88754,t,0,0,5
4:06.650,88794,t,0,0,5
4:06.719,88819,),0,0,2
4:06.825,88857,(,0,0,0
4:06.867,88872,p,0,0,0
4:06.922,88892,),0,0,0
4:06.997,88919,(,0,0,1
4:07.044,88936,N,0,0,0
4:07.086,88951,),0,0,1
4:07.258,89013,(,0,0,2
4:07.367,89052,t,0,0,5
4:07.472,89090,t,0,0,5
4:07.561,89122,),0,0,2
4:07.703,89173,(,0,0,0
4:07.753,89191,p,0,0,0
4:07.803,89209,),0,0,0
4:07.897,89243,(,0,0,1
4:07.936,89257,N,0,0,0
4:07.975,89271,),0,0,1
4:08.161,89338,(,0,0,2
4:08.283,89382,t,0,0,5
4:08.397,89423,t,0,0,5
4:08.475,89451,),0,0,2
4:08.697,89531,(,0,0,0
4:08.744,89548,p,0,0,0
4:08.797,89567,),0,0,0
4:08.872,89594,(,0,0,1
4:08.928,89614,N,0,0,0
4:08.969,89629,),0,0,1
4:09.164,89699,(,0,0,2
4:09.261,89734,t,0,0,5
4:09.372,89774,t,0,0,5
4:09.444,89800,),0,0,2
4:09.661,89878,(,0,0,0
4:09.711,89896,p,0,0,0
4:09.764,89915,),0,0,0
4:09.842,89943,(,0,0,1
4:09.886,89959,N,0,0,0
4:09.928,89974,),0,0,1
4:10.067,90024,(,0,0,2
4:10.189,90068,t,0,0,5
4:10.331,90119,t,0,0,5
4:10.411,90148,),0,0,2
4:10.614,90221,(,0,0,0
4:10.664,90239,p,0,0,0
4:10.717,90258,),0,0,0
4:10.806,90290,(,0,0,1
4:10.844,90304,N,0,0,0
4:10.886,90319,),0,0,1
4:11.042,90375,(,0,0,2
4:11.200,90432,t,0,0,5
4:11.314,90473,t,0,0,5
4:11.397,90503,),0,0,2
4:11.719,90619,(,0,0,0
4:11.764,90635,p,0,0,0
4:11.822,90656,),0,0,0
4:11.903,90685,(,0,0,1
4:11.942,90699,N,0,0,0
4:11.983,90714,),0,0,1
4:12.169,90781,(,0,0,2
4:12.261,90814,t,0,0,5
4:12.403,90865,t,0,0,5
4:12.486,90895,),0,0,2
4:12.839,91022,(,0,0,0
4:12.886,91039,p,0,0,0
4:12.933,91056,),0,0,0
4:13.008,91083,(,0,0,1
4:13.053,91099,N,0,0,0
4:13.094,91114,),0,0,1
4:13.269,91177,(,0,0,2
4:13.364,91211,t,0,0,5
4:13.506,91262,t,0,0,5
4:13.592,91293,),0,0,2
4:13.836,91381,(,0,0,0
4:13.886,91399,p,0,0,0
4:13.939,91418,),0,0,0
4:14.014,91445,(,0,0,1
4:14.069,91465,N,0,0,0
4:14.111,91480,),0,0,1
4:14.256,91532,(,0,0,2
4:14.372,91574,t,0,0,5
4:14.511,91624,t,0,0,5
4:14.564,91643,),0,0,2
4:14.867,91752,(,0,0,0
4:14.914,91769,p,0,0,0
4:14.972,91790,),0,0,0
4:15.047,91817,(,0,0,1
4:15.097,91835,N,0,0,0
4:15.139,91850,),0,0,1
4:15.333,91920,(,0,0,2
4:15.456,91964,t,0,0,5
4:15.561,92002,t,0,0,5
4:15.653,92035,),0,0,2
4:15.925,92133,(,0,0,0
4:15.978,92152,p,0,0,0
4:16.033,92172,),0,0,0
4:16.108,92199,(,0,0,1
4:16.153,92215,N,0,0,0
4:16.194,92230,),0,0,1
4:16.381,92297,(,0,0,2
4:16.467,92328,t,0,0,5
4:16.603,92377,t,0,0,5
4:16.689,92408,),0,0,2
4:16.922,92492,(,0,0,0
4:16.969,92509,p,0,0,0
4:17.022,92528,),0,0,0
4:17.086,92551,(,0,0,1
4:17.164,92579,N,0,0,0
4:17.194,92590,),0,0,1
4:17.344,92644,(,0,0,2
4:17.436,92677,t,0,0,5
4:17.578,92728,t,0,0,5
4:17.644,92752,),0,0,2
4:17.811,92812,(,0,0,0
4:17.864,92831,p,0,0,0
4:17.911,92848,),0,0,0
4:17.983,92874,(,0,0,1
4:18.039,92894,N,0,0,0
4:18.083,92910,),0,0,1
4:18.283,92982,(,0,0,2
4:18.369,93013,t,0,0,5
4:18.511,93064,t,0,0,5
4:18.569,93085,),0,0,2
4:18.836,93181,(,0,0,0
4:18.881,93197,p,0,0,0
4:18.933,93216,),0,0,0
4:19.011,93244,(,0,0,1
4:19.053,93259,N,0,0,0
4:19.094,93274,),0,0,1
4:19.281,93341,(,0,0,2
4:19.369,93373,t,0,0,5
4:19.517,93426,t,0,0,5
4:19.594,93454,),0,0,2
4:19.875,93555,(,0,0,0
4:19.919,93571,p,0,0,0
4:19.975,93591,),0,0,0
4:20.047,93617,(,0,0,1
4:20.089,93632,N,0,0,0
4:20.131,93647,),0,0,1
4:20.317,93714,(,0,0,2
4:20.411,93748,t,0,0,5
4:20.547,93797,t,0,0,5
4:20.625,93825,),0,0,2
4:20.800,93888,(,0,0,0
4:20.850,93906,p,0,0,0
4:20.900,93924,),0,0,0
4:20.981,93953,(,0,0,1
4:21.033,93972,N,0,0,0
4:21.078,93988,),0,0,1
4:21.228,94042,(,0,0,2
4:21.347,94085,t,0,0,5
4:21.492,94137,t,0,0,5
4:21.544,94156,),0,0,2
4:21.683,94206,(,0,0,0
4:21.733,94224,p,0,0,0
4:21.783,94242,),0,0,0
4:21.878,94276,(,0,0,1
4:21.917,94290,N,0,0,0
4:21.958,94305,),0,0,1
4:22.169,94381,(,0,0,2
4:22.264,94415,t,0,0,5
4:22.381,94457,t,0,0,5
4:22.436,94477,),0,0,2
4:22.683,94566,(,0,0,0
4:22.736,94585,p,0,0,0
4:22.794,94606,),0,0,0
4:22.853,94627,(,0,0,1
4:22.919,94651,N,0,0,0
4:22.964,94667,),0,0,1
4:23.122,94724,(,0,0,2
4:23.275,94779,t,0,0,5
4:23.406,94826,t,0,0,5
4:23.464,94847,),0,0,2
4:23.692,94929,(,0,0,0
4:23.736,94945,p,0,0,0
4:23.789,94964,),0,0,0
4:23.856,94988,(,0,0,1
4:23.919,95011,N,0,0,0
4:23.961,95026,),0,0,1
4:24.133,95088,(,0,0,2
4:24.236,95125,t,0,0,5
4:24.358,95169,t,0,0,5
4:24.425,95193,),0,0,2
4:24.578,95248,(,0,0,0
4:24.625,95265,p,0,0,0
4:24.675,95283,),0,0,0
4:24.753,95311,(,0,0,1
4:24.833,95340,N,0,0,0
4:24.847,95345,),0,0,1
4:25.017,95406,(,0,0,2
4:25.139,95450,t,0,0,5
4:25.261,95494,t,0,0,5
4:25.325,95517,),0,0,2
4:25.486,95575,(,0,0,0
4:25.542,95595,p,0,0,0
4:25.600,95616,),0,0,0
4:25.689,95648,(,0,0,1
4:25.733,95664,N,0,0,0
4:25.775,95679,),0,0,1
4:25.956,95744,(,0,0,2
4:26.078,95788,t,0,0,5
4:26.206,95834,t,0,0,5
4:26.256,95852,),0,0,2
4:26.456,95924,(,0,0,0
4:26.506,95942,p,0,0,0
4:26.561,95962,),0,0,0
4:26.647,95993,(,0,0,1
4:26.719,96019,N,0,0,0
4:26.736,96025,),0,0,1
4:26.944,96100,(,0,0,2
4:27.039,96134,t,0,0,5
4:27.147,96173,t,0,0,5
4:27.206,96194,),0,0,2
4:27.358,96249,(,0,0,0
4:27.411,96268,p,0,0,0
4:27.464,96287,),0,0,0
4:27.553,96319,(,0,0,1
4:27.617,96342,N,0,0,0
4:27.636,96349,),0,0,1
4:27.833,96420,(,0,0,2
4:27.903,96445,t,0,0,5
4:28.039,96494,t,0,0,5
4:28.103,96517,),0,0,2
4:28.203,96553,(,0,0,0
4:28.256,96572,p,0,0,0
4:28.311,96592,),0,0,0
4:28.392,96621,(,0,0,1
4:28.439,96638,N,0,0,0
4:28.481,96653,),0,0,1
4:28.653,96715,(,0,0,2
4:28.761,96754,t,0,0,5
4:28.881,96797,t,0,0,5
4:28.942,96819,),0,0,2
4:29.150,96894,(,0,0,0
4:29.206,96914,p,0,0,0
4:29.258,96933,),0,0,0
4:29.328,96958,(,0,0,1
4:29.386,96979,N,0,0,0
4:29.431,96995,),0,0,1
4:29.622,97064,(,0,0,2
4:29.733,97104,t,0,0,5
4:29.858,97149,t,0,0,5
4:29.922,97172,),0,0,2
4:30.183,97266,(,0,0,0
4:30.228,97282,p,0,0,0
4:30.289,97304,),0,0,0
4:30.358,97329,(,0,0,1
4:30.411,97348,N,0,0,0
4:30.453,97363,),0,0,1
4:30.644,97432,(,0,0,2
4:30.753,97471,t,0,0,5
4:30.844,97504,t,0,0,5
4:30.936,97537,),0,0,2
4:31.094,97594,(,0,0,0
4:31.147,97613,p,0,0,0
4:31.200,97632,),0,0,0
4:31.289,97664,(,0,0,1
4:31.328,97678,N,0,0,0
4:31.369,97693,),0,0,1
4:31.525,97749,(,0,0,2
4:31.628,97786,t,0,0,5
4:31.764,97835,t,0,0,5
4:31.819,97855,),0,0,2
4:32.094,97954,(,0,0,0
4:32.144,97972,p,0,0,0
4:32.194,97990,),0,0,0
4:32.267,98016,(,0,0,1
4:32.328,98038,N,0,0,0
4:32.369,98053,),0,0,1
4:32.581,98129,(,0,0,2
4:32.686,98167,t,0,0,5
4:32.808,98211,t,0,0,5
4:32.889,98240,),0,0,2
4:33.142,98331,(,0,0,0
4:33.186,98347,p,0,0,0
4:33.239,98366,),0,0,0
4:33.300,98388,(,0,0,1
4:33.392,98421,N,0,0,0
4:33.425,98433,),0,0,1
4:33.589,98492,(,0,0,2
4:33.711,98536,t,0,0,5
4:33.828,98578,t,0,0,5
4:33.886,98599,),0,0,2
4:34.025,98649,(,0,0,0
4:34.078,98668,p,0,0,0
4:34.122,98684,),0,0,0
4:34.194,98710,(,0,0,1
4:34.267,98736,N,0,0,0
4:34.283,98742,),0,0,1
4:34.467,98808,(,0,0,2
4:34.572,98846,t,0,0,5
4:34.689,98888,t,0,0,5
4:34.753,98911,),0,0,2
4:35.792,99285,N,0,0,0
4:35.825,99297,),0,0,1
4:36.000,99360,(,0,0,2
4:36.031,99371,t,0,0,0
4:36.061,99382,),0,0,2
4:36.917,99690,(,0,0,1
4:36.944,99700,N,0,0,0
4:36.986,99715,),0,0,1
4:37.183,99786,(,0,0,2
4:37.278,99820,t,0,0,5
4:37.419,99871,t,0,0,5
4:37.475,99891,),0,0,2
4:37.775,99999,(,0,0,1
4:37.803,100009,N,0,0,0
4:37.842,100023,),0,0,1
4:38.025,100089,(,0,0,2
4:38.136,100129,t,0,0,5
4:38.261,100174,t,0,0,5
4:38.314,100193,),0,0,2
4:38.622,100304,(,0,0,1
4:38.686,100327,N,0,0,0
4:38.725,100341,),0,0,1
4:38.919,100411,(,0,0,2
4:39.031,100451,t,0,0,5
4:39.147,100493,t,0,0,5
4:39.189,100508,),0,0,2
4:39.589,100652,(,0,0,1
4:39.617,100662,N,0,0,0
4:39.661,100678,),0,0,1
4:39.867,100752,(,0,0,2
4:39.975,100791,t,0,0,5
4:40.094,100834,t,0,0,5
4:40.144,100852,),0,0,2
4:40.461,100966,(,0,0,1
4:40.519,100987,N,0,0,0
4:40.556,101000,),0,0,1
4:40.694,101050,(,0,0,2
4:40.850,101106,t,0,0,5
4:40.972,101150,t,0,0,5
4:41.042,101175,),0,0,2
4:41.428,101314,(,0,0,1
4:41.492,101337,N,0,0,0
4:41.531,101351,),0,0,1
4:41.725,101421,(,0,0,2
4:41.836,101461,t,0,0,5
4:41.953,101503,t,0,0,5
4:42.014,101525,),0,0,2
5:28.608,118299,(,0,0,1
5:28.636,118309,N,0,0,0
5:28.678,118324,),0,0,1
5:28.994,118438,(,0,0,2
5:29.181,118505,t,0,0,1
5:29.353,118567,),0,0,2
5:59.597,129455,(,0,0,1
5:59.664,129479,N,0,0,0
5:59.706,129494,),0,0,1
6:00.039,129614,(,0,0,2
6:00.247,129689,t,0,0,1
6:00.433,129756,),0,0,2
6:22.817,137814,(,0,0,1
6:22.889,137840,N,0,0,0
6:22.931,137855,),0,0,1
6:23.122,137924,(,0,0,2
6:23.233,137964,t,0,0,5
6:23.622,138104,t,0,0,5
6:23.694,138130,),0,0,2
6:26.803,139249,(,0,0,1
6:26.833,139260,N,0,0,0
6:26.872,139274,),0,0,1
6:27.033,139332,(,0,0,2
6:27.181,139385,t,0,0,5
6:27.303,139429,t,0,0,5
6:27.386,139459,),0,0,2
6:27.886,139639,(,0,0,1
6:27.944,139660,N,0,0,0
6:27.983,139674,),0,0,1
6:28.158,139737,(,0,0,2
6:28.289,139784,t,0,0,5
6:28.403,139825,t,0,0,5
6:28.469,139849,),0,0,2
6:28.872,139994,(,0,0,1
6:28.900,140004,N,0,0,0
6:28.936,140017,),0,0,1
6:29.078,140068,(,0,0,2
6:29.203,140113,t,0,0,5
6:29.339,140162,t,0,0,5
6:29.394,140182,),0,0,2
6:29.739,140306,(,0,0,1
6:29.769,140317,N,0,0,0
6:29.808,140331,),0,0,1
6:29.992,140397,(,0,0,2
6:30.111,140440,t,0,0,5
6:30.231,140483,t,0,0,5
6:30.306,140510,),0,0,2
6:30.692,140649,(,0,0,1
6:30.753,140671,N,0,0,0
6:30.792,140685,),0,0,1
6:30.997,140759,(,0,0,2
6:31.117,140802,t,0,0,5
6:31.222,140840,t,0,0,5
6:31.300,140868,),0,0,2
6:31.758,141033,(,0,0,1
6:31.822,141056,N,0,0,0
6:31.864,141071,),0,0,1
6:32.031,141131,(,0,0,2
6:32.178,141184,t,0,0,5
6:32.278,141220,t,0,0,5
6:32.347,141245,),0,0,2
6:32.722,141380,(,0,0,1
6:32.750,141390,N,0,0,0
6:32.789,141404,),0,0,1
6:32.989,141476,(,0,0,2
6:33.069,141505,t,0,0,5
6:33.197,141551,t,0,0,5
6:33.250,141570,),0,0,2
6:33.525,141669,(,0,0,1
6:33.594,141694,N,0,0,0
6:33.631,141707,),0,0,1
6:33.800,141768,(,0,0,2
6:33.939,141818,t,0,0,5
6:34.047,141857,t,0,0,5
6:34.119,141883,),0,0,2
6:34.547,142037,(,0,0,1
6:34.575,142047,N,0,0,0
6:34.617,142062,),0,0,1
6:34.772,142118,(,0,0,2
6:34.933,142176,t,0,0,5
6:35.042,142215,t,0,0,5
6:35.117,142242,),0,0,2
6:35.569,142405,(,0,0,1
6:35.597,142415,N,0,0,0
6:35.639,142430,),0,0,1
6:35.833,142500,(,0,0,2
6:35.947,142541,t,0,0,5
6:36.061,142582,t,0,0,5
6:36.111,142600,),0,0,2
6:36.522,142748,(,0,0,1
6:36.592,142773,N,0,0,0
6:36.631,142787,),0,0,1
6:36.803,142849,(,0,0,2
6:36.908,142887,t,0,0,5
6:37.044,142936,t,0,0,5
6:37.119,142963,),0,0,2
6:37.492,143097,(,0,0,1
6:37.531,143111,N,0,0,0
6:37.567,143124,),0,0,1
6:37.739,143186,(,0,0,2
6:37.856,143228,t,0,0,5
6:37.972,143270,t,0,0,5
6:38.050,143298,),0,0,2
6:38.497,143459,(,0,0,1
6:38.558,143481,N,0,0,0
6:38.600,143496,),0,0,1
6:38.808,143571,(,0,0,2
6:38.917,143610,t,0,0,5
6:39.042,143655,t,0,0,5
6:39.119,143683,),0,0,2
6:39.594,143854,(,0,0,1
6:39.667,143880,N,0,0,0
6:39.706,143894,),0,0,1
6:39.903,143965,(,0,0,2
6:39.989,143996,t,0,0,5
6:40.125,144045,t,0,0,5
6:40.197,144071,),0,0,2
6:40.569,144205,(,0,0,1
6:40.644,144232,N,0,0,0
6:40.683,144246,),0,0,1
6:40.839,144302,(,0,0,2
6:40.958,144345,t,0,0,5
6:41.100,144396,t,0,0,5
6:41.156,144416,),0,0,2
6:41.514,144545,(,0,0,1
6:41.542,144555,N,0,0,0
6:41.581,144569,),0,0,1
6:41.742,144627,(,0,0,2
6:41.897,144683,t,0,0,5
6:42.014,144725,t,0,0,5
6:42.086,144751,),0,0,2
6:42.511,144904,(,0,0,1
6:42.539,144914,N,0,0,0
6:42.578,144928,),0,0,1
6:42.731,144983,(,0,0,2
6:42.894,145042,t,0,0,5
6:43.008,145083,t,0,0,5
6:43.058,145101,),0,0,2
6:43.436,145237,(,0,0,1
6:43.500,145260,N,0,0,0
6:43.539,145274,),0,0,1
6:43.769,145357,(,0,0,2
6:43.853,145387,t,0,0,5
6:43.950,145422,t,0,0,5
6:43.997,145439,),0,0,2
6:44.333,145560,(,0,0,1
6:44.383,145578,N,0,0,0
6:44.422,145592,),0,0,1
6:44.611,145660,(,0,0,2
6:44.719,145699,t,0,0,5
6:44.836,145741,t,0,0,5
6:44.892,145761,),0,0,2
6:45.211,145876,(,0,0,1
6:45.242,145887,N,0,0,0
6:45.281,145901,),0,0,1
6:45.472,145970,(,0,0,2
6:45.586,146011,t,0,0,5
6:45.697,146051,t,0,0,5
6:45.769,146077,),0,0,2
6:46.103,146197,(,0,0,1
6:46.175,146223,N,0,0,0
6:46.214,146237,),0,0,1
6:46.378,146296,(,0,0,2
6:46.528,146350,t,0,0,5
6:46.633,146388,t,0,0,5
6:46.694,146410,),0,0,2
6:47.069,146545,(,0,0,1
6:47.133,146568,N,0,0,0
6:47.175,146583,),0,0,1
6:47.364,146651,(,0,0,2
6:47.478,146692,t,0,0,5
6:47.597,146735,t,0,0,5
6:47.658,146757,),0,0,2
6:47.942,146859,(,0,0,1
6:48.008,146883,N,0,0,0
6:48.044,146896,),0,0,1
6:48.219,146959,(,0,0,2
6:48.353,147007,t,0,0,5
6:48.456,147044,t,0,0,5
6:48.533,147072,),0,0,2
6:48.875,147195,(,0,0,1
6:48.906,147206,N,0,0,0
6:48.944,147220,),0,0,1
6:49.167,147300,(,0,0,2
6:49.261,147334,t,0,0,5
6:49.381,147377,t,0,0,5
6:49.439,147398,),0,0,2
6:49.861,147550,(,0,0,1
6:49.889,147560,N,0,0,0
6:49.928,147574,),0,0,1
6:50.117,147642,(,0,0,2
6:50.250,147690,t,0,0,5
6:50.347,147725,t,0,0,5
6:50.425,147753,),0,0,2
6:50.869,147913,(,0,0,1
6:50.939,147938,N,0,0,0
6:50.978,147952,),0,0,1
6:51.178,148024,(,0,0,2
6:51.239,148046,t,0,0,5
6:51.386,148099,t,0,0,5
6:51.467,148128,),0,0,2
6:51.806,148250,(,0,0,1
6:51.881,148277,N,0,0,0
6:51.917,148290,),0,0,1
6:52.106,148358,(,0,0,2
6:52.200,148392,t,0,0,5
6:52.319,148435,t,0,0,5
6:52.394,148462,),0,0,2
6:52.842,148623,(,0,0,1
6:52.917,148650,N,0,0,0
6:52.956,148664,),0,0,1
6:53.147,148733,(,0,0,2
6:53.275,148779,t,0,0,5
6:53.386,148819,t,0,0,5
6:53.469,148849,),0,0,2
6:53.911,149008,(,0,0,1
6:53.981,149033,N,0,0,0
6:54.019,149047,),0,0,1
6:54.208,149115,(,0,0,2
6:54.336,149161,t,0,0,5
6:54.425,149193,t,0,0,5
6:54.503,149221,),0,0,2
6:54.878,149356,(,0,0,1
6:54.906,149366,N,0,0,0
6:54.942,149379,),0,0,1
6:55.122,149444,(,0,0,2
6:55.206,149474,t,0,0,5
6:55.347,149525,t,0,0,5
6:55.400,149544,),0,0,2
6:55.711,149656,(,0,0,1
6:55.778,149680,N,0,0,0
6:55.817,149694,),0,0,1
6:55.992,149757,(,0,0,2
6:56.117,149802,t,0,0,5
6:56.239,149846,t,0,0,5
6:56.322,149876,),0,0,2
6:56.614,149981,(,0,0,1
6:56.672,150002,N,0,0,0
6:56.714,150017,),0,0,1
6:56.897,150083,(,0,0,2
6:57.014,150125,t,0,0,5
6:57.133,150168,t,0,0,5
6:57.203,150193,),0,0,2
6:57.522,150308,(,0,0,1
6:57.586,150331,N,0,0,0
6:57.622,150344,),0,0,1
6:57.817,150414,(,0,0,2
6:57.900,150444,t,0,0,5
6:58.022,150488,t,0,0,5
6:58.100,150516,),0,0,2
6:58.408,150627,(,0,0,1
6:58.436,150637,N,0,0,0
6:58.472,150650,),0,0,1
6:58.658,150717,(,0,0,2
6:58.767,150756,t,0,0,5
6:58.897,150803,t,0,0,5
6:58.947,150821,),0,0,2
6:59.286,150943,(,0,0,1
6:59.314,150953,N,0,0,0
6:59.353,150967,),0,0,1
6:59.553,151039,(,0,0,2
6:59.656,151076,t,0,0,5
6:59.786,151123,t,0,0,5
6:59.842,151143,),0,0,2
7:00.186,151267,(,0,0,1
7:00.242,151287,N,0,0,0
7:00.281,151301,),0,0,1
7:00.486,151375,(,0,0,2
7:00.608,151419,t,0,0,5
7:00.722,151460,t,0,0,5
7:00.783,151482,),0,0,2
7:01.167,151620,(,0,0,1
7:01.194,151630,N,0,0,0
7:01.233,151644,),0,0,1
7:01.428,151714,(,0,0,2
7:01.519,151747,t,0,0,5
7:01.642,151791,t,0,0,5
7:01.681,151805,),0,0,2
7:02.022,151928,(,0,0,1
7:02.047,151937,N,0,0,0
7:02.086,151951,),0,0,1
7:02.264,152015,(,0,0,2
7:02.372,152054,t,0,0,5
7:02.494,152098,t,0,0,5
7:02.550,152118,),0,0,2
7:02.856,152228,(,0,0,1
7:02.917,152250,N,0,0,0
7:02.956,152264,),0,0,1
7:03.131,152327,(,0,0,2
7:03.267,152376,t,0,0,5
7:03.381,152417,t,0,0,5
7:03.469,152449,),0,0,2
7:03.786,152563,(,0,0,1
7:03.842,152583,N,0,0,0
7:03.881,152597,),0,0,1
7:04.089,152672,(,0,0,2
7:04.181,152705,t,0,0,5
7:04.283,152742,t,0,0,5
7:04.361,152770,),0,0,2
7:04.750,152910,(,0,0,1
7:04.778,152920,N,0,0,0
7:04.817,152934,),0,0,1
7:04.989,152996,(,0,0,2
7:05.086,153031,t,0,0,5
7:05.200,153072,t,0,0,5
7:05.267,153096,),0,0,2
7:05.564,153203,(,0,0,1
7:05.622,153224,N,0,0,0
7:05.661,153238,),0,0,1
7:05.833,153300,(,0,0,2
7:05.942,153339,t,0,0,5
7:06.064,153383,t,0,0,5
7:06.142,153411,),0,0,2
7:06.489,153536,(,0,0,1
7:06.564,153563,N,0,0,0
7:06.600,153576,),0,0,1
7:06.792,153645,(,0,0,2
7:06.906,153686,t,0,0,5
7:07.022,153728,t,0,0,5
7:07.108,153759,),0,0,2
7:07.569,153925,(,0,0,1
7:07.600,153936,N,0,0,0
7:07.642,153951,),0,0,1
7:07.825,154017,(,0,0,2
7:07.958,154065,t,0,0,5
7:08.067,154104,t,0,0,5
7:08.117,154122,),0,0,2
7:08.564,154283,(,0,0,1
7:08.597,154295,N,0,0,0
7:08.633,154308,),0,0,1
7:08.856,154388,(,0,0,2
7:08.906,154406,t,0,0,5
7:09.050,154458,t,0,0,5
7:09.111,154480,),0,0,2
7:09.458,154605,(,0,0,1
7:09.517,154626,N,0,0,0
7:09.553,154639,),0,0,1
7:09.731,154703,(,0,0,2
7:09.839,154742,t,0,0,5
7:09.967,154788,t,0,0,5
7:10.039,154814,),0,0,2
7:10.392,154941,(,0,0,1
7:10.456,154964,N,0,0,0
7:10.497,154979,),0,0,1
7:10.672,155042,(,0,0,2
7:10.819,155095,t,0,0,5
7:10.928,155134,t,0,0,5
7:10.986,155155,),0,0,2
7:11.328,155278,(,0,0,1
7:11.381,155297,N,0,0,0
7:11.419,155311,),0,0,1
7:11.753,155431,(,0,0,2
7:11.914,155489,t,0,0,1
7:12.058,155541,),0,0,2
7:13.047,155897,(,0,0,1
7:13.075,155907,N,0,0,0
7:13.114,155921,),0,0,1
7:13.300,155988,(,0,0,2
7:13.425,156033,t,0,0,5
7:13.536,156073,t,0,0,5
7:13.594,156094,),0,0,2
7:13.956,156224,(,0,0,1
7:13.986,156235,N,0,0,0
7:14.028,156250,),0,0,1
7:14.231,156323,(,0,0,2
7:14.339,156362,t,0,0,5
7:14.467,156408,t,0,0,5
7:14.514,156425,),0,0,2
7:14.897,156563,(,0,0,1
7:14.969,156589,N,0,0,0
7:15.011,156604,),0,0,1
7:15.169,156661,(,0,0,2
7:15.328,156718,t,0,0,5
7:15.439,156758,t,0,0,5
7:15.508,156783,),0,0,2
7:15.797,156887,(,0,0,1
7:15.861,156910,N,0,0,0
7:15.897,156923,),0,0,1
7:16.058,156981,(,0,0,2
7:16.192,157029,t,0,0,5
7:16.308,157071,t,0,0,5
7:16.378,157096,),0,0,2
7:16.678,157204,(,0,0,1
7:16.706,157214,N,0,0,0
7:16.744,157228,),0,0,1
7:16.914,157289,(,0,0,2
7:17.047,157337,t,0,0,5
7:17.156,157376,t,0,0,5
7:17.233,157404,),0,0,2
7:17.586,157531,(,0,0,1
7:17.614,157541,N,0,0,0
7:17.656,157556,),0,0,1
7:17.867,157632,(,0,0,2
7:17.975,157671,t,0,0,5
7:18.097,157715,t,0,0,5
7:18.158,157737,),0,0,2
7:18.397,157823,(,0,0,1
7:18.475,157851,N,0,0,0
7:18.517,157866,),0,0,1
7:18.703,157933,(,0,0,2
7:18.814,157973,t,0,0,5
7:18.922,158012,t,0,0,5
7:18.972,158030,),0,0,2
7:19.236,158125,(,0,0,1
7:19.297,158147,N,0,0,0
7:19.336,158161,),0,0,1
7:19.514,158225,(,0,0,2
7:19.617,158262,t,0,0,5
7:19.736,158305,t,0,0,5
7:19.819,158335,),0,0,2
7:20.106,158438,(,0,0,1
7:20.133,158448,N,0,0,0
7:20.172,158462,),0,0,1
7:20.372,158534,(,0,0,2
7:20.475,158571,t,0,0,5
7:20.603,158617,t,0,0,5
7:20.667,158640,),0,0,2
7:21.081,158789,(,0,0,1
7:21.111,158800,N,0,0,0
7:21.150,158814,),0,0,1
7:21.342,158883,(,0,0,2
7:21.458,158925,t,0,0,5
7:21.583,158970,t,0,0,5
7:21.653,158995,),0,0,2
7:22.056,159140,(,0,0,1
7:22.083,159150,N,0,0,0
7:22.122,159164,),0,0,1
7:22.336,159241,(,0,0,2
7:22.428,159274,t,0,0,5
7:22.564,159323,t,0,0,5
7:22.608,159339,),0,0,2
7:22.903,159445,(,0,0,1
7:22.981,159473,N,0,0,0
7:23.019,159487,),0,0,1
7:23.208,159555,(,0,0,2
7:23.322,159596,t,0,0,5
7:23.442,159639,t,0,0,5
7:23.522,159668,),0,0,2
7:24.006,159842,(,0,0,1
7:24.069,159865,N,0,0,0
7:24.108,159879,),0,0,1
7:24.306,159950,(,0,0,2
7:24.428,159994,t,0,0,5
7:24.544,160036,t,0,0,5
7:24.592,160053,),0,0,2
7:25.106,160238,(,0,0,1
7:25.158,160257,N,0,0,0
7:25.200,160272,),0,0,1
7:25.406,160346,(,0,0,2
7:25.464,160367,t,0,0,5
7:25.608,160419,t,0,0,5
7:25.681,160445,),0,0,2
7:26.006,160562,(,0,0,1
7:26.075,160587,N,0,0,0
7:26.114,160601,),0,0,1
7:26.283,160662,(,0,0,2
7:26.406,160706,t,0,0,5
7:26.525,160749,t,0,0,5
7:26.586,160771,),0,0,2
7:26.989,160916,(,0,0,1
7:27.019,160927,N,0,0,0
7:27.061,160942,),0,0,1
7:27.244,161008,(,0,0,2
7:27.347,161045,t,0,0,5
7:27.747,161189,t,0,0,5
7:27.833,161220,),0,0,2
7:28.875,161595,(,0,0,1
7:28.939,161618,N,0,0,0
7:28.978,161632,),0,0,1
7:29.178,161704,(,0,0,2
7:29.267,161736,t,0,0,5
7:29.392,161781,t,0,0,5
7:29.461,161806,),0,0,2
7:29.786,161923,(,0,0,1
7:29.814,161933,N,0,0,0
7:29.853,161947,),0,0,1
7:30.017,162006,(,0,0,2
7:30.136,162049,t,0,0,5
7:30.256,162092,t,0,0,5
7:30.331,162119,),0,0,2
7:30.650,162234,(,0,0,1
7:30.700,162252,N,0,0,0
7:30.739,162266,),0,0,1
7:30.917,162330,(,0,0,2
7:31.017,162366,t,0,0,5
7:31.131,162407,t,0,0,5
7:31.194,162430,),0,0,2
7:31.575,162567,(,0,0,1
7:31.633,162588,N,0,0,0
7:31.675,162603,),0,0,1
7:31.892,162681,(,0,0,2
7:31.983,162714,t,0,0,5
7:32.117,162762,t,0,0,5
7:32.169,162781,),0,0,2
7:32.478,162892,(,0,0,1
7:32.544,162916,N,0,0,0
7:32.583,162930,),0,0,1
7:32.786,163003,(,0,0,2
7:32.864,163031,t,0,0,0
7:32.964,163067,),0,0,2
7:33.317,163194,(,0,0,1
7:33.383,163218,N,0,0,0
7:33.419,163231,),0,0,1
7:33.600,163296,(,0,0,2
7:33.706,163334,t,0,0,5
7:33.817,163374,t,0,0,5
7:33.878,163396,),0,0,2
7:34.181,163505,(,0,0,1
7:34.231,163523,N,0,0,0
7:34.269,163537,),0,0,1
7:34.428,163594,(,0,0,2
7:34.567,163644,t,0,0,5
7:34.683,163686,t,0,0,5
7:34.739,163706,),0,0,2
7:36.822,164456,(,0,0,1
7:36.889,164480,N,0,0,0
7:36.931,164495,),0,0,1
7:37.092,164553,(,0,0,2
7:37.214,164597,t,0,0,5
7:37.328,164638,t,0,0,5
7:37.406,164666,),0,0,2
7:37.772,164798,(,0,0,1
7:37.803,164809,N,0,0,0
7:37.844,164824,),0,0,1
7:38.022,164888,(,0,0,2
7:38.131,164927,t,0,0,5
7:38.256,164972,t,0,0,5
7:38.317,164994,),0,0,2
7:40.675,165843,(,0,0,1
7:40.703,165853,N,0,0,0
7:40.742,165867,),0,0,1
7:40.897,165923,(,0,0,2
7:41.028,165970,t,0,0,5
7:41.144,166012,t,0,0,5
7:41.217,166038,),0,0,2
7:43.369,166813,(,0,0,1
7:43.400,166824,N,0,0,0
7:43.442,166839,),0,0,1
7:43.589,166892,(,0,0,2
7:43.736,166945,t,0,0,5
7:43.867,166992,t,0,0,5
7:43.942,167019,),0,0,2
7:45.033,167412,(,0,0,1
7:45.061,167422,N,0,0,0
7:45.103,167437,),0,0,1
7:45.281,167501,(,0,0,2
7:45.392,167541,t,0,0,5
7:45.525,167589,t,0,0,5
7:45.678,167644,),0,0,2
7:46.658,167997,(,0,0,1
7:46.700,168012,N,0,0,0
7:46.742,168027,),0,0,1
7:46.936,168097,(,0,0,2
7:47.028,168130,t,0,0,5
7:47.153,168175,t,0,0,5
7:47.228,168202,),0,0,2
7:47.489,168296,(,0,0,1
7:47.556,168320,N,0,0,0
7:47.594,168334,),0,0,1
7:47.792,168405,(,0,0,2
7:47.886,168439,t,0,0,5
7:48.006,168482,t,0,0,5
7:48.061,168502,),0,0,2
7:49.192,168909,(,0,0,1
7:49.258,168933,N,0,0,0
7:49.297,168947,),0,0,1
7:49.475,169011,(,0,0,2
7:49.581,169049,t,0,0,0
7:49.664,169079,),0,0,2
7:50.067,169224,(,0,0,1
7:50.097,169235,N,0,0,0
7:50.136,169249,),0,0,1
7:50.342,169323,(,0,0,2
7:50.431,169355,t,0,0,5
7:50.567,169404,t,0,0,5
7:50.639,169430,),0,0,2
7:51.261,169654,(,0,0,1
7:51.328,169678,N,0,0,0
7:51.367,169692,),0,0,1
7:51.567,169764,(,0,0,2
7:51.675,169803,t,0,0,5
7:51.831,169859,t,0,0,5
7:51.886,169879,),0,0,2
7:54.467,170808,(,0,0,1
7:54.517,170826,N,0,0,0
7:54.556,170840,),0,0,1
7:54.739,170906,(,0,0,2
7:54.861,170950,t,0,0,5
7:55.297,171107,t,0,0,5
7:55.367,171132,),0,0,2
7:57.569,171925,(,0,0,1
7:57.603,171937,N,0,0,0
7:57.642,171951,),0,0,1
7:57.842,172023,(,0,0,2
7:57.942,172059,t,0,0,5
7:58.083,172110,t,0,0,5
7:58.161,172138,),0,0,2
7:58.606,172298,(,0,0,1
7:58.650,172314,N,0,0,0
7:58.692,172329,),0,0,1
7:58.892,172401,(,0,0,2
7:58.992,172437,t,0,0,5
7:59.114,172481,t,0,0,5
7:59.200,172512,),0,0,2
8:00.675,173043,(,0,0,1
8:00.706,173054,N,0,0,0
8:00.747,173069,),0,0,1
8:00.911,173128,(,0,0,2
8:01.036,173173,t,0,0,5
8:01.436,173317,t,0,0,5
8:01.500,173340,),0,0,2
8:05.469,174769,(,0,0,1
8:05.522,174788,N,0,0,0
8:05.561,174802,),0,0,1
8:05.747,174869,(,0,0,2
8:05.850,174906,t,0,0,5
8:05.975,174951,t,0,0,5
8:06.039,174974,),0,0,2
8:06.564,175163,(,0,0,1
8:06.594,175174,N,0,0,0
8:06.633,175188,),0,0,1
8:06.814,175253,(,0,0,2
8:06.894,175282,t,0,0,5
8:07.039,175334,t,0,0,5
8:07.131,175367,),0,0,2
8:07.511,175504,(,0,0,1
8:07.572,175526,N,0,0,0
8:07.611,175540,),0,0,1
8:07.758,175593,(,0,0,2
8:07.897,175643,t,0,0,5
8:08.047,175697,t,0,0,5
8:08.122,175724,),0,0,2
8:08.444,175840,(,0,0,1
8:08.481,175853,N,0,0,0
8:08.522,175868,),0,0,1
8:08.667,175920,(,0,0,2
8:08.817,175974,t,0,0,5
8:08.944,176020,t,0,0,5
8:09.019,176047,),0,0,2
8:09.447,176201,(,0,0,1
8:09.508,176223,N,0,0,0
8:09.547,176237,),0,0,1
8:09.719,176299,(,0,0,2
8:09.839,176342,t,0,0,5
8:09.978,176392,t,0,0,5
8:10.036,176413,),0,0,2
8:10.478,176572,(,0,0,1
8:10.531,176591,N,0,0,0
8:10.572,176606,),0,0,1
8:10.764,176675,(,0,0,2
8:10.867,176712,t,0,0,5
8:10.975,176751,t,0,0,5
8:11.031,176771,),0,0,2
8:11.381,176897,(,0,0,1
8:11.436,176917,N,0,0,0
8:11.475,176931,),0,0,1
8:11.625,176985,(,0,0,2
8:11.758,177033,t,0,0,5
8:11.892,177081,t,0,0,5
8:11.942,177099,),0,0,2
8:12.303,177229,(,0,0,1
8:12.333,177240,N,0,0,0
8:12.372,177254,),0,0,1
8:12.553,177319,(,0,0,2
8:12.672,177362,t,0,0,5
8:12.792,177405,t,0,0,5
8:12.850,177426,),0,0,2
8:13.247,177569,(,0,0,1
8:13.306,177590,N,0,0,0
8:13.344,177604,),0,0,1
8:13.528,177670,(,0,0,2
8:13.650,177714,t,0,0,5
8:13.758,177753,t,0,0,5
8:13.833,177780,),0,0,2
8:14.253,177931,(,0,0,1
8:14.286,177943,N,0,0,0
8:14.328,177958,),0,0,1
8:14.664,178079,(,0,0,2
8:14.847,178145,t,0,0,1
8:15.047,178217,),0,0,2
8:16.056,178580,(,0,0,1
8:16.125,178605,N,0,0,0
8:16.164,178619,),0,0,1
8:16.325,178677,(,0,0,2
8:16.450,178722,t,0,0,5
8:16.558,178761,t,0,0,5
8:16.625,178785,),0,0,2
8:17.075,178947,(,0,0,1
8:17.103,178957,N,0,0,0
8:17.139,178970,),0,0,1
8:17.294,179026,(,0,0,2
8:17.436,179077,t,0,0,5
8:17.550,179118,t,0,0,5
8:17.628,179146,),0,0,2
8:18.106,179318,(,0,0,1
8:18.133,179328,N,0,0,0
8:18.172,179342,),0,0,1
8:18.392,179421,(,0,0,2
8:18.444,179440,t,0,0,5
8:18.600,179496,t,0,0,5
8:18.675,179523,),0,0,2
8:20.017,180006,(,0,0,1
8:20.086,180031,N,0,0,0
8:20.125,180045,),0,0,1
8:20.447,180161,(,0,0,2
8:20.631,180227,t,0,0,1
8:20.803,180289,),0,0,2
8:28.292,182985,(,0,0,1
8:28.344,183004,N,0,0,0
8:28.386,183019,),0,0,1
8:28.572,183086,(,0,0,2
8:28.697,183131,t,0,0,5
8:29.092,183273,t,0,0,5
8:29.197,183311,),0,0,2
8:30.333,183720,(,0,0,1
8:30.367,183732,N,0,0,0
8:30.408,183747,),0,0,1
8:30.628,183826,(,0,0,2
8:30.675,183843,t,0,0,5
8:30.811,183892,t,0,0,5
8:30.858,183909,),0,0,2
8:31.161,184018,(,0,0,1
8:31.225,184041,N,0,0,0
8:31.264,184055,),0,0,1
8:31.467,184128,(,0,0,2
8:31.558,184161,t,0,0,5
8:31.664,184199,t,0,0,5
8:31.728,184222,),0,0,2
8:32.144,184372,(,0,0,1
8:32.175,184383,N,0,0,0
8:32.214,184397,),0,0,1
8:32.364,184451,(,0,0,2
8:32.508,184503,t,0,0,5
8:32.614,184541,t,0,0,5
8:32.692,184569,),0,0,2
8:33.161,184738,(,0,0,1
8:33.219,184759,N,0,0,0
8:33.261,184774,),0,0,1
8:33.411,184828,(,0,0,2
8:33.547,184877,t,0,0,5
8:33.686,184927,t,0,0,5
8:33.761,184954,),0,0,2
8:34.100,185076,(,0,0,1
8:34.156,185096,N,0,0,0
8:34.194,185110,),0,0,1
8:34.378,185176,(,0,0,2
8:34.453,185203,t,0,0,5
8:34.597,185255,t,0,0,5
8:34.656,185276,),0,0,2
8:34.969,185389,(,0,0,1
8:35.033,185412,N,0,0,0
8:35.075,185427,),0,0,1
8:35.392,185541,(,0,0,2
8:35.592,185613,t,0,0,1
8:35.775,185679,),0,0,2
8:36.831,186059,(,0,0,1
8:36.892,186081,N,0,0,0
8:36.931,186095,),0,0,1
8:37.103,186157,(,0,0,2
8:37.231,186203,t,0,0,5
8:37.333,186240,t,0,0,5
8:37.397,186263,),0,0,2
8:37.711,186376,(,0,0,1
8:37.742,186387,N,0,0,0
8:37.781,186401,),0,0,1
8:37.950,186462,(,0,0,2
8:38.064,186503,t,0,0,5
8:38.183,186546,t,0,0,5
8:38.258,186573,),0,0,2
8:38.583,186690,(,0,0,1
8:38.611,186700,N,0,0,0
8:38.650,186714,),0,0,1
8:38.828,186778,(,0,0,2
8:38.933,186816,t,0,0,5
8:39.056,186860,t,0,0,5
8:39.108,186879,),0,0,2
8:39.469,187009,(,0,0,1
8:39.525,187029,N,0,0,0
8:39.564,187043,),0,0,1
8:39.742,187107,(,0,0,2
8:39.856,187148,t,0,0,5
8:39.967,187188,t,0,0,5
8:40.039,187214,),0,0,2
8:40.375,187335,(,0,0,1
8:40.417,187350,N,0,0,0
8:40.458,187365,),0,0,1
8:40.631,187427,(,0,0,2
8:40.764,187475,t,0,0,5
8:40.881,187517,t,0,0,5
8:40.956,187544,),0,0,2
8:41.250,187650,(,0,0,1
8:41.278,187660,N,0,0,0
8:41.317,187674,),0,0,1
8:41.506,187742,(,0,0,2
8:41.600,187776,t,0,0,5
8:41.719,187819,t,0,0,5
8:41.794,187846,),0,0,2
8:42.108,187959,(,0,0,1
8:42.186,187987,N,0,0,0
8:42.228,188002,),0,0,1
8:42.414,188069,(,0,0,2
8:42.525,188109,t,0,0,5
8:42.639,188150,t,0,0,5
8:42.700,188172,),0,0,2
8:43.125,188325,(,0,0,1
8:43.153,188335,N,0,0,0
8:43.194,188350,),0,0,1
8:43.358,188409,(,0,0,2
8:43.503,188461,t,0,0,5
8:43.617,188502,t,0,0,5
8:43.706,188534,),0,0,2
8:44.097,188675,(,0,0,1
8:44.125,188685,N,0,0,0
8:44.164,188699,),0,0,1
8:44.353,188767,(,0,0,2
8:44.456,188804,t,0,0,5
8:44.567,188844,t,0,0,5
8:44.633,188868,),0,0,2
8:44.989,188996,(,0,0,1
8:45.019,189007,N,0,0,0
8:45.058,189021,),0,0,1
8:45.219,189079,(,0,0,2
8:45.342,189123,t,0,0,5
8:45.739,189266,t,0,0,5
8:45.814,189293,),0,0,2
8:47.044,189736,(,0,0,1
8:47.117,189762,N,0,0,0
8:47.158,189777,),0,0,1
8:47.350,189846,(,0,0,2
8:47.439,189878,t,0,0,5
8:47.583,189930,t,0,0,5
8:47.669,189961,),0,0,2
8:48.078,190108,(,0,0,1
8:48.114,190121,N,0,0,0
8:48.153,190135,),0,0,1
8:48.344,190204,(,0,0,2
8:48.444,190240,t,0,0,5
8:48.583,190290,t,0,0,5
8:48.642,190311,),0,0,2
8:49.058,190461,(,0,0,1
8:49.086,190471,N,0,0,0
8:49.128,190486,),0,0,1
8:49.317,190554,(,0,0,2
8:49.431,190595,t,0,0,5
8:49.792,190725,t,0,0,5
8:49.878,190756,),0,0,2
8:51.867,191472,(,0,0,1
8:51.897,191483,N,0,0,0
8:51.936,191497,),0,0,1
8:52.119,191563,(,0,0,2
8:52.239,191606,t,0,0,5
8:52.356,191648,t,0,0,5
8:52.406,191666,),0,0,2
8:52.797,191807,(,0,0,1
8:52.828,191818,N,0,0,0
8:52.872,191834,),0,0,1
8:53.056,191900,(,0,0,2
8:53.167,191940,t,0,0,5
8:53.289,191984,t,0,0,5
8:53.356,192008,),0,0,2
8:53.744,192148,(,0,0,1
8:53.814,192173,N,0,0,0
8:53.856,192188,),0,0,1
8:54.061,192262,(,0,0,2
8:54.144,192292,t,0,0,5
8:54.258,192333,t,0,0,5
8:54.336,192361,),0,0,2
8:54.708,192495,(,0,0,1
8:54.736,192505,N,0,0,0
8:54.775,192519,),0,0,1
8:54.944,192580,(,0,0,2
8:55.067,192624,t,0,0,5
8:55.194,192670,t,0,0,5
8:55.242,192687,),0,0,2
8:55.581,192809,(,0,0,1
8:55.650,192834,N,0,0,0
8:55.689,192848,),0,0,1
8:55.897,192923,(,0,0,2
8:55.981,192953,t,0,0,5
8:56.097,192995,t,0,0,5
8:56.156,193016,),0,0,2
8:56.536,193153,(,0,0,1
8:56.567,193164,N,0,0,0
8:56.606,193178,),0,0,1
8:56.764,193235,(,0,0,2
8:56.908,193287,t,0,0,5
8:57.028,193330,t,0,0,5
8:57.075,193347,),0,0,2
8:57.519,193507,(,0,0,1
8:57.561,193522,N,0,0,0
8:57.603,193537,),0,0,1
8:57.797,193607,(,0,0,2
8:57.914,193649,t,0,0,5
8:58.019,193687,t,0,0,5
8:58.103,193717,),0,0,2
8:58.483,193854,(,0,0,1
8:58.511,193864,N,0,0,0
8:58.553,193879,),0,0,1
8:58.719,193939,(,0,0,2
8:58.842,193983,t,0,0,5
8:59.219,194119,t,0,0,5
8:59.300,194148,),0,0,2
9:02.303,195229,(,0,0,1
9:02.333,195240,N,0,0,0
9:02.375,195255,),0,0,1
9:02.544,195316,(,0,0,2
9:02.681,195365,t,0,0,5
9:02.811,195412,t,0,0,5
9:02.869,195433,),0,0,2
9:03.244,195568,(,0,0,1
9:03.272,195578,N,0,0,0
9:03.311,195592,),0,0,1
9:03.642,195711,(,0,0,2
9:03.828,195778,t,0,0,1
9:04.019,195847,),0,0,2
9:05.925,196533,(,0,0,1
9:05.983,196554,N,0,0,0
9:06.022,196568,),0,0,1
9:06.172,196622,(,0,0,2
9:06.314,196673,t,0,0,5
9:06.431,196715,t,0,0,5
9:06.511,196744,),0,0,2
9:06.839,196862,(,0,0,1
9:06.867,196872,N,0,0,0
9:06.908,196887,),0,0,1
9:07.214,196997,(,0,0,2
9:07.428,197074,t,0,0,1
9:07.614,197141,),0,0,2
9:10.464,198167,(,0,0,1
9:10.511,198184,N,0,0,0
9:10.553,198199,),0,0,1
9:10.733,198264,(,0,0,2
9:10.856,198308,t,0,0,5
9:10.978,198352,t,0,0,5
9:11.025,198369,),0,0,2
9:12.144,198772,(,0,0,1
9:12.192,198789,N,0,0,0
9:12.339,198842,),0,0,1
9:12.433,198876,(,0,0,2
9:12.464,198887,t,0,0,0
9:12.497,198899,),0,0,2
9:13.344,199204,(,0,0,1
9:13.372,199214,N,0,0,0
9:13.394,199222,),0,0,1
9:13.600,199296,(,0,0,2
9:13.714,199337,t,0,0,5
9:13.836,199381,t,0,0,5
9:13.892,199401,),0,0,2
9:14.278,199540,(,0,0,1
9:14.322,199556,N,0,0,0
9:14.347,199565,),0,0,1
9:14.592,199653,(,0,0,2
9:14.667,199680,t,0,0,5
9:14.772,199718,t,0,0,5
9:14.856,199748,),0,0,2
9:15.106,199838,(,0,0,1
9:15.247,199889,N,0,0,0
9:15.383,199938,),0,0,1
9:15.575,200007,(,0,0,2
9:15.686,200047,t,0,0,5
9:15.797,200087,t,0,0,5
9:15.853,200107,),0,0,2
9:18.014,200885,(,0,0,1
9:18.075,200907,N,0,0,0
9:18.100,200916,),0,0,1
9:18.428,201034,(,0,0,2
9:18.608,201099,t,0,0,1
9:18.761,201154,),0,0,2
10:06.561,218362,(,0,0,1
10:06.592,218373,N,0,0,0
10:06.614,218381,),0,0,1
10:06.961,218506,(,0,0,2
10:07.136,218569,t,0,0,1
10:07.292,218625,),0,0,2
10:09.158,219297,(,0,0,1
10:09.186,219307,N,0,0,0
10:09.208,219315,),0,0,1
10:09.431,219395,(,0,0,2
10:09.536,219433,t,0,0,5
10:09.867,219552,t,0,0,5
10:10.006,219602,),0,0,2
10:43.692,231729,(,0,0,1
10:43.719,231739,N,0,0,0
10:43.742,231747,),0,0,1
11:02.814,238613,(,0,0,1
11:02.864,238631,N,0,0,0
11:02.889,238640,),0,0,1
11:03.075,238707,(,0,0,2
11:03.186,238747,t,0,0,5
11:03.303,238789,t,0,0,5
11:03.369,238813,),0,0,2
11:03.781,238961,(,0,0,1
11:03.842,238983,N,0,0,0
11:03.864,238991,),0,0,1
11:04.083,239070,(,0,0,2
11:04.183,239106,t,0,0,5
11:04.303,239149,t,0,0,5
11:04.361,239170,),0,0,2
11:04.753,239311,(,0,0,1
11:04.781,239321,N,0,0,0
11:04.803,239329,),0,0,1
11:05.031,239411,(,0,0,2
11:05.094,239434,t,0,0,5
11:05.231,239483,t,0,0,5
11:05.292,239505,),0,0,2
11:05.581,239609,(,0,0,1
11:05.633,239628,N,0,0,0
11:05.658,239637,),0,0,1
11:05.847,239705,(,0,0,2
11:05.950,239742,t,0,0,5
11:06.075,239787,t,0,0,5
11:06.131,239807,),0,0,2
11:06.481,239933,(,0,0,1
11:06.533,239952,N,0,0,0
11:06.556,239960,),0,0,1
11:06.747,240029,(,0,0,2
11:06.883,240078,t,0,0,5
11:07.006,240122,t,0,0,5
11:07.072,240146,),0,0,2
11:07.450,240282,(,0,0,1
11:07.525,240309,N,0,0,0
11:07.547,240317,),0,0,1
11:07.742,240387,(,0,0,2
11:07.856,240428,t,0,0,5
11:07.969,240469,t,0,0,5
11:08.033,240492,),0,0,2
11:08.386,240619,(,0,0,1
11:08.414,240629,N,0,0,0
11:08.436,240637,),0,0,1
11:08.614,240701,(,0,0,2
11:08.719,240739,t,0,0,5
11:08.839,240782,t,0,0,5
11:08.900,240804,),0,0,2
11:09.183,240906,(,0,0,1
11:09.258,240933,N,0,0,0
11:09.281,240941,),0,0,1
11:09.481,241013,(,0,0,2
11:09.583,241050,t,0,0,5
11:09.714,241097,t,0,0,5
11:09.772,241118,),0,0,2
11:10.144,241252,(,0,0,1
11:10.169,241261,N,0,0,0
11:10.192,241269,),0,0,1
11:10.403,241345,(,0,0,2
11:10.500,241380,t,0,0,5
11:10.625,241425,t,0,0,5
11:10.697,241451,),0,0,2
11:11.106,241598,(,0,0,1
11:11.136,241609,N,0,0,0
11:11.158,241617,),0,0,1
11:11.356,241688,(,0,0,2
11:11.489,241736,t,0,0,5
11:11.597,241775,t,0,0,5
11:11.664,241799,),0,0,2
11:11.961,241906,(,0,0,1
11:12.039,241934,N,0,0,0
11:12.061,241942,),0,0,1
11:12.247,242009,(,0,0,2
11:12.344,242044,t,0,0,5
11:12.478,242092,t,0,0,5
11:12.536,242113,),0,0,2
11:12.819,242215,(,0,0,1
11:12.878,242236,N,0,0,0
11:12.900,242244,),0,0,1
11:13.069,242305,(,0,0,2
11:13.197,242351,t,0,0,5
11:13.317,242394,t,0,0,5
11:13.394,242422,),0,0,2
11:13.683,242526,(,0,0,1
11:13.744,242548,N,0,0,0
11:13.769,242557,),0,0,1
11:13.981,242633,(,0,0,2
11:14.097,242675,t,0,0,5
11:14.214,242717,t,0,0,5
11:14.300,242748,),0,0,2
11:14.719,242899,(,0,0,1
11:14.750,242910,N,0,0,0
11:14.772,242918,),0,0,1
11:14.944,242980,(,0,0,2
11:15.086,243031,t,0,0,0
11:15.164,243059,),0,0,2
11:15.617,243222,(,0,0,1
11:15.653,243235,N,0,0,0
11:15.675,243243,),0,0,1
11:15.836,243301,(,0,0,2
11:15.942,243339,t,0,0,5
11:16.083,243390,t,0,0,5
11:16.139,243410,),0,0,2
11:16.453,243523,(,0,0,1
11:16.500,243540,N,0,0,0
11:16.522,243548,),0,0,1
11:16.717,243618,(,0,0,2
11:16.836,243661,t,0,0,5
11:16.967,243708,t,0,0,5
11:17.028,243730,),0,0,2
11:17.392,243861,(,0,0,1
11:17.428,243874,N,0,0,0
11:17.453,243883,),0,0,1
11:17.656,243956,(,0,0,2
11:17.767,243996,t,0,0,5
11:17.889,244040,t,0,0,5
11:17.950,244062,),0,0,2
11:18.289,244184,(,0,0,1
11:18.342,244203,N,0,0,0
11:18.364,244211,),0,0,1
11:18.583,244290,(,0,0,2
11:18.700,244332,t,0,0,5
11:18.811,244372,t,0,0,5
11:18.839,244382,),0,0,2
11:19.158,244497,(,0,0,1
11:19.203,244513,N,0,0,0
11:19.225,244521,),0,0,1
11:19.394,244582,(,0,0,2
11:19.519,244627,t,0,0,5
11:19.644,244672,t,0,0,5
11:19.719,244699,),0,0,2
11:19.994,244798,(,0,0,1
11:20.022,244808,N,0,0,0
11:20.044,244816,),0,0,1
11:20.222,244880,(,0,0,2
11:20.339,244922,t,0,0,5
11:20.458,244965,t,0,0,5
11:20.536,244993,),0,0,2
11:20.831,245099,(,0,0,1
11:20.903,245125,N,0,0,0
11:20.928,245134,),0,0,1
11:21.133,245208,(,0,0,2
11:21.247,245249,t,0,0,5
11:21.375,245295,t,0,0,5
11:21.444,245320,),0,0,2
11:21.833,245460,(,0,0,1
11:21.861,245470,N,0,0,0
11:21.883,245478,),0,0,1
11:22.058,245541,(,0,0,2
11:22.200,245592,t,0,0,0
11:22.283,245622,),0,0,2
11:22.669,245761,(,0,0,1
11:22.731,245783,N,0,0,0
11:22.753,245791,),0,0,1
11:22.919,245851,(,0,0,2
11:23.044,245896,t,0,0,5
11:23.156,245936,t,0,0,5
11:23.214,245957,),0,0,2
11:23.500,246060,(,0,0,1
11:23.542,246075,N,0,0,0
11:23.567,246084,),0,0,1
11:23.758,246153,(,0,0,2
11:23.867,246192,t,0,0,5
11:23.989,246236,t,0,0,5
11:24.075,246267,),0,0,2
11:24.367,246372,(,0,0,1
11:24.428,246394,N,0,0,0
11:24.450,246402,),0,0,1
11:24.647,246473,(,0,0,2
11:24.769,246517,t,0,0,5
11:24.894,246562,t,0,0,5
11:24.964,246587,),0,0,2
11:25.233,246684,(,0,0,1
11:25.294,246706,N,0,0,0
11:25.317,246714,),0,0,1
11:25.497,246779,(,0,0,2
11:25.636,246829,t,0,0,5
11:25.750,246870,t,0,0,5
11:25.836,246901,),0,0,2
11:26.128,247006,(,0,0,1
11:26.156,247016,N,0,0,0
11:26.178,247024,),0,0,1
11:26.336,247081,(,0,0,2
11:26.461,247126,t,0,0,5
11:26.594,247174,t,0,0,5
11:26.667,247200,),0,0,2
11:26.928,247294,(,0,0,1
11:26.956,247304,N,0,0,0
11:26.981,247313,),0,0,1
11:27.147,247373,(,0,0,2
11:27.269,247417,t,0,0,5
11:27.383,247458,t,0,0,5
11:27.475,247491,),0,0,2
11:27.792,247605,(,0,0,1
11:27.822,247616,N,0,0,0
11:27.844,247624,),0,0,1
11:28.056,247700,(,0,0,2
11:28.164,247739,t,0,0,5
11:28.294,247786,t,0,0,5
11:28.372,247814,),0,0,2
11:28.694,247930,(,0,0,1
11:28.722,247940,N,0,0,0
11:28.744,247948,),0,0,1
11:28.958,248025,(,0,0,2
11:29.058,248061,t,0,0,5
11:29.161,248098,t,0,0,5
11:29.244,248128,),0,0,2
11:29.533,248232,(,0,0,1
11:29.572,248246,N,0,0,0
11:29.597,248255,),0,0,1
11:29.772,248318,(,0,0,2
11:29.875,248355,t,0,0,5
11:30.000,248400,t,0,0,5
11:30.053,248419,),0,0,2
11:30.369,248533,(,0,0,1
11:30.400,248544,N,0,0,0
11:30.422,248552,),0,0,1
11:30.619,248623,(,0,0,2
11:30.725,248661,t,0,0,5
11:30.836,248701,t,0,0,5
11:30.917,248730,),0,0,2
11:31.239,248846,(,0,0,1
11:31.289,248864,N,0,0,0
11:31.314,248873,),0,0,1
11:31.500,248940,(,0,0,2
11:31.614,248981,t,0,0,5
11:31.728,249022,t,0,0,5
11:31.794,249046,),0,0,2
11:32.203,249193,(,0,0,1
11:32.244,249208,N,0,0,0
11:32.269,249217,),0,0,1
11:32.492,249297,(,0,0,2
11:32.586,249331,t,0,0,5
11:32.703,249373,t,0,0,5
11:32.781,249401,),0,0,2
11:33.106,249518,(,0,0,1
11:33.133,249528,N,0,0,0
11:33.156,249536,),0,0,1
11:33.325,249597,(,0,0,2
11:33.442,249639,t,0,0,5
11:33.564,249683,t,0,0,5
11:33.622,249704,),0,0,2
11:33.908,249807,(,0,0,1
11:33.986,249835,N,0,0,0
11:34.008,249843,),0,0,1
11:34.200,249912,(,0,0,2
11:34.300,249948,t,0,0,5
11:34.422,249992,t,0,0,5
11:34.486,250015,),0,0,2
11:34.906,250166,(,0,0,1
11:34.936,250177,N,0,0,0
11:34.961,250186,),0,0,1
11:35.164,250259,(,0,0,2
11:35.283,250302,t,0,0,5
11:35.400,250344,t,0,0,5
11:35.483,250374,),0,0,2
11:35.878,250516,(,0,0,1
11:35.944,250540,N,0,0,0
11:35.969,250549,),0,0,1
11:36.161,250618,(,0,0,2
11:36.258,250653,t,0,0,5
11:36.378,250696,t,0,0,5
11:36.453,250723,),0,0,2
11:36.808,250851,(,0,0,1
11:36.839,250862,N,0,0,0
11:36.861,250870,),0,0,1
11:37.022,250928,(,0,0,2
11:37.150,250974,t,0,0,5
11:37.269,251017,t,0,0,5
11:37.331,251039,),0,0,2
11:37.744,251188,(,0,0,1
11:37.775,251199,N,0,0,0
11:37.797,251207,),0,0,1
11:37.978,251272,(,0,0,2
11:38.111,251320,t,0,0,5
11:38.228,251362,t,0,0,5
11:38.294,251386,),0,0,2
11:38.689,251528,(,0,0,1
11:38.719,251539,N,0,0,0
11:38.742,251547,),0,0,1
11:38.956,251624,(,0,0,2
11:39.061,251662,t,0,0,5
11:39.189,251708,t,0,0,5
11:39.250,251730,),0,0,2
11:39.639,251870,(,0,0,1
11:39.667,251880,N,0,0,0
11:39.689,251888,),0,0,1
11:39.875,251955,(,0,0,2
11:39.983,251994,t,0,0,5
11:40.122,252044,t,0,0,5
11:40.194,252070,),0,0,2
11:40.511,252184,(,0,0,1
11:40.547,252197,N,0,0,0
11:40.569,252205,),0,0,1
11:40.775,252279,(,0,0,2
11:40.867,252312,t,0,0,5
11:40.992,252357,t,0,0,5
11:41.058,252381,),0,0,2
11:41.378,252496,(,0,0,1
11:41.419,252511,N,0,0,0
11:41.442,252519,),0,0,1
11:41.639,252590,(,0,0,2
11:41.744,252628,t,0,0,5
11:41.867,252672,t,0,0,5
11:41.933,252696,),0,0,2
11:42.378,252856,(,0,0,1
11:42.406,252866,N,0,0,0
11:42.428,252874,),0,0,1
11:42.636,252949,(,0,0,2
11:42.758,252993,t,0,0,5
11:42.875,253035,t,0,0,5
11:42.933,253056,),0,0,2
11:43.381,253217,(,0,0,1
11:43.406,253226,N,0,0,0
11:43.431,253235,),0,0,1
11:43.592,253293,(,0,0,2
11:43.706,253334,t,0,0,5
11:43.850,253386,t,0,0,5
11:43.928,253414,),0,0,2
11:44.214,253517,(,0,0,1
11:44.283,253542,N,0,0,0
11:44.306,253550,),0,0,1
11:44.506,253622,(,0,0,2
11:44.597,253655,t,0,0,5
11:44.725,253701,t,0,0,5
11:44.794,253726,),0,0,2
11:45.278,253900,(,0,0,1
11:45.306,253910,N,0,0,0
11:45.331,253919,),0,0,1
11:45.517,253986,(,0,0,2
11:45.642,254031,t,0,0,5
11:45.756,254072,t,0,0,5
11:45.836,254101,),0,0,2
11:46.317,254274,(,0,0,1
11:46.367,254292,N,0,0,0
11:46.389,254300,),0,0,1
11:46.561,254362,(,0,0,2
11:46.708,254415,t,0,0,5
11:46.817,254454,t,0,0,5
11:46.897,254483,),0,0,2
11:47.225,254601,(,0,0,1
11:47.297,254627,N,0,0,0
11:47.319,254635,),0,0,1
11:47.514,254705,(,0,0,2
11:47.617,254742,t,0,0,5
11:47.739,254786,t,0,0,5
11:47.800,254808,),0,0,2
11:48.117,254922,(,0,0,1
11:48.183,254946,N,0,0,0
11:48.206,254954,),0,0,1
11:48.419,255031,(,0,0,2
11:48.503,255061,t,0,0,5
11:48.628,255106,t,0,0,5
11:48.675,255123,),0,0,2
11:49.022,255248,(,0,0,1
11:49.083,255270,N,0,0,0
11:49.108,255279,),0,0,1
11:49.311,255352,(,0,0,2
11:49.436,255397,t,0,0,5
11:49.544,255436,t,0,0,5
11:49.625,255465,),0,0,2
11:50.042,255615,(,0,0,1
11:50.069,255625,N,0,0,0
11:50.092,255633,),0,0,1
11:50.339,255722,(,0,0,2
11:50.403,255745,t,0,0,5
11:50.531,255791,t,0,0,5
11:50.606,255818,),0,0,2
11:50.914,255929,(,0,0,1
11:50.944,255940,N,0,0,0
11:50.967,255948,),0,0,1
11:51.144,256012,(,0,0,2
11:51.267,256056,t,0,0,5
11:51.381,256097,t,0,0,5
11:51.442,256119,),0,0,2
11:51.822,256256,(,0,0,1
11:51.869,256273,N,0,0,0
11:51.894,256282,),0,0,1
11:52.094,256354,(,0,0,2
11:52.206,256394,t,0,0,5
11:52.325,256437,t,0,0,5
11:52.406,256466,),0,0,2
11:52.928,256654,(,0,0,1
11:52.997,256679,N,0,0,0
11:53.019,256687,),0,0,1
11:53.189,256748,(,0,0,2
11:53.342,256803,t,0,0,5
11:53.439,256838,t,0,0,5
11:53.533,256872,),0,0,2
11:54.975,257391,(,0,0,1
11:55.003,257401,N,0,0,0
11:55.025,257409,),0,0,1
11:55.222,257480,(,0,0,2
11:55.336,257521,t,0,0,5
11:55.461,257566,t,0,0,5
11:55.517,257586,),0,0,2
11:55.919,257731,(,0,0,1
11:55.950,257742,N,0,0,0
11:55.972,257750,),0,0,1
11:56.156,257816,(,0,0,2
11:56.281,257861,t,0,0,5
11:56.417,257910,t,0,0,5
11:56.475,257931,),0,0,2
11:56.897,258083,(,0,0,1
11:56.967,258108,N,0,0,0
11:56.989,258116,),0,0,1
11:57.189,258188,(,0,0,2
11:57.331,258239,t,0,0,5
11:57.431,258275,t,0,0,5
11:57.517,258306,),0,0,2
11:57.797,258407,(,0,0,1
11:57.856,258428,N,0,0,0
11:57.878,258436,),0,0,1
11:58.092,258513,(,0,0,2
11:58.186,258547,t,0,0,5
11:58.322,258596,t,0,0,5
11:58.383,258618,),0,0,2
11:58.658,258717,(,0,0,1
11:58.706,258734,N,0,0,0
11:58.728,258742,),0,0,1
11:58.939,258818,(,0,0,2
11:59.031,258851,t,0,0,5
11:59.158,258897,t,0,0,5
11:59.222,258920,),0,0,2
11:59.528,259030,(,0,0,1
11:59.575,259047,N,0,0,0
11:59.597,259055,),0,0,1
11:59.803,259129,(,0,0,2
11:59.919,259171,t,0,0,5
12:00.042,259215,t,0,0,5
12:00.108,259239,),0,0,2
12:00.397,259343,(,0,0,1
12:00.461,259366,N,0,0,0
12:00.483,259374,),0,0,1
12:00.714,259457,(,0,0,2
12:00.814,259493,t,0,0,5
12:00.925,259533,t,0,0,5
12:01.011,259564,),0,0,2
12:01.300,259668,(,0,0,1
12:01.328,259678,N,0,0,0
12:01.353,259687,),0,0,1
12:01.581,259769,(,0,0,2
12:01.672,259802,t,0,0,5
12:01.800,259848,t,0,0,5
12:01.867,259872,),0,0,2
12:02.161,259978,(,0,0,1
12:02.233,260004,N,0,0,0
12:02.256,260012,),0,0,1
12:02.461,260086,(,0,0,2
12:02.572,260126,t,0,0,5
12:02.697,260171,t,0,0,5
12:02.767,260196,),0,0,2
12:03.128,260326,(,0,0,1
12:03.150,260334,N,0,0,0
12:03.175,260343,),0,0,1
12:03.364,260411,(,0,0,2
12:03.481,260453,t,0,0,5
12:03.603,260497,t,0,0,5
12:03.683,260526,),0,0,2
12:04.031,260651,(,0,0,1
12:04.064,260663,N,0,0,0
12:04.086,260671,),0,0,1
12:04.322,260756,(,0,0,2
12:04.414,260789,t,0,0,0
12:04.492,260817,),0,0,2
12:04.936,260977,(,0,0,1
12:04.967,260988,N,0,0,0
12:04.992,260997,),0,0,1
12:05.194,261070,(,0,0,2
12:05.300,261108,t,0,0,5
12:05.436,261157,t,0,0,5
12:05.497,261179,),0,0,2
12:05.872,261314,(,0,0,1
12:05.933,261336,N,0,0,0
12:05.956,261344,),0,0,1
12:06.156,261416,(,0,0,2
12:06.267,261456,t,0,0,5
12:06.386,261499,t,0,0,5
12:06.483,261534,),0,0,2
12:06.997,261719,(,0,0,1
12:07.028,261730,N,0,0,0
12:07.050,261738,),0,0,1
12:07.233,261804,(,0,0,2
12:07.369,261853,t,0,0,5
12:07.497,261899,t,0,0,5
12:07.536,261913,),0,0,2
12:07.969,262069,(,0,0,1
12:08.000,262080,N,0,0,0
12:08.022,262088,),0,0,1
12:08.244,262168,(,0,0,2
12:08.319,262195,t,0,0,5
12:08.447,262241,t,0,0,5
12:08.522,262268,),0,0,2
12:08.875,262395,(,0,0,1
12:08.933,262416,N,0,0,0
12:08.956,262424,),0,0,1
12:09.164,262499,(,0,0,2
12:09.264,262535,t,0,0,5
12:09.378,262576,t,0,0,5
12:09.442,262599,),0,0,2
12:09.775,262719,(,0,0,1
12:09.836,262741,N,0,0,0
12:09.861,262750,),0,0,1
12:10.064,262823,(,0,0,2
12:10.167,262860,t,0,0,5
12:10.267,262896,t,0,0,5
12:10.333,262920,),0,0,2
12:10.642,263031,(,0,0,1
12:10.708,263055,N,0,0,0
12:10.731,263063,),0,0,1
12:10.903,263125,(,0,0,2
12:11.047,263177,t,0,0,5
12:11.158,263217,t,0,0,5
12:11.219,263239,),0,0,2
12:11.508,263343,(,0,0,1
12:11.572,263366,N,0,0,0
12:11.594,263374,),0,0,1
12:11.794,263446,(,0,0,2
12:11.914,263489,t,0,0,5
12:12.036,263533,t,0,0,5
12:12.108,263559,),0,0,2
12:12.408,263667,(,0,0,1
12:12.453,263683,N,0,0,0
12:12.475,263691,),0,0,1
12:12.694,263770,(,0,0,2
12:12.794,263806,t,0,0,5
12:12.917,263850,t,0,0,5
12:12.981,263873,),0,0,2
12:13.242,263967,(,0,0,1
12:13.308,263991,N,0,0,0
12:13.333,264000,),0,0,1
12:13.544,264076,(,0,0,2
12:13.647,264113,t,0,0,5
12:13.769,264157,t,0,0,5
12:13.847,264185,),0,0,2
12:14.108,264279,(,0,0,1
12:14.183,264306,N,0,0,0
12:14.206,264314,),0,0,1
12:14.411,264388,(,0,0,2
12:14.522,264428,t,0,0,5
12:14.636,264469,t,0,0,5
12:14.686,264487,),0,0,2
12:14.981,264593,(,0,0,1
12:15.008,264603,N,0,0,0
12:15.031,264611,),0,0,1
12:15.233,264684,(,0,0,2
12:15.344,264724,t,0,0,5
12:15.469,264769,t,0,0,5
12:15.533,264792,),0,0,2
12:15.806,264890,(,0,0,1
12:15.872,264914,N,0,0,0
12:15.897,264923,),0,0,1
12:16.128,265006,(,0,0,2
12:16.222,265040,t,0,0,5
12:16.350,265086,t,0,0,5
12:16.417,265110,),0,0,2
12:16.744,265228,(,0,0,1
12:16.789,265244,N,0,0,0
12:16.814,265253,),0,0,1
12:17.039,265334,(,0,0,2
12:17.131,265367,t,0,0,5
12:17.267,265416,t,0,0,5
12:17.311,265432,),0,0,2
12:17.617,265542,(,0,0,1
12:17.675,265563,N,0,0,0
12:17.697,265571,),0,0,1
12:17.897,265643,(,0,0,2
12:18.008,265683,t,0,0,5
12:18.108,265719,t,0,0,5
12:18.192,265749,),0,0,2
12:18.506,265862,(,0,0,1
12:18.533,265872,N,0,0,0
12:18.556,265880,),0,0,1
12:18.764,265955,(,0,0,2
12:18.883,265998,t,0,0,5
12:18.992,266037,t,0,0,5
12:19.081,266069,),0,0,2
12:19.381,266177,(,0,0,1
12:19.408,266187,N,0,0,0
12:19.431,266195,),0,0,1
12:19.617,266262,(,0,0,2
12:19.731,266303,t,0,0,5
12:19.853,266347,t,0,0,5
12:19.933,266376,),0,0,2
12:20.214,266477,(,0,0,1
12:20.258,266493,N,0,0,0
12:20.281,266501,),0,0,1
12:20.453,266563,(,0,0,2
12:20.578,266608,t,0,0,5
12:20.700,266652,t,0,0,5
12:20.758,266673,),0,0,2
12:21.014,266765,(,0,0,1
12:21.075,266787,N,0,0,0
12:21.100,266796,),0,0,1
12:21.283,266862,(,0,0,2
12:21.403,266905,t,0,0,5
12:21.531,266951,t,0,0,5
12:21.589,266972,),0,0,2
12:21.844,267064,(,0,0,1
12:21.892,267081,N,0,0,0
12:21.914,267089,),0,0,1
12:22.108,267159,(,0,0,2
12:22.219,267199,t,0,0,5
12:22.342,267243,t,0,0,5
12:22.431,267275,),0,0,2
12:22.744,267388,(,0,0,1
12:22.783,267402,N,0,0,0
12:22.806,267410,),0,0,1
12:23.011,267484,(,0,0,2
12:23.125,267525,t,0,0,5
12:23.253,267571,t,0,0,5
12:23.331,267599,),0,0,2
12:23.722,267740,(,0,0,1
12:23.756,267752,N,0,0,0
12:23.778,267760,),0,0,1
12:23.972,267830,(,0,0,2
12:24.069,267865,t,0,0,5
12:24.200,267912,t,0,0,5
12:24.275,267939,),0,0,2
12:24.583,268050,(,0,0,1
12:24.628,268066,N,0,0,0
12:24.650,268074,),0,0,1
12:24.811,268132,(,0,0,2
12:24.953,268183,t,0,0,5
12:25.075,268227,t,0,0,5
12:25.136,268249,),0,0,2
12:25.569,268405,(,0,0,1
12:25.597,268415,N,0,0,0
12:25.619,268423,),0,0,1
12:25.842,268503,(,0,0,2
12:25.947,268541,t,0,0,5
12:26.081,268589,t,0,0,5
12:26.158,268617,),0,0,2
12:26.722,268820,(,0,0,1
12:26.783,268842,N,0,0,0
12:26.808,268851,),0,0,1
12:27.042,268935,(,0,0,2
12:27.100,268956,t,0,0,5
12:27.242,269007,t,0,0,5
12:27.306,269030,),0,0,2
12:27.719,269179,(,0,0,1
12:27.786,269203,N,0,0,0
12:27.811,269212,),0,0,1
12:28.014,269285,(,0,0,2
12:28.100,269316,t,0,0,5
12:28.250,269370,t,0,0,5
12:28.294,269386,),0,0,2
12:28.722,269540,(,0,0,1
12:28.761,269554,N,0,0,0
12:28.783,269562,),0,0,1
12:28.978,269632,(,0,0,2
12:29.086,269671,t,0,0,5
12:29.203,269713,t,0,0,5
12:29.267,269736,),0,0,2
12:29.756,269912,(,0,0,1
12:29.786,269923,N,0,0,0
12:29.808,269931,),0,0,1
12:30.019,270007,(,0,0,2
12:30.125,270045,t,0,0,5
12:30.250,270090,t,0,0,5
12:30.311,270112,),0,0,2
12:30.689,270248,(,0,0,1
12:30.767,270276,N,0,0,0
12:30.792,270285,),0,0,1
12:30.983,270354,(,0,0,2
12:31.075,270387,t,0,0,5
12:31.192,270429,t,0,0,5
12:31.267,270456,),0,0,2
12:31.619,270583,(,0,0,1
12:31.650,270594,N,0,0,0
12:31.672,270602,),0,0,1
12:31.883,270678,(,0,0,2
12:31.975,270711,t,0,0,5
12:32.092,270753,t,0,0,5
12:32.164,270779,),0,0,2
12:32.550,270918,(,0,0,1
12:32.578,270928,N,0,0,0
12:32.600,270936,),0,0,1
12:32.808,271011,(,0,0,2
12:32.925,271053,t,0,0,5
12:33.292,271185,t,0,0,5
12:33.403,271225,),0,0,2
12:35.297,271907,(,0,0,1
12:35.358,271929,N,0,0,0
12:35.381,271937,),0,0,1
12:35.586,272011,(,0,0,2
12:35.700,272052,t,0,0,5
12:35.825,272097,t,0,0,5
12:35.878,272116,),0,0,2
12:36.289,272264,(,0,0,1
12:36.317,272274,N,0,0,0
12:36.342,272283,),0,0,1
12:36.556,272360,(,0,0,2
12:36.667,272400,t,0,0,5
12:36.792,272445,t,0,0,5
12:36.875,272475,),0,0,2
12:38.333,273000,(,0,0,1
12:38.375,273015,N,0,0,0
12:38.400,273024,),0,0,1
12:38.625,273105,(,0,0,2
12:38.708,273135,t,0,0,5
12:38.831,273179,t,0,0,5
12:38.881,273197,),0,0,2
12:39.231,273323,(,0,0,1
12:39.261,273334,N,0,0,0
12:39.283,273342,),0,0,1
12:39.456,273404,(,0,0,2
12:39.597,273455,t,0,0,5
12:39.725,273501,t,0,0,5
12:39.783,273522,),0,0,2
12:40.200,273672,(,0,0,1
12:40.231,273683,N,0,0,0
12:40.253,273691,),0,0,1
12:40.458,273765,(,0,0,2
12:40.572,273806,t,0,0,5
12:40.692,273849,t,0,0,5
12:40.756,273872,),0,0,2
12:41.200,274032,(,0,0,1
12:41.253,274051,N,0,0,0
12:41.278,274060,),0,0,1
12:41.467,274128,(,0,0,2
12:41.569,274165,t,0,0,5
12:41.697,274211,t,0,0,5
12:41.753,274231,),0,0,2
12:42.131,274367,(,0,0,1
12:42.183,274386,N,0,0,0
12:42.206,274394,),0,0,1
12:42.394,274462,(,0,0,2
12:42.497,274499,t,0,0,5
12:42.619,274543,t,0,0,5
12:42.681,274565,),0,0,2
12:43.006,274682,(,0,0,1
12:43.075,274707,N,0,0,0
12:43.097,274715,),0,0,1
12:43.272,274778,(,0,0,2
12:43.381,274817,t,0,0,5
12:43.506,274862,t,0,0,5
12:43.553,274879,),0,0,2
12:43.969,275029,(,0,0,1
12:44.019,275047,N,0,0,0
12:44.044,275056,),0,0,1
12:44.261,275134,(,0,0,2
12:44.356,275168,t,0,0,5
12:44.742,275307,t,0,0,5
12:44.872,275354,),0,0,2
12:46.775,276039,(,0,0,1
12:46.850,276066,N,0,0,0
12:46.872,276074,),0,0,1
12:47.089,276152,(,0,0,2
12:47.197,276191,t,0,0,5
12:47.314,276233,t,0,0,5
12:47.397,276263,),0,0,2
12:47.756,276392,(,0,0,1
12:47.817,276414,N,0,0,0
12:47.839,276422,),0,0,1
12:48.181,276545,(,0,0,2
12:48.403,276625,t,0,0,1
12:48.594,276694,),0,0,2
12:50.514,277385,(,0,0,1
12:50.583,277410,N,0,0,0
12:50.606,277418,),0,0,1
12:50.781,277481,(,0,0,2
12:50.925,277533,t,0,0,5
12:51.050,277578,t,0,0,5
12:51.122,277604,),0,0,2
12:51.511,277744,(,0,0,1
12:51.583,277770,N,0,0,0
12:51.608,277779,),0,0,1
12:51.800,277848,(,0,0,2
12:51.944,277900,t,0,0,5
12:52.053,277939,t,0,0,5
12:52.092,277953,),0,0,2
12:52.506,278102,(,0,0,1
12:52.533,278112,N,0,0,0
12:52.556,278120,),0,0,1
12:52.714,278177,(,0,0,2
12:52.839,278222,t,0,0,5
12:52.989,278276,t,0,0,5
12:53.044,278296,),0,0,2
12:53.378,278416,(,0,0,1
12:53.408,278427,N,0,0,0
12:53.431,278435,),0,0,1
12:53.639,278510,(,0,0,2
12:53.725,278541,t,0,0,5
12:53.847,278585,t,0,0,5
12:53.919,278611,),0,0,2
12:54.300,278748,(,0,0,1
12:54.331,278759,N,0,0,0
12:54.353,278767,),0,0,1
12:54.706,278894,(,0,0,2
12:54.922,278972,t,0,0,1
12:55.103,279037,),0,0,2
12:56.925,279693,(,0,0,1
12:56.953,279703,N,0,0,0
12:56.975,279711,),0,0,1
12:57.319,279835,(,0,0,2
12:57.553,279919,t,0,0,1
12:57.786,280003,),0,0,2
13:00.283,280902,(,0,0,1
13:00.308,280911,N,0,0,0
13:00.331,280919,),0,0,1
13:00.528,280990,(,0,0,2
13:00.633,281028,t,0,0,5
13:00.769,281077,t,0,0,5
13:00.833,281100,),0,0,2
13:01.147,281213,(,0,0,1
13:01.175,281223,N,0,0,0
13:01.200,281232,),0,0,1
13:01.547,281357,(,0,0,2
13:01.750,281430,t,0,0,1
13:01.917,281490,),0,0,2
13:03.694,282130,(,0,0,1
13:03.758,282153,N,0,0,0
13:03.781,282161,),0,0,1
13:03.972,282230,(,0,0,2
13:04.089,282272,t,0,0,5
13:04.214,282317,t,0,0,5
13:04.272,282338,),0,0,2
13:04.589,282452,(,0,0,1
13:04.636,282469,N,0,0,0
13:04.661,282478,),0,0,1
13:04.992,282597,(,0,0,2
13:05.200,282672,t,0,0,1
13:05.375,282735,),0,0,2
13:06.419,283111,(,0,0,1
13:06.444,283120,N,0,0,0
13:06.467,283128,),0,0,1
13:06.636,283189,(,0,0,2
13:06.767,283236,t,0,0,0
13:06.858,283269,),0,0,2
13:07.219,283399,(,0,0,1
13:07.272,283418,N,0,0,0
13:07.294,283426,),0,0,1
13:07.483,283494,(,0,0,2
13:07.589,283532,t,0,0,5
13:07.711,283576,t,0,0,5
13:07.775,283599,),0,0,2
13:08.156,283736,(,0,0,1
13:08.189,283748,N,0,0,0
13:08.214,283757,),0,0,1
13:08.436,283837,(,0,0,2
13:08.542,283875,t,0,0,5
13:08.672,283922,t,0,0,5
13:08.747,283949,),0,0,2
13:10.997,284759,(,0,0,1
13:11.028,284770,N,0,0,0
13:11.053,284779,),0,0,1
13:11.281,284861,(,0,0,2
13:11.375,284895,t,0,0,5
13:11.500,284940,t,0,0,5
13:11.569,284965,),0,0,2
13:12.825,285417,(,0,0,1
13:12.853,285427,N,0,0,0
13:12.875,285435,),0,0,1
13:13.100,285516,(,0,0,2
13:13.197,285551,t,0,0,5
13:13.322,285596,t,0,0,5
13:13.381,285617,),0,0,2
13:13.631,285707,(,0,0,1
13:13.694,285730,N,0,0,0
13:13.717,285738,),0,0,1
13:13.917,285810,(,0,0,2
13:14.022,285848,t,0,0,5
13:14.144,285892,t,0,0,5
13:14.236,285925,),0,0,2
13:14.531,286031,(,0,0,1
13:14.558,286041,N,0,0,0
13:14.583,286050,),0,0,1
13:14.794,286126,(,0,0,2
13:14.883,286158,t,0,0,5
13:15.003,286201,t,0,0,5
13:15.083,286230,),0,0,2
13:15.369,286333,(,0,0,1
13:15.442,286359,N,0,0,0
13:15.467,286368,),0,0,1
13:15.658,286437,(,0,0,2
13:15.797,286487,t,0,0,5
13:15.911,286528,t,0,0,5
13:15.983,286554,),0,0,2
13:17.969,287269,(,0,0,1
13:17.997,287279,N,0,0,0
13:18.022,287288,),0,0,1
13:18.247,287369,(,0,0,2
13:18.331,287399,t,0,0,5
13:18.467,287448,t,0,0,5
13:18.525,287469,),0,0,2
13:18.906,287606,(,0,0,1
13:18.950,287622,N,0,0,0
13:18.975,287631,),0,0,1
13:19.158,287697,(,0,0,2
13:19.294,287746,t,0,0,5
13:19.406,287786,t,0,0,5
13:19.492,287817,),0,0,2
13:19.778,287920,(,0,0,1
13:19.847,287945,N,0,0,0
13:19.869,287953,),0,0,1
13:20.097,288035,(,0,0,2
13:20.186,288067,t,0,0,5
13:20.306,288110,t,0,0,5
13:20.378,288136,),0,0,2
13:20.669,288241,(,0,0,1
13:20.711,288256,N,0,0,0
13:20.733,288264,),0,0,1
13:20.947,288341,(,0,0,2
13:21.033,288372,t,0,0,5
13:21.161,288418,t,0,0,5
13:21.239,288446,),0,0,2
13:21.539,288554,(,0,0,1
13:21.594,288574,N,0,0,0
13:21.617,288582,),0,0,1
13:21.833,288660,(,0,0,2
13:21.922,288692,t,0,0,5
13:22.044,288736,t,0,0,5
13:22.117,288762,),0,0,2
13:22.439,288878,(,0,0,1
13:22.517,288906,N,0,0,0
13:22.539,288914,),0,0,1
13:22.742,288987,(,0,0,2
13:22.861,289030,t,0,0,5
13:22.975,289071,t,0,0,5
13:23.056,289100,),0,0,2
13:23.372,289214,(,0,0,1
13:23.417,289230,N,0,0,0
13:23.439,289238,),0,0,1
13:23.628,289306,(,0,0,2
13:23.742,289347,t,0,0,0
13:23.831,289379,),0,0,2
13:24.236,289525,(,0,0,1
13:24.261,289534,N,0,0,0
13:24.283,289542,),0,0,1
13:24.472,289610,(,0,0,2
13:24.575,289647,t,0,0,5
13:24.700,289692,t,0,0,5
13:24.775,289719,),0,0,2
13:25.242,289887,(,0,0,1
13:25.269,289897,N,0,0,0
13:25.294,289906,),0,0,1
13:25.511,289984,(,0,0,2
13:25.619,290023,t,0,0,5
13:25.742,290067,t,0,0,5
13:25.828,290098,),0,0,2
13:26.308,290271,(,0,0,1
13:26.364,290291,N,0,0,0
13:26.389,290300,),0,0,1
13:26.600,290376,(,0,0,2
13:26.681,290405,t,0,0,5
13:26.825,290457,t,0,0,5
13:26.892,290481,),0,0,2
13:27.328,290638,(,0,0,1
13:27.358,290649,N,0,0,0
13:27.381,290657,),0,0,1
13:27.603,290737,(,0,0,2
13:27.683,290766,t,0,0,5
13:27.811,290812,t,0,0,5
13:27.886,290839,),0,0,2
13:28.250,290970,(,0,0,1
13:28.328,290998,N,0,0,0
13:28.353,291007,),0,0,1
13:28.547,291077,(,0,0,2
13:28.664,291119,t,0,0,5
13:28.778,291160,t,0,0,5
13:28.836,291181,),0,0,2
13:29.247,291329,(,0,0,1
13:29.303,291349,N,0,0,0
13:29.325,291357,),0,0,1
13:29.542,291435,(,0,0,2
13:29.650,291474,t,0,0,5
13:29.758,291513,t,0,0,5
13:29.842,291543,),0,0,2
13:30.219,291679,(,0,0,1
13:30.294,291706,N,0,0,0
13:30.317,291714,),0,0,1
13:30.533,291792,(,0,0,2
13:30.628,291826,t,0,0,5
13:30.736,291865,t,0,0,5
13:30.817,291894,),0,0,2
13:31.144,292012,(,0,0,1
13:31.172,292022,N,0,0,0
13:31.194,292030,),0,0,1
13:31.392,292101,(,0,0,2
13:31.494,292138,t,0,0,5
13:31.606,292178,t,0,0,5
13:31.683,292206,),0,0,2
13:32.042,292335,(,0,0,1
13:32.072,292346,N,0,0,0
13:32.097,292355,),0,0,1
13:32.275,292419,(,0,0,2
13:32.400,292464,t,0,0,5
13:32.778,292600,t,0,0,5
13:32.864,292631,),0,0,2
13:34.919,293371,(,0,0,1
13:34.964,293387,N,0,0,0
13:34.986,293395,),0,0,1
13:35.206,293474,(,0,0,2
13:35.275,293499,t,0,0,5
13:35.408,293547,t,0,0,5
13:35.464,293567,),0,0,2
13:35.908,293727,(,0,0,1
13:35.942,293739,N,0,0,0
13:35.964,293747,),0,0,1
13:36.164,293819,(,0,0,2
13:36.264,293855,t,0,0,5
13:36.386,293899,t,0,0,5
13:36.469,293929,),0,0,2
13:36.972,294110,(,0,0,1
13:37.003,294121,N,0,0,0
13:37.025,294129,),0,0,1
13:37.219,294199,(,0,0,2
13:37.331,294239,t,0,0,5
13:37.481,294293,t,0,0,5
13:37.531,294311,),0,0,2
13:37.953,294463,(,0,0,1
13:37.983,294474,N,0,0,0
13:38.006,294482,),0,0,1
13:38.225,294561,(,0,0,2
13:38.286,294583,t,0,0,5
13:38.447,294641,t,0,0,5
13:38.508,294663,),0,0,2
13:38.819,294775,(,0,0,1
13:38.867,294792,N,0,0,0
13:38.889,294800,),0,0,1
13:39.050,294858,(,0,0,2
13:39.189,294908,t,0,0,5
13:39.542,295035,t,0,0,5
13:39.647,295073,),0,0,2
13:41.719,295819,(,0,0,1
13:41.764,295835,N,0,0,0
13:41.786,295843,),0,0,1
13:41.983,295914,(,0,0,2
13:42.075,295947,t,0,0,5
13:42.222,296000,t,0,0,5
13:42.272,296018,),0,0,2
13:42.589,296132,(,0,0,1
13:42.619,296143,N,0,0,0
13:42.644,296152,),0,0,1
13:42.847,296225,(,0,0,2
13:42.944,296260,t,0,0,5
13:43.072,296306,t,0,0,5
13:43.133,296328,),0,0,2
13:43.475,296451,(,0,0,1
13:43.500,296460,N,0,0,0
13:43.522,296468,),0,0,1
13:43.747,296549,(,0,0,2
13:43.842,296583,t,0,0,5
13:43.950,296622,t,0,0,5
13:44.036,296653,),0,0,2
13:44.450,296802,(,0,0,1
13:44.481,296813,N,0,0,0
13:44.503,296821,),0,0,1
13:44.850,296946,(,0,0,2
13:45.031,297011,t,0,0,1
13:45.172,297062,),0,0,2
13:46.161,297418,(,0,0,1
13:46.203,297433,N,0,0,0
13:46.228,297442,),0,0,1
13:46.431,297515,(,0,0,2
13:46.533,297552,t,0,0,5
13:46.650,297594,t,0,0,5
13:46.719,297619,),0,0,2
13:47.844,298024,(,0,0,0
13:47.897,298043,p,0,0,0
13:47.953,298063,),0,0,0
13:48.050,298098,(,0,0,1
13:48.081,298109,N,0,0,0
13:48.125,298125,),0,0,1
13:48.325,298197,(,0,0,2
13:48.436,298237,t,0,0,5
13:48.547,298277,t,0,0,5
13:48.603,298297,),0,0,2
13:48.822,298376,(,0,0,0
13:48.872,298394,p,0,0,0
13:48.922,298412,),0,0,0
13:49.028,298450,(,0,0,1
13:49.061,298462,N,0,0,0
13:49.103,298477,),0,0,1
13:49.261,298534,(,0,0,2
13:49.378,298576,t,0,0,5
13:49.514,298625,t,0,0,5
13:49.581,298649,),0,0,2
13:49.703,298693,(,0,0,0
13:49.750,298710,p,0,0,0
13:49.803,298729,),0,0,0
13:49.900,298764,(,0,0,1
13:49.933,298776,N,0,0,0
13:49.975,298791,),0,0,1
13:50.172,298862,(,0,0,2
13:50.258,298893,t,0,0,5
13:50.386,298939,t,0,0,5
13:50.444,298960,),0,0,2
13:50.644,299032,(,0,0,0
13:50.697,299051,p,0,0,0
13:50.744,299068,),0,0,0
13:50.842,299103,(,0,0,1
13:50.872,299114,N,0,0,0
13:50.917,299130,),0,0,1
13:51.097,299195,(,0,0,2
13:51.214,299237,t,0,0,5
13:51.325,299277,t,0,0,5
13:51.381,299297,),0,0,2
13:51.603,299377,(,0,0,0
13:51.653,299395,p,0,0,0
13:51.700,299412,),0,0,0
13:51.817,299454,(,0,0,1
13:51.850,299466,N,0,0,0
13:51.892,299481,),0,0,1
13:52.086,299551,(,0,0,2
13:52.194,299590,t,0,0,5
13:52.314,299633,t,0,0,5
13:52.356,299648,),0,0,2
13:52.494,299698,(,0,0,0
13:52.539,299714,p,0,0,0
13:52.592,299733,),0,0,0
13:52.689,299768,(,0,0,1
13:52.719,299779,N,0,0,0
13:52.764,299795,),0,0,1
13:52.958,299865,(,0,0,2
13:53.033,299892,t,0,0,5
13:53.167,299940,t,0,0,5
13:53.239,299966,),0,0,2
13:53.356,300008,(,0,0,0
13:53.403,300025,p,0,0,0
13:53.456,300044,),0,0,0
13:53.544,300076,(,0,0,1
13:53.575,300087,N,0,0,0
13:53.619,300103,),0,0,1
13:53.792,300165,(,0,0,2
13:53.903,300205,t,0,0,5
13:54.028,300250,t,0,0,5
13:54.081,300269,),0,0,2
13:54.239,300326,(,0,0,0
13:54.286,300343,p,0,0,0
13:54.336,300361,),0,0,0
13:54.442,300399,(,0,0,1
13:54.472,300410,N,0,0,0
13:54.514,300425,),0,0,1
13:54.697,300491,(,0,0,2
13:54.808,300531,t,0,0,5
13:54.908,300567,t,0,0,5
13:54.981,300593,),0,0,2
13:55.164,300659,(,0,0,0
13:55.214,300677,p,0,0,0
13:55.269,300697,),0,0,0
13:55.367,300732,(,0,0,1
13:55.400,300744,N,0,0,0
13:55.442,300759,),0,0,1
13:55.608,300819,(,0,0,2
13:55.719,300859,t,0,0,5
13:55.842,300903,t,0,0,5
13:55.908,300927,),0,0,2
13:56.053,300979,(,0,0,0
13:56.100,300996,p,0,0,0
13:56.153,301015,),0,0,0
13:56.250,301050,(,0,0,1
13:56.283,301062,N,0,0,0
13:56.322,301076,),0,0,1
13:56.511,301144,(,0,0,2
13:56.606,301178,t,0,0,5
13:56.728,301222,t,0,0,5
13:56.797,301247,),0,0,2
13:56.925,301293,(,0,0,0
13:56.978,301312,p,0,0,0
13:57.028,301330,),0,0,0
13:57.128,301366,(,0,0,1
13:57.161,301378,N,0,0,0
13:57.200,301392,),0,0,1
13:57.392,301461,(,0,0,2
13:57.486,301495,t,0,0,5
13:57.603,301537,t,0,0,5
13:57.678,301564,),0,0,2
13:57.847,301625,(,0,0,0
13:57.897,301643,p,0,0,0
13:57.944,301660,),0,0,0
13:58.044,301696,(,0,0,1
