Elapsedtime,sample,Type,Sub,Chan,Num
0:00.614,221,(,0,0,0
0:00.650,234,p,0,0,0
0:00.692,249,),0,0,0
0:00.733,264,(,0,0,1
0:00.783,282,N,0,0,0
0:00.822,296,),0,0,1
0:00.908,327,(,0,0,2
0:01.008,363,t,0,0,0
0:01.086,391,),0,0,2
0:01.386,499,(,0,0,0
0:01.419,511,p,0,0,0
0:01.464,527,),0,0,0
0:01.511,544,(,0,0,1
0:01.556,560,N,0,0,0
0:01.597,575,),0,0,1
0:01.706,614,(,0,0,2
0:01.797,647,t,0,0,0
0:01.881,677,),0,0,2
0:02.119,763,(,0,0,0
0:02.186,787,p,0,0,0
0:02.239,806,),0,0,0
0:02.278,820,(,0,0,1
0:02.325,837,N,0,0,0
0:02.364,851,),0,0,1
0:02.478,892,(,0,0,2
0:02.561,922,t,0,0,0
0:02.642,951,),0,0,2
0:02.886,1039,(,0,0,0
0:02.936,1057,p,0,0,0
0:02.986,1075,),0,0,0
0:03.019,1087,(,0,0,1
0:03.067,1104,N,0,0,0
0:03.103,1117,),0,0,1
0:03.200,1152,(,0,0,2
0:03.297,1187,t,0,0,0
0:03.378,1216,),0,0,2
0:03.606,1298,(,0,0,0
0:03.672,1322,p,0,0,0
0:03.719,1339,),0,0,0
0:03.753,1351,(,0,0,1
0:03.800,1368,N,0,0,0
0:03.842,1383,),0,0,1
0:03.947,1421,(,0,0,2
0:04.028,1450,t,0,0,0
0:04.114,1481,),0,0,2
0:04.386,1579,(,0,0,0
0:04.422,1592,p,0,0,0
0:04.467,1608,),0,0,0
0:04.503,1621,(,0,0,1
0:04.550,1638,N,0,0,0
0:04.589,1652,),0,0,1
0:04.694,1690,(,0,0,2
0:04.789,1724,t,0,0,0
0:04.867,1752,),0,0,2
0:05.114,1841,(,0,0,0
0:05.161,1858,p,0,0,0
0:05.211,1876,),0,0,0
0:05.253,1891,(,0,0,1
0:05.303,1909,N,0,0,0
0:05.342,1923,),0,0,1
0:05.444,1960,(,0,0,2
0:05.536,1993,t,0,0,0
0:05.619,2023,),0,0,2
0:05.861,2110,(,0,0,0
0:05.925,2133,p,0,0,0
0:05.975,2151,),0,0,0
0:06.008,2163,(,0,0,1
0:06.053,2179,N,0,0,0
0:06.094,2194,),0,0,1
0:06.178,2224,(,0,0,2
0:06.278,2260,t,0,0,0
0:06.361,2290,),0,0,2
0:06.600,2376,(,0,0,0
0:06.664,2399,p,0,0,0
0:06.717,2418,),0,0,0
0:06.750,2430,(,0,0,1
0:06.797,2447,N,0,0,0
0:06.836,2461,),0,0,1
0:06.928,2494,(,0,0,2
0:07.022,2528,t,0,0,0
0:07.103,2557,),0,0,2
0:07.353,2647,(,0,0,0
0:07.408,2667,p,0,0,0
0:07.461,2686,),0,0,0
0:07.494,2698,(,0,0,1
0:07.550,2718,N,0,0,0
0:07.589,2732,),0,0,1
0:07.689,2768,(,0,0,2
0:07.792,2805,t,0,0,0
0:07.872,2834,),0,0,2
0:08.106,2918,(,0,0,0
0:08.164,2939,p,0,0,0
0:08.211,2956,),0,0,0
0:08.250,2970,(,0,0,1
0:08.294,2986,N,0,0,0
0:08.333,3000,),0,0,1
0:08.447,3041,(,0,0,2
0:08.533,3072,t,0,0,0
0:08.614,3101,),0,0,2
0:08.853,3187,(,0,0,0
0:08.914,3209,p,0,0,0
0:08.964,3227,),0,0,0
0:08.997,3239,(,0,0,1
0:09.042,3255,N,0,0,0
0:09.081,3269,),0,0,1
0:09.183,3306,(,0,0,2
0:09.272,3338,t,0,0,0
0:09.353,3367,),0,0,2
0:09.597,3455,(,0,0,0
0:09.667,3480,p,0,0,0
0:09.714,3497,),0,0,0
0:09.725,3501,(,0,0,1
0:09.800,3528,N,0,0,0
0:09.839,3542,),0,0,1
0:09.928,3574,(,0,0,2
0:10.028,3610,t,0,0,0
0:10.106,3638,),0,0,2
0:10.350,3726,(,0,0,0
0:10.408,3747,p,0,0,0
0:10.461,3766,),0,0,0
0:10.497,3779,(,0,0,1
0:10.542,3795,N,0,0,0
0:10.581,3809,),0,0,1
0:10.678,3844,(,0,0,2
0:10.769,3877,t,0,0,0
0:10.853,3907,),0,0,2
0:11.097,3995,(,0,0,0
0:11.161,4018,p,0,0,0
0:11.208,4035,),0,0,0
0:11.250,4050,(,0,0,1
0:11.294,4066,N,0,0,0
0:11.336,4081,),0,0,1
0:11.439,4118,(,0,0,2
0:11.536,4153,t,0,0,0
0:11.619,4183,),0,0,2
0:11.875,4275,(,0,0,0
0:11.928,4294,p,0,0,0
0:11.983,4314,),0,0,0
0:12.017,4326,(,0,0,1
0:12.067,4344,N,0,0,0
0:12.106,4358,),0,0,1
0:12.203,4393,(,0,0,2
0:12.292,4425,t,0,0,0
0:12.378,4456,),0,0,2
0:12.628,4546,(,0,0,0
0:12.681,4565,p,0,0,0
0:12.731,4583,),0,0,0
0:12.767,4596,(,0,0,1
0:12.817,4614,N,0,0,0
0:12.856,4628,),0,0,1
0:12.947,4661,(,0,0,2
0:13.047,4697,t,0,0,0
0:13.125,4725,),0,0,2
0:13.369,4813,(,0,0,0
0:13.436,4837,p,0,0,0
0:13.489,4856,),0,0,0
0:13.522,4868,(,0,0,1
0:13.572,4886,N,0,0,0
0:13.614,4901,),0,0,1
0:13.719,4939,(,0,0,2
0:13.811,4972,t,0,0,0
0:13.894,5002,),0,0,2
0:14.178,5104,(,0,0,0
0:14.208,5115,p,0,0,0
0:14.253,5131,),0,0,0
0:14.264,5135,(,0,0,1
0:14.342,5163,N,0,0,0
0:14.383,5178,),0,0,1
0:14.492,5217,(,0,0,2
0:14.583,5250,t,0,0,0
0:14.667,5280,),0,0,2
0:15.050,5418,(,0,0,1
0:15.094,5434,N,0,0,0
0:15.133,5448,),0,0,1
0:15.219,5479,(,0,0,2
0:15.311,5512,t,0,0,0
0:15.397,5543,),0,0,2
0:15.797,5687,(,0,0,1
0:15.847,5705,N,0,0,0
0:15.886,5719,),0,0,1
0:15.983,5754,(,0,0,2
0:16.075,5787,t,0,0,0
0:16.158,5817,),0,0,2
0:16.403,5905,(,0,0,0
0:16.469,5929,p,0,0,0
0:16.514,5945,),0,0,0
0:16.528,5950,(,0,0,1
0:16.600,5976,N,0,0,0
0:16.642,5991,),0,0,1
0:16.750,6030,(,0,0,2
0:16.833,6060,t,0,0,0
0:16.911,6088,),0,0,2
0:17.186,6187,(,0,0,0
0:17.236,6205,p,0,0,0
0:17.286,6223,),0,0,0
0:17.325,6237,(,0,0,1
0:17.372,6254,N,0,0,0
0:17.411,6268,),0,0,1
0:17.514,6305,(,0,0,2
0:17.608,6339,t,0,0,0
0:17.692,6369,),0,0,2
0:17.956,6464,(,0,0,0
0:18.014,6485,p,0,0,0
0:18.061,6502,),0,0,0
0:18.094,6514,(,0,0,1
0:18.144,6532,N,0,0,0
0:18.181,6545,),0,0,1
0:18.278,6580,(,0,0,2
0:18.375,6615,t,0,0,0
0:18.453,6643,),0,0,2
0:18.725,6741,(,0,0,0
0:18.764,6755,p,0,0,0
0:18.808,6771,),0,0,0
0:18.850,6786,(,0,0,1
0:18.894,6802,N,0,0,0
0:18.936,6817,),0,0,1
0:19.036,6853,(,0,0,2
0:19.125,6885,t,0,0,0
0:19.206,6914,),0,0,2
0:19.464,7007,(,0,0,0
0:19.536,7033,p,0,0,0
0:19.589,7052,),0,0,0
0:19.628,7066,(,0,0,1
0:19.678,7084,N,0,0,0
0:19.719,7099,),0,0,1
0:19.828,7138,(,0,0,2
0:19.914,7169,t,0,0,0
0:20.000,7200,),0,0,2
0:20.250,7290,(,0,0,0
0:20.308,7311,p,0,0,0
0:20.364,7331,),0,0,0
0:20.400,7344,(,0,0,1
0:20.442,7359,N,0,0,0
0:20.481,7373,),0,0,1
0:20.592,7413,(,0,0,2
0:20.681,7445,t,0,0,0
0:20.764,7475,),0,0,2
0:21.042,7575,(,0,0,0
0:21.075,7587,p,0,0,0
0:21.128,7606,),0,0,0
0:21.161,7618,(,0,0,1
0:21.200,7632,N,0,0,0
0:21.242,7647,),0,0,1
0:21.333,7680,(,0,0,2
0:21.425,7713,t,0,0,0
0:21.511,7744,),0,0,2
0:21.769,7837,(,0,0,0
0:21.842,7863,p,0,0,0
0:21.883,7878,),0,0,0
0:21.925,7893,(,0,0,1
0:21.969,7909,N,0,0,0
0:22.011,7924,),0,0,1
0:22.108,7959,(,0,0,2
0:22.197,7991,t,0,0,0
0:22.283,8022,),0,0,2
0:22.539,8114,(,0,0,0
0:22.600,8136,p,0,0,0
0:22.647,8153,),0,0,0
0:22.683,8166,(,0,0,1
0:22.731,8183,N,0,0,0
0:22.769,8197,),0,0,1
0:22.872,8234,(,0,0,2
0:22.956,8264,t,0,0,0
0:23.042,8295,),0,0,2
0:23.292,8385,(,0,0,0
0:23.353,8407,p,0,0,0
0:23.419,8431,),0,0,0
0:23.447,8441,(,0,0,1
0:23.492,8457,N,0,0,0
0:23.533,8472,),0,0,1
0:23.631,8507,(,0,0,2
0:23.739,8546,t,0,0,0
0:23.822,8576,),0,0,2
0:24.081,8669,(,0,0,0
0:24.144,8692,p,0,0,0
0:24.192,8709,),0,0,0
0:24.231,8723,(,0,0,1
0:24.272,8738,N,0,0,0
0:24.311,8752,),0,0,1
0:24.414,8789,(,0,0,2
0:24.506,8822,t,0,0,0
0:24.589,8852,),0,0,2
0:24.833,8940,(,0,0,0
0:24.889,8960,p,0,0,0
0:24.944,8980,),0,0,0
0:24.981,8993,(,0,0,1
0:25.025,9009,N,0,0,0
0:25.067,9024,),0,0,1
0:25.186,9067,(,0,0,2
0:25.256,9092,t,0,0,0
0:25.336,9121,),0,0,2
0:25.572,9206,(,0,0,0
0:25.647,9233,p,0,0,0
0:25.694,9250,),0,0,0
0:25.733,9264,(,0,0,1
0:25.783,9282,N,0,0,0
0:25.825,9297,),0,0,1
0:25.917,9330,(,0,0,2
0:26.022,9368,t,0,0,0
0:26.111,9400,),0,0,2
0:26.358,9489,(,0,0,0
0:26.428,9514,p,0,0,0
0:26.472,9530,),0,0,0
0:26.511,9544,(,0,0,1
0:26.556,9560,N,0,0,0
0:26.594,9574,),0,0,1
0:26.703,9613,(,0,0,2
0:26.794,9646,t,0,0,0
0:26.872,9674,),0,0,2
0:27.119,9763,(,0,0,0
0:27.183,9786,p,0,0,0
0:27.225,9801,),0,0,0
0:27.267,9816,(,0,0,1
0:27.306,9830,N,0,0,0
0:27.344,9844,),0,0,1
0:27.447,9881,(,0,0,2
0:27.531,9911,t,0,0,0
0:27.622,9944,),0,0,2
0:27.861,10030,(,0,0,0
0:27.928,10054,p,0,0,0
0:27.969,10069,),0,0,0
0:28.008,10083,(,0,0,1
0:28.058,10101,N,0,0,0
0:28.097,10115,),0,0,1
0:28.197,10151,(,0,0,2
0:28.278,10180,t,0,0,0
0:28.367,10212,),0,0,2
0:28.611,10300,(,0,0,0
0:28.678,10324,p,0,0,0
0:28.725,10341,),0,0,0
0:28.767,10356,(,0,0,1
0:28.811,10372,N,0,0,0
0:28.850,10386,),0,0,1
0:28.956,10424,(,0,0,2
0:29.042,10455,t,0,0,0
0:29.128,10486,),0,0,2
0:29.394,10582,(,0,0,0
0:29.428,10594,p,0,0,0
0:29.481,10613,),0,0,0
0:29.511,10624,(,0,0,1
0:29.561,10642,N,0,0,0
0:29.600,10656,),0,0,1
0:29.697,10691,(,0,0,2
0:29.797,10727,t,0,0,0
0:29.875,10755,),0,0,2
0:30.136,10849,(,0,0,0
0:30.197,10871,p,0,0,0
0:30.244,10888,),0,0,0
0:30.281,10901,(,0,0,1
0:30.325,10917,N,0,0,0
0:30.367,10932,),0,0,1
0:30.478,10972,(,0,0,2
0:30.556,11000,t,0,0,0
0:30.633,11028,),0,0,2
0:30.886,11119,(,0,0,0
0:30.942,11139,p,0,0,0
0:30.994,11158,),0,0,0
0:31.036,11173,(,0,0,1
0:31.078,11188,N,0,0,0
0:31.117,11202,),0,0,1
0:31.211,11236,(,0,0,2
0:31.306,11270,t,0,0,0
0:31.386,11299,),0,0,2
0:31.664,11399,(,0,0,0
0:31.694,11410,p,0,0,0
0:31.744,11428,),0,0,0
0:31.781,11441,(,0,0,1
0:31.831,11459,N,0,0,0
0:31.872,11474,),0,0,1
0:31.989,11516,(,0,0,2
0:32.072,11546,t,0,0,0
0:32.156,11576,),0,0,2
0:32.403,11665,(,0,0,0
0:32.464,11687,p,0,0,0
0:32.514,11705,),0,0,0
0:32.550,11718,(,0,0,1
0:32.594,11734,N,0,0,0
0:32.631,11747,),0,0,1
0:32.750,11790,(,0,0,2
0:32.831,11819,t,0,0,0
0:32.917,11850,),0,0,2
0:33.172,11942,(,0,0,0
0:33.233,11964,p,0,0,0
0:33.286,11983,),0,0,0
0:33.319,11995,(,0,0,1
0:33.364,12011,N,0,0,0
0:33.403,12025,),0,0,1
0:33.503,12061,(,0,0,2
0:33.586,12091,t,0,0,0
0:33.664,12119,),0,0,2
0:33.908,12207,(,0,0,0
0:33.978,12232,p,0,0,0
0:34.031,12251,),0,0,0
0:34.072,12266,(,0,0,1
0:34.117,12282,N,0,0,0
0:34.158,12297,),0,0,1
0:34.256,12332,(,0,0,2
0:34.344,12364,t,0,0,0
0:34.422,12392,),0,0,2
0:34.672,12482,(,0,0,0
0:34.722,12500,p,0,0,0
0:34.781,12521,),0,0,0
0:34.814,12533,(,0,0,1
0:34.864,12551,N,0,0,0
0:34.903,12565,),0,0,1
0:34.997,12599,(,0,0,2
0:35.092,12633,t,0,0,0
0:35.169,12661,),0,0,2
0:35.428,12754,(,0,0,0
0:35.489,12776,p,0,0,0
0:35.542,12795,),0,0,0
0:35.550,12798,(,0,0,1
0:35.625,12825,N,0,0,0
0:35.664,12839,),0,0,1
0:35.775,12879,(,0,0,2
0:35.864,12911,t,0,0,0
0:35.939,12938,),0,0,2
0:36.219,13039,(,0,0,0
0:36.281,13061,p,0,0,0
0:36.339,13082,),0,0,0
0:36.375,13095,(,0,0,1
0:36.419,13111,N,0,0,0
0:36.458,13125,),0,0,1
0:36.558,13161,(,0,0,2
0:36.647,13193,t,0,0,0
0:36.733,13224,),0,0,2
0:36.989,13316,(,0,0,0
0:37.050,13338,p,0,0,0
0:37.094,13354,),0,0,0
0:37.142,13371,(,0,0,1
0:37.183,13386,N,0,0,0
0:37.222,13400,),0,0,1
0:37.314,13433,(,0,0,2
0:37.417,13470,t,0,0,0
0:37.494,13498,),0,0,2
0:37.758,13593,(,0,0,0
0:37.817,13614,p,0,0,0
0:37.869,13633,),0,0,0
0:37.911,13648,(,0,0,1
0:37.961,13666,N,0,0,0
0:38.000,13680,),0,0,1
0:38.117,13722,(,0,0,2
0:38.211,13756,t,0,0,0
0:38.297,13787,),0,0,2
0:38.550,13878,(,0,0,0
0:38.614,13901,p,0,0,0
0:38.672,13922,),0,0,0
0:38.706,13934,(,0,0,1
0:38.747,13949,N,0,0,0
0:38.786,13963,),0,0,1
0:38.900,14004,(,0,0,2
0:38.981,14033,t,0,0,0
0:39.067,14064,),0,0,2
0:39.339,14162,(,0,0,0
0:39.372,14174,p,0,0,0
0:39.422,14192,),0,0,0
0:39.458,14205,(,0,0,1
0:39.500,14220,N,0,0,0
0:39.539,14234,),0,0,1
0:39.636,14269,(,0,0,2
0:39.725,14301,t,0,0,0
0:39.800,14328,),0,0,2
0:40.067,14424,(,0,0,0
0:40.128,14446,p,0,0,0
0:40.181,14465,),0,0,0
0:40.219,14479,(,0,0,1
0:40.267,14496,N,0,0,0
0:40.306,14510,),0,0,1
0:40.411,14548,(,0,0,2
0:40.497,14579,t,0,0,0
0:40.578,14608,),0,0,2
0:40.831,14699,(,0,0,0
0:40.897,14723,p,0,0,0
0:40.944,14740,),0,0,0
0:40.986,14755,(,0,0,1
0:41.031,14771,N,0,0,0
0:41.072,14786,),0,0,1
0:41.175,14823,(,0,0,2
0:41.264,14855,t,0,0,0
0:41.339,14882,),0,0,2
0:41.592,14973,(,0,0,0
0:41.656,14996,p,0,0,0
0:41.703,15013,),0,0,0
0:41.744,15028,(,0,0,1
0:41.789,15044,N,0,0,0
0:41.825,15057,),0,0,1
0:41.939,15098,(,0,0,2
0:42.019,15127,t,0,0,0
0:42.103,15157,),0,0,2
0:42.506,15302,(,0,0,1
0:42.550,15318,N,0,0,0
0:42.592,15333,),0,0,1
0:42.697,15371,(,0,0,2
0:42.781,15401,t,0,0,0
0:42.858,15429,),0,0,2
0:43.114,15521,(,0,0,0
0:43.172,15542,p,0,0,0
0:43.219,15559,),0,0,0
0:43.256,15572,(,0,0,1
0:43.303,15589,N,0,0,0
0:43.342,15603,),0,0,1
0:43.450,15642,(,0,0,2
0:43.533,15672,t,0,0,0
0:43.614,15701,),0,0,2
0:43.867,15792,(,0,0,0
0:43.925,15813,p,0,0,0
0:43.975,15831,),0,0,0
0:44.017,15846,(,0,0,1
0:44.061,15862,N,0,0,0
0:44.100,15876,),0,0,1
0:44.217,15918,(,0,0,2
0:44.306,15950,t,0,0,0
0:44.383,15978,),0,0,2
0:44.639,16070,(,0,0,0
0:44.689,16088,p,0,0,0
0:44.744,16108,),0,0,0
0:44.783,16122,(,0,0,1
0:44.825,16137,N,0,0,0
0:44.864,16151,),0,0,1
0:44.967,16188,(,0,0,2
0:45.058,16221,t,0,0,0
0:45.136,16249,),0,0,2
0:45.406,16346,(,0,0,0
0:45.464,16367,p,0,0,0
0:45.514,16385,),0,0,0
0:45.550,16398,(,0,0,1
0:45.594,16414,N,0,0,0
0:45.631,16427,),0,0,1
0:45.733,16464,(,0,0,2
0:45.817,16494,t,0,0,0
0:45.897,16523,),0,0,2
0:46.144,16612,(,0,0,0
0:46.208,16635,p,0,0,0
0:46.258,16653,),0,0,0
0:46.300,16668,(,0,0,1
0:46.350,16686,N,0,0,0
0:46.389,16700,),0,0,1
0:46.486,16735,(,0,0,2
0:46.578,16768,t,0,0,0
0:46.656,16796,),0,0,2
0:46.906,16886,(,0,0,0
0:46.953,16903,p,0,0,0
0:47.008,16923,),0,0,0
0:47.047,16937,(,0,0,1
0:47.092,16953,N,0,0,0
0:47.131,16967,),0,0,1
0:47.239,17006,(,0,0,2
0:47.319,17035,t,0,0,0
0:47.408,17067,),0,0,2
0:47.653,17155,(,0,0,0
0:47.722,17180,p,0,0,0
0:47.767,17196,),0,0,0
0:47.811,17212,(,0,0,1
0:47.858,17229,N,0,0,0
0:47.897,17243,),0,0,1
0:48.000,17280,(,0,0,2
0:48.094,17314,t,0,0,0
0:48.181,17345,),0,0,2
0:48.447,17441,(,0,0,0
0:48.511,17464,p,0,0,0
0:48.558,17481,),0,0,0
0:48.597,17495,(,0,0,1
0:48.642,17511,N,0,0,0
0:48.681,17525,),0,0,1
0:48.792,17565,(,0,0,2
0:48.872,17594,t,0,0,0
0:48.956,17624,),0,0,2
0:49.222,17720,(,0,0,0
0:49.275,17739,p,0,0,0
0:49.325,17757,),0,0,0
0:49.367,17772,(,0,0,1
0:49.414,17789,N,0,0,0
0:49.453,17803,),0,0,1
0:49.561,17842,(,0,0,2
0:49.644,17872,t,0,0,0
0:49.728,17902,),0,0,2
0:49.989,17996,(,0,0,0
0:50.050,18018,p,0,0,0
0:50.103,18037,),0,0,0
0:50.147,18053,(,0,0,1
0:50.192,18069,N,0,0,0
0:50.233,18084,),0,0,1
0:50.350,18126,(,0,0,2
0:50.442,18159,t,0,0,0
0:50.522,18188,),0,0,2
0:50.778,18280,(,0,0,0
0:50.844,18304,p,0,0,0
0:50.889,18320,),0,0,0
0:50.925,18333,(,0,0,1
0:50.975,18351,N,0,0,0
0:51.014,18365,),0,0,1
0:51.119,18403,(,0,0,2
0:51.206,18434,t,0,0,0
0:51.289,18464,),0,0,2
0:51.561,18562,(,0,0,0
0:51.625,18585,p,0,0,0
0:51.681,18605,),0,0,0
0:51.714,18617,(,0,0,1
0:51.753,18631,N,0,0,0
0:51.794,18646,),0,0,1
0:51.886,18679,(,0,0,2
0:51.978,18712,t,0,0,0
0:52.061,18742,),0,0,2
0:52.328,18838,(,0,0,0
0:52.397,18863,p,0,0,0
0:52.458,18885,),0,0,0
0:52.489,18896,(,0,0,1
0:52.533,18912,N,0,0,0
0:52.572,18926,),0,0,1
0:52.681,18965,(,0,0,2
0:52.764,18995,t,0,0,0
0:52.847,19025,),0,0,2
0:53.103,19117,(,0,0,0
0:53.167,19140,p,0,0,0
0:53.217,19158,),0,0,0
0:53.256,19172,(,0,0,1
0:53.297,19187,N,0,0,0
0:53.339,19202,),0,0,1
0:53.436,19237,(,0,0,2
0:53.531,19271,t,0,0,0
0:53.611,19300,),0,0,2
0:53.875,19395,(,0,0,0
0:53.936,19417,p,0,0,0
0:53.992,19437,),0,0,0
0:54.033,19452,(,0,0,1
0:54.078,19468,N,0,0,0
0:54.114,19481,),0,0,1
0:54.219,19519,(,0,0,2
0:54.314,19553,t,0,0,0
0:54.400,19584,),0,0,2
0:54.672,19682,(,0,0,0
0:54.736,19705,p,0,0,0
0:54.789,19724,),0,0,0
0:54.825,19737,(,0,0,1
0:54.869,19753,N,0,0,0
0:54.908,19767,),0,0,1
0:55.014,19805,(,0,0,2
0:55.100,19836,t,0,0,0
0:55.181,19865,),0,0,2
0:55.453,19963,(,0,0,0
0:55.486,19975,p,0,0,0
0:55.542,19995,),0,0,0
0:55.581,20009,(,0,0,1
0:55.625,20025,N,0,0,0
0:55.667,20040,),0,0,1
0:55.761,20074,(,0,0,2
0:55.856,20108,t,0,0,0
0:55.931,20135,),0,0,2
0:56.200,20232,(,0,0,0
0:56.261,20254,p,0,0,0
0:56.317,20274,),0,0,0
0:56.356,20288,(,0,0,1
0:56.403,20305,N,0,0,0
0:56.442,20319,),0,0,1
0:56.550,20358,(,0,0,2
0:56.644,20392,t,0,0,0
0:56.725,20421,),0,0,2
0:56.989,20516,(,0,0,0
0:57.053,20539,p,0,0,0
0:57.103,20557,),0,0,0
0:57.142,20571,(,0,0,1
0:57.186,20587,N,0,0,0
0:57.228,20602,),0,0,1
0:57.344,20644,(,0,0,2
0:57.425,20673,t,0,0,0
0:57.508,20703,),0,0,2
0:57.775,20799,(,0,0,0
0:57.828,20818,p,0,0,0
0:57.875,20835,),0,0,0
0:57.914,20849,(,0,0,1
0:57.956,20864,N,0,0,0
0:57.992,20877,),0,0,1
0:58.111,20920,(,0,0,2
0:58.181,20945,t,0,0,0
0:58.258,20973,),0,0,2
0:58.536,21073,(,0,0,0
0:58.600,21096,p,0,0,0
0:58.650,21114,),0,0,0
0:58.692,21129,(,0,0,1
0:58.736,21145,N,0,0,0
0:58.775,21159,),0,0,1
0:58.869,21193,(,0,0,2
0:58.964,21227,t,0,0,0
0:59.036,21253,),0,0,2
0:59.308,21351,(,0,0,0
0:59.369,21373,p,0,0,0
0:59.417,21390,),0,0,0
0:59.456,21404,(,0,0,1
0:59.500,21420,N,0,0,0
0:59.542,21435,),0,0,1
0:59.642,21471,(,0,0,2
0:59.739,21506,t,0,0,0
0:59.819,21535,),0,0,2
1:00.075,21627,(,0,0,0
1:00.139,21650,p,0,0,0
1:00.194,21670,),0,0,0
1:00.228,21682,(,0,0,1
1:00.275,21699,N,0,0,0
1:00.314,21713,),0,0,1
1:00.422,21752,(,0,0,2
1:00.511,21784,t,0,0,0
1:00.600,21816,),0,0,2
1:00.872,21914,(,0,0,0
1:00.936,21937,p,0,0,0
1:00.989,21956,),0,0,0
1:01.022,21968,(,0,0,1
1:01.067,21984,N,0,0,0
1:01.103,21997,),0,0,1
1:01.208,22035,(,0,0,2
1:01.300,22068,t,0,0,0
1:01.386,22099,),0,0,2
1:01.642,22191,(,0,0,0
1:01.706,22214,p,0,0,0
1:01.758,22233,),0,0,0
1:01.800,22248,(,0,0,1
1:01.839,22262,N,0,0,0
1:01.878,22276,),0,0,1
1:01.989,22316,(,0,0,2
1:02.072,22346,t,0,0,0
1:02.158,22377,),0,0,2
1:02.428,22474,(,0,0,0
1:02.497,22499,p,0,0,0
1:02.547,22517,),0,0,0
1:02.586,22531,(,0,0,1
1:02.633,22548,N,0,0,0
1:02.675,22563,),0,0,1
1:02.789,22604,(,0,0,2
1:02.872,22634,t,0,0,0
1:02.953,22663,),0,0,2
1:03.200,22752,(,0,0,0
1:03.264,22775,p,0,0,0
1:03.317,22794,),0,0,0
1:03.358,22809,(,0,0,1
1:03.400,22824,N,0,0,0
1:03.442,22839,),0,0,1
1:03.550,22878,(,0,0,2
1:03.636,22909,t,0,0,0
1:03.717,22938,),0,0,2
1:03.964,23027,(,0,0,0
1:04.025,23049,p,0,0,0
1:04.075,23067,),0,0,0
1:04.114,23081,(,0,0,1
1:04.158,23097,N,0,0,0
1:04.197,23111,),0,0,1
1:04.283,23142,(,0,0,2
1:04.392,23181,t,0,0,0
1:04.472,23210,),0,0,2
1:04.747,23309,(,0,0,0
1:04.808,23331,p,0,0,0
1:04.858,23349,),0,0,0
1:04.897,23363,(,0,0,1
1:04.939,23378,N,0,0,0
1:04.978,23392,),0,0,1
1:05.078,23428,(,0,0,2
1:05.172,23462,t,0,0,0
1:05.256,23492,),0,0,2
1:05.508,23583,(,0,0,0
1:05.569,23605,p,0,0,0
1:05.619,23623,),0,0,0
1:05.661,23638,(,0,0,1
1:05.703,23653,N,0,0,0
1:05.742,23667,),0,0,1
1:05.853,23707,(,0,0,2
1:05.931,23735,t,0,0,0
1:06.017,23766,),0,0,2
1:06.267,23856,(,0,0,0
1:06.333,23880,p,0,0,0
1:06.386,23899,),0,0,0
1:06.422,23912,(,0,0,1
1:06.469,23929,N,0,0,0
1:06.508,23943,),0,0,1
1:06.631,23987,(,0,0,2
1:06.708,24015,t,0,0,0
1:06.789,24044,),0,0,2
1:07.053,24139,(,0,0,0
1:07.111,24160,p,0,0,0
1:07.158,24177,),0,0,0
1:07.194,24190,(,0,0,1
1:07.242,24207,N,0,0,0
1:07.281,24221,),0,0,1
1:07.378,24256,(,0,0,2
1:07.478,24292,t,0,0,0
1:07.556,24320,),0,0,2
1:07.814,24413,(,0,0,0
1:07.875,24435,p,0,0,0
1:07.925,24453,),0,0,0
1:07.958,24465,(,0,0,1
1:08.003,24481,N,0,0,0
1:08.039,24494,),0,0,1
1:08.153,24535,(,0,0,2
1:08.231,24563,t,0,0,0
1:08.311,24592,),0,0,2
1:08.572,24686,(,0,0,0
1:08.642,24711,p,0,0,0
1:08.694,24730,),0,0,0
1:08.736,24745,(,0,0,1
1:08.781,24761,N,0,0,0
1:08.819,24775,),0,0,1
1:08.928,24814,(,0,0,2
1:09.014,24845,t,0,0,0
1:09.092,24873,),0,0,2
1:09.358,24969,(,0,0,0
1:09.428,24994,p,0,0,0
1:09.478,25012,),0,0,0
1:09.517,25026,(,0,0,1
1:09.564,25043,N,0,0,0
1:09.600,25056,),0,0,1
1:09.714,25097,(,0,0,2
1:09.797,25127,t,0,0,0
1:09.878,25156,),0,0,2
1:10.122,25244,(,0,0,0
1:10.172,25262,p,0,0,0
1:10.225,25281,),0,0,0
1:10.258,25293,(,0,0,1
1:10.306,25310,N,0,0,0
1:10.347,25325,),0,0,1
1:10.461,25366,(,0,0,2
1:10.544,25396,t,0,0,0
1:10.622,25424,),0,0,2
1:10.889,25520,(,0,0,0
1:10.950,25542,p,0,0,0
1:11.000,25560,),0,0,0
1:11.039,25574,(,0,0,1
1:11.086,25591,N,0,0,0
1:11.122,25604,),0,0,1
1:11.228,25642,(,0,0,2
1:11.314,25673,t,0,0,0
1:11.397,25703,),0,0,2
1:11.653,25795,(,0,0,0
1:11.714,25817,p,0,0,0
1:11.764,25835,),0,0,0
1:11.806,25850,(,0,0,1
1:11.853,25867,N,0,0,0
1:11.892,25881,),0,0,1
1:11.997,25919,(,0,0,2
1:12.089,25952,t,0,0,0
1:12.175,25983,),0,0,2
1:12.433,26076,(,0,0,0
1:12.497,26099,p,0,0,0
1:12.544,26116,),0,0,0
1:12.589,26132,(,0,0,1
1:12.636,26149,N,0,0,0
1:12.675,26163,),0,0,1
1:12.789,26204,(,0,0,2
1:12.878,26236,t,0,0,0
1:12.967,26268,),0,0,2
1:13.197,26351,(,0,0,0
1:13.261,26374,p,0,0,0
1:13.308,26391,),0,0,0
1:13.347,26405,(,0,0,1
1:13.397,26423,N,0,0,0
1:13.436,26437,),0,0,1
1:13.544,26476,(,0,0,2
1:13.628,26506,t,0,0,0
1:13.700,26532,),0,0,2
1:13.961,26626,(,0,0,0
1:14.028,26650,p,0,0,0
1:14.069,26665,),0,0,0
1:14.111,26680,(,0,0,1
1:14.158,26697,N,0,0,0
1:14.194,26710,),0,0,1
1:14.300,26748,(,0,0,2
1:14.397,26783,t,0,0,0
1:14.478,26812,),0,0,2
1:14.744,26908,(,0,0,0
1:14.814,26933,p,0,0,0
1:14.867,26952,),0,0,0
1:14.903,26965,(,0,0,1
1:14.947,26981,N,0,0,0
1:14.983,26994,),0,0,1
1:15.094,27034,(,0,0,2
1:15.172,27062,t,0,0,0
1:15.253,27091,),0,0,2
1:15.503,27181,(,0,0,0
1:15.569,27205,p,0,0,0
1:15.619,27223,),0,0,0
1:15.658,27237,(,0,0,1
1:15.703,27253,N,0,0,0
1:15.742,27267,),0,0,1
1:15.850,27306,(,0,0,2
1:15.936,27337,t,0,0,0
1:16.011,27364,),0,0,2
1:16.258,27453,(,0,0,0
1:16.325,27477,p,0,0,0
1:16.372,27494,),0,0,0
1:16.417,27510,(,0,0,1
1:16.464,27527,N,0,0,0
1:16.500,27540,),0,0,1
1:16.608,27579,(,0,0,2
1:16.703,27613,t,0,0,0
1:16.792,27645,),0,0,2
1:17.036,27733,(,0,0,0
1:17.094,27754,p,0,0,0
1:17.144,27772,),0,0,0
1:17.178,27784,(,0,0,1
1:17.225,27801,N,0,0,0
1:17.267,27816,),0,0,1
1:17.364,27851,(,0,0,2
1:17.456,27884,t,0,0,0
1:17.536,27913,),0,0,2
1:17.794,28006,(,0,0,0
1:17.853,28027,p,0,0,0
1:17.900,28044,),0,0,0
1:17.942,28059,(,0,0,1
1:17.986,28075,N,0,0,0
1:18.025,28089,),0,0,1
1:18.139,28130,(,0,0,2
1:18.225,28161,t,0,0,0
1:18.306,28190,),0,0,2
1:18.556,28280,(,0,0,0
1:18.622,28304,p,0,0,0
1:18.681,28325,),0,0,0
1:18.714,28337,(,0,0,1
1:18.764,28355,N,0,0,0
1:18.803,28369,),0,0,1
1:18.908,28407,(,0,0,2
1:18.992,28437,t,0,0,0
1:19.069,28465,),0,0,2
1:19.350,28566,(,0,0,0
1:19.389,28580,p,0,0,0
1:19.436,28597,),0,0,0
1:19.469,28609,(,0,0,1
1:19.511,28624,N,0,0,0
1:19.553,28639,),0,0,1
1:19.644,28672,(,0,0,2
1:19.742,28707,t,0,0,0
1:19.825,28737,),0,0,2
1:20.075,28827,(,0,0,0
1:20.131,28847,p,0,0,0
1:20.178,28864,),0,0,0
1:20.214,28877,(,0,0,1
1:20.264,28895,N,0,0,0
1:20.303,28909,),0,0,1
1:20.408,28947,(,0,0,2
1:20.506,28982,t,0,0,0
1:20.586,29011,),0,0,2
1:20.839,29102,(,0,0,0
1:20.906,29126,p,0,0,0
1:20.956,29144,),0,0,0
1:20.992,29157,(,0,0,1
1:21.036,29173,N,0,0,0
1:21.078,29188,),0,0,1
1:21.178,29224,(,0,0,2
1:21.272,29258,t,0,0,0
1:21.350,29286,),0,0,2
1:21.600,29376,(,0,0,0
1:21.658,29397,p,0,0,0
1:21.714,29417,),0,0,0
1:21.742,29427,(,0,0,1
1:21.794,29446,N,0,0,0
1:21.833,29460,),0,0,1
1:21.925,29493,(,0,0,2
1:22.017,29526,t,0,0,0
1:22.097,29555,),0,0,2
1:22.339,29642,(,0,0,0
1:22.397,29663,p,0,0,0
1:22.447,29681,),0,0,0
1:22.489,29696,(,0,0,1
1:22.539,29714,N,0,0,0
1:22.578,29728,),0,0,1
1:22.678,29764,(,0,0,2
1:22.775,29799,t,0,0,0
1:22.856,29828,),0,0,2
1:23.103,29917,(,0,0,0
1:23.164,29939,p,0,0,0
1:23.211,29956,),0,0,0
1:23.250,29970,(,0,0,1
1:23.297,29987,N,0,0,0
1:23.333,30000,),0,0,1
1:23.442,30039,(,0,0,2
1:23.528,30070,t,0,0,0
1:23.608,30099,),0,0,2
1:23.850,30186,(,0,0,0
1:23.914,30209,p,0,0,0
1:23.967,30228,),0,0,0
1:24.008,30243,(,0,0,1
1:24.050,30258,N,0,0,0
1:24.092,30273,),0,0,1
1:24.189,30308,(,0,0,2
1:24.283,30342,t,0,0,0
1:24.364,30371,),0,0,2
1:24.622,30464,(,0,0,0
1:24.686,30487,p,0,0,0
1:24.739,30506,),0,0,0
1:24.781,30521,(,0,0,1
1:24.828,30538,N,0,0,0
1:24.867,30552,),0,0,1
1:24.978,30592,(,0,0,2
1:25.061,30622,t,0,0,0
1:25.144,30652,),0,0,2
1:25.397,30743,(,0,0,0
1:25.456,30764,p,0,0,0
1:25.506,30782,),0,0,0
1:25.544,30796,(,0,0,1
1:25.589,30812,N,0,0,0
1:25.628,30826,),0,0,1
1:25.744,30868,(,0,0,2
1:25.828,30898,t,0,0,0
1:25.906,30926,),0,0,2
1:26.139,31010,(,0,0,0
1:26.208,31035,p,0,0,0
1:26.258,31053,),0,0,0
1:26.294,31066,(,0,0,1
1:26.344,31084,N,0,0,0
1:26.386,31099,),0,0,1
1:26.492,31137,(,0,0,2
1:26.592,31173,t,0,0,0
1:26.689,31208,),0,0,2
1:26.928,31294,(,0,0,0
1:26.997,31319,p,0,0,0
1:27.044,31336,),0,0,0
1:27.083,31350,(,0,0,1
1:27.122,31364,N,0,0,0
1:27.164,31379,),0,0,1
1:27.267,31416,(,0,0,2
1:27.358,31449,t,0,0,0
1:27.436,31477,),0,0,2
1:27.697,31571,(,0,0,0
1:27.758,31593,p,0,0,0
1:27.808,31611,),0,0,0
1:27.850,31626,(,0,0,1
1:27.897,31643,N,0,0,0
1:27.933,31656,),0,0,1
1:28.039,31694,(,0,0,2
1:28.119,31723,t,0,0,0
1:28.206,31754,),0,0,2
1:28.442,31839,(,0,0,0
1:28.503,31861,p,0,0,0
1:28.553,31879,),0,0,0
1:28.597,31895,(,0,0,1
1:28.644,31912,N,0,0,0
1:28.686,31927,),0,0,1
1:28.792,31965,(,0,0,2
1:28.881,31997,t,0,0,0
1:28.961,32026,),0,0,2
1:29.206,32114,(,0,0,0
1:29.269,32137,p,0,0,0
1:29.319,32155,),0,0,0
1:29.356,32168,(,0,0,1
1:29.406,32186,N,0,0,0
1:29.444,32200,),0,0,1
1:29.544,32236,(,0,0,2
1:29.633,32268,t,0,0,0
1:29.711,32296,),0,0,2
1:29.964,32387,(,0,0,0
1:30.031,32411,p,0,0,0
1:30.078,32428,),0,0,0
1:30.117,32442,(,0,0,1
1:30.161,32458,N,0,0,0
1:30.200,32472,),0,0,1
1:30.306,32510,(,0,0,2
1:30.400,32544,t,0,0,0
1:30.483,32574,),0,0,2
1:30.736,32665,(,0,0,0
1:30.800,32688,p,0,0,0
1:30.853,32707,),0,0,0
1:30.892,32721,(,0,0,1
1:30.939,32738,N,0,0,0
1:30.978,32752,),0,0,1
1:31.083,32790,(,0,0,2
1:31.167,32820,t,0,0,0
1:31.247,32849,),0,0,2
1:31.494,32938,(,0,0,0
1:31.553,32959,p,0,0,0
1:31.606,32978,),0,0,0
1:31.619,32983,(,0,0,1
1:31.686,33007,N,0,0,0
1:31.728,33022,),0,0,1
1:31.819,33055,(,0,0,2
1:31.922,33092,t,0,0,0
1:32.003,33121,),0,0,2
1:32.242,33207,(,0,0,0
1:32.308,33231,p,0,0,0
1:32.356,33248,),0,0,0
1:32.403,33265,(,0,0,1
1:32.444,33280,N,0,0,0
1:32.486,33295,),0,0,1
1:32.600,33336,(,0,0,2
1:32.692,33369,t,0,0,0
1:32.778,33400,),0,0,2
1:33.042,33495,(,0,0,0
1:33.106,33518,p,0,0,0
1:33.158,33537,),0,0,0
1:33.189,33548,(,0,0,1
1:33.239,33566,N,0,0,0
1:33.275,33579,),0,0,1
1:33.381,33617,(,0,0,2
1:33.478,33652,t,0,0,0
1:33.564,33683,),0,0,2
1:33.817,33774,(,0,0,0
1:33.872,33794,p,0,0,0
1:33.922,33812,),0,0,0
1:33.958,33825,(,0,0,1
1:34.006,33842,N,0,0,0
1:34.044,33856,),0,0,1
1:34.144,33892,(,0,0,2
1:34.225,33921,t,0,0,0
1:34.303,33949,),0,0,2
1:34.567,34044,(,0,0,0
1:34.633,34068,p,0,0,0
1:34.686,34087,),0,0,0
1:34.725,34101,(,0,0,1
1:34.775,34119,N,0,0,0
1:34.811,34132,),0,0,1
1:34.917,34170,(,0,0,2
1:35.003,34201,t,0,0,0
1:35.089,34232,),0,0,2
1:35.347,34325,(,0,0,0
1:35.408,34347,p,0,0,0
1:35.458,34365,),0,0,0
1:35.497,34379,(,0,0,1
1:35.547,34397,N,0,0,0
1:35.586,34411,),0,0,1
1:35.686,34447,(,0,0,2
1:35.781,34481,t,0,0,0
1:35.867,34512,),0,0,2
1:36.125,34605,(,0,0,0
1:36.192,34629,p,0,0,0
1:36.236,34645,),0,0,0
1:36.275,34659,(,0,0,1
1:36.319,34675,N,0,0,0
1:36.364,34691,),0,0,1
1:36.469,34729,(,0,0,2
1:36.561,34762,t,0,0,0
1:36.647,34793,),0,0,2
1:36.894,34882,(,0,0,0
1:36.967,34908,p,0,0,0
1:37.019,34927,),0,0,0
1:37.056,34940,(,0,0,1
1:37.103,34957,N,0,0,0
1:37.142,34971,),0,0,1
1:37.231,35003,(,0,0,2
1:37.333,35040,t,0,0,0
1:37.417,35070,),0,0,2
1:37.456,35084,(,0,0,1
1:37.586,35131,N,0,0,0
1:37.625,35145,),0,0,1
1:37.694,35170,(,0,0,2
1:37.758,35193,t,0,0,1
1:37.842,35223,),0,0,2
1:38.447,35441,(,0,0,0
1:38.514,35465,p,0,0,0
1:38.575,35487,),0,0,0
1:38.606,35498,(,0,0,1
1:38.653,35515,N,0,0,0
1:38.694,35530,),0,0,1
1:38.817,35574,(,0,0,2
1:38.917,35610,t,0,0,0
1:39.000,35640,),0,0,2
1:39.128,35686,(,0,0,0
1:39.211,35716,p,0,0,0
1:39.278,35740,),0,0,0
1:39.381,35777,(,0,0,1
1:39.422,35792,N,0,0,0
1:39.464,35807,),0,0,1
1:39.567,35844,(,0,0,2
1:39.661,35878,t,0,0,0
1:39.739,35906,),0,0,2
1:39.786,35923,(,0,0,1
1:39.906,35966,N,0,0,0
1:39.942,35979,),0,0,1
1:39.986,35995,(,0,0,2
1:40.075,36027,t,0,0,1
1:40.158,36057,),0,0,2
1:40.756,36272,(,0,0,0
1:40.819,36295,p,0,0,0
1:40.872,36314,),0,0,0
1:40.906,36326,(,0,0,1
1:40.950,36342,N,0,0,0
1:40.992,36357,),0,0,1
1:41.094,36394,(,0,0,2
1:41.211,36436,t,0,0,0
1:41.292,36465,),0,0,2
1:41.519,36547,(,0,0,0
1:41.578,36568,p,0,0,0
1:41.628,36586,),0,0,0
1:41.672,36602,(,0,0,1
1:41.711,36616,N,0,0,0
1:41.753,36631,),0,0,1
1:41.847,36665,(,0,0,2
1:41.942,36699,t,0,0,0
1:42.025,36729,),0,0,2
1:42.264,36815,(,0,0,0
1:42.328,36838,p,0,0,0
1:42.381,36857,),0,0,0
1:42.422,36872,(,0,0,1
1:42.467,36888,N,0,0,0
1:42.506,36902,),0,0,1
1:42.611,36940,(,0,0,2
1:42.703,36973,t,0,0,0
1:42.786,37003,),0,0,2
1:43.047,37097,(,0,0,0
1:43.111,37120,p,0,0,0
1:43.164,37139,),0,0,0
1:43.200,37152,(,0,0,1
1:43.242,37167,N,0,0,0
1:43.281,37181,),0,0,1
1:43.375,37215,(,0,0,2
1:43.472,37250,t,0,0,0
1:43.553,37279,),0,0,2
1:43.803,37369,(,0,0,0
1:43.867,37392,p,0,0,0
1:43.914,37409,),0,0,0
1:43.953,37423,(,0,0,1
1:44.000,37440,N,0,0,0
1:44.036,37453,),0,0,1
1:44.131,37487,(,0,0,2
1:44.228,37522,t,0,0,0
1:44.306,37550,),0,0,2
1:44.561,37642,(,0,0,0
1:44.631,37667,p,0,0,0
1:44.686,37687,),0,0,0
1:44.728,37702,(,0,0,1
1:44.772,37718,N,0,0,0
1:44.814,37733,),0,0,1
1:44.922,37772,(,0,0,2
1:45.014,37805,t,0,0,0
1:45.094,37834,),0,0,2
1:45.342,37923,(,0,0,0
1:45.403,37945,p,0,0,0
1:45.453,37963,),0,0,0
1:45.492,37977,(,0,0,1
1:45.536,37993,N,0,0,0
1:45.575,38007,),0,0,1
1:45.681,38045,(,0,0,2
1:45.772,38078,t,0,0,0
1:45.853,38107,),0,0,2
1:46.108,38199,(,0,0,0
1:46.164,38219,p,0,0,0
1:46.214,38237,),0,0,0
1:46.250,38250,(,0,0,1
1:46.292,38265,N,0,0,0
1:46.328,38278,),0,0,1
1:46.422,38312,(,0,0,2
1:46.519,38347,t,0,0,0
1:46.597,38375,),0,0,2
1:46.864,38471,(,0,0,0
1:46.919,38491,p,0,0,0
1:46.978,38512,),0,0,0
1:47.008,38523,(,0,0,1
1:47.053,38539,N,0,0,0
1:47.094,38554,),0,0,1
1:47.197,38591,(,0,0,2
1:47.281,38621,t,0,0,0
1:47.367,38652,),0,0,2
1:47.764,38795,(,0,0,1
1:47.811,38812,N,0,0,0
1:47.853,38827,),0,0,1
1:47.953,38863,(,0,0,2
1:48.044,38896,t,0,0,0
1:48.131,38927,),0,0,2
1:48.383,39018,(,0,0,0
1:48.447,39041,p,0,0,0
1:48.497,39059,),0,0,0
1:48.533,39072,(,0,0,1
1:48.581,39089,N,0,0,0
1:48.617,39102,),0,0,1
1:48.733,39144,(,0,0,2
1:48.822,39176,t,0,0,0
1:48.906,39206,),0,0,2
1:49.161,39298,(,0,0,0
1:49.217,39318,p,0,0,0
1:49.269,39337,),0,0,0
1:49.303,39349,(,0,0,1
1:49.353,39367,N,0,0,0
1:49.397,39383,),0,0,1
1:49.494,39418,(,0,0,2
1:49.589,39452,t,0,0,0
1:49.667,39480,),0,0,2
1:50.072,39626,(,0,0,1
1:50.122,39644,N,0,0,0
1:50.164,39659,),0,0,1
1:50.267,39696,(,0,0,2
1:50.356,39728,t,0,0,0
1:50.436,39757,),0,0,2
1:50.692,39849,(,0,0,0
1:50.761,39874,p,0,0,0
1:50.817,39894,),0,0,0
1:50.858,39909,(,0,0,1
1:50.903,39925,N,0,0,0
1:50.942,39939,),0,0,1
1:51.056,39980,(,0,0,2
1:51.142,40011,t,0,0,0
1:51.217,40038,),0,0,2
1:51.472,40130,(,0,0,0
1:51.536,40153,p,0,0,0
1:51.586,40171,),0,0,0
1:51.628,40186,(,0,0,1
1:51.669,40201,N,0,0,0
1:51.711,40216,),0,0,1
1:51.828,40258,(,0,0,2
1:51.914,40289,t,0,0,0
1:51.992,40317,),0,0,2
1:52.261,40414,(,0,0,0
1:52.317,40434,p,0,0,0
1:52.367,40452,),0,0,0
1:52.400,40464,(,0,0,1
1:52.447,40481,N,0,0,0
1:52.486,40495,),0,0,1
1:52.592,40533,(,0,0,2
1:52.672,40562,t,0,0,0
1:52.758,40593,),0,0,2
1:53.025,40689,(,0,0,0
1:53.086,40711,p,0,0,0
1:53.133,40728,),0,0,0
1:53.172,40742,(,0,0,1
1:53.217,40758,N,0,0,0
1:53.256,40772,),0,0,1
1:53.350,40806,(,0,0,2
1:53.444,40840,t,0,0,0
1:53.528,40870,),0,0,2
1:53.783,40962,(,0,0,0
1:53.844,40984,p,0,0,0
1:53.892,41001,),0,0,0
1:53.933,41016,(,0,0,1
1:53.975,41031,N,0,0,0
1:54.014,41045,),0,0,1
1:54.125,41085,(,0,0,2
1:54.211,41116,t,0,0,0
1:54.292,41145,),0,0,2
1:54.553,41239,(,0,0,0
1:54.619,41263,p,0,0,0
1:54.669,41281,),0,0,0
1:54.708,41295,(,0,0,1
1:54.753,41311,N,0,0,0
1:54.794,41326,),0,0,1
1:54.900,41364,(,0,0,2
1:54.997,41399,t,0,0,0
1:55.083,41430,),0,0,2
1:55.342,41523,(,0,0,0
1:55.408,41547,p,0,0,0
1:55.456,41564,),0,0,0
1:55.494,41578,(,0,0,1
1:55.533,41592,N,0,0,0
1:55.572,41606,),0,0,1
1:55.669,41641,(,0,0,2
1:55.769,41677,t,0,0,0
1:55.847,41705,),0,0,2
1:56.106,41798,(,0,0,0
1:56.164,41819,p,0,0,0
1:56.214,41837,),0,0,0
1:56.258,41853,(,0,0,1
1:56.297,41867,N,0,0,0
1:56.333,41880,),0,0,1
1:56.436,41917,(,0,0,2
1:56.525,41949,t,0,0,0
1:56.606,41978,),0,0,2
1:56.858,42069,(,0,0,0
1:56.922,42092,p,0,0,0
1:56.978,42112,),0,0,0
1:57.019,42127,(,0,0,1
1:57.069,42145,N,0,0,0
1:57.111,42160,),0,0,1
1:57.225,42201,(,0,0,2
1:57.308,42231,t,0,0,0
1:57.392,42261,),0,0,2
1:57.636,42349,(,0,0,0
1:57.703,42373,p,0,0,0
1:57.750,42390,),0,0,0
1:57.794,42406,(,0,0,1
1:57.836,42421,N,0,0,0
1:57.875,42435,),0,0,1
1:57.972,42470,(,0,0,2
1:58.072,42506,t,0,0,0
1:58.156,42536,),0,0,2
1:58.406,42626,(,0,0,0
1:58.461,42646,p,0,0,0
1:58.511,42664,),0,0,0
1:58.547,42677,(,0,0,1
1:58.592,42693,N,0,0,0
1:58.631,42707,),0,0,1
1:58.725,42741,(,0,0,2
1:58.819,42775,t,0,0,0
1:58.900,42804,),0,0,2
1:59.158,42897,(,0,0,0
1:59.219,42919,p,0,0,0
1:59.269,42937,),0,0,0
1:59.308,42951,(,0,0,1
1:59.353,42967,N,0,0,0
1:59.392,42981,),0,0,1
1:59.497,43019,(,0,0,2
1:59.581,43049,t,0,0,0
1:59.664,43079,),0,0,2
1:59.925,43173,(,0,0,0
1:59.975,43191,p,0,0,0
2:00.028,43210,),0,0,0
2:00.069,43225,(,0,0,1
2:00.114,43241,N,0,0,0
2:00.153,43255,),0,0,1
2:00.253,43291,(,0,0,2
2:00.344,43324,t,0,0,0
2:00.428,43354,),0,0,2
2:00.683,43446,(,0,0,0
2:00.747,43469,p,0,0,0
2:00.797,43487,),0,0,0
2:00.839,43502,(,0,0,1
2:00.883,43518,N,0,0,0
2:00.919,43531,),0,0,1
2:01.033,43572,(,0,0,2
2:01.128,43606,t,0,0,0
2:01.214,43637,),0,0,2
2:01.475,43731,(,0,0,0
2:01.544,43756,p,0,0,0
2:01.594,43774,),0,0,0
2:01.631,43787,(,0,0,1
2:01.672,43802,N,0,0,0
2:01.711,43816,),0,0,1
2:01.817,43854,(,0,0,2
2:01.906,43886,t,0,0,0
2:01.994,43918,),0,0,2
2:02.242,44007,(,0,0,0
2:02.303,44029,p,0,0,0
2:02.356,44048,),0,0,0
2:02.397,44063,(,0,0,1
2:02.436,44077,N,0,0,0
2:02.478,44092,),0,0,1
2:02.583,44130,(,0,0,2
2:02.669,44161,t,0,0,0
2:02.753,44191,),0,0,2
2:03.008,44283,(,0,0,0
2:03.075,44307,p,0,0,0
2:03.131,44327,),0,0,0
2:03.172,44342,(,0,0,1
2:03.217,44358,N,0,0,0
2:03.256,44372,),0,0,1
2:03.364,44411,(,0,0,2
2:03.456,44444,t,0,0,0
2:03.539,44474,),0,0,2
2:03.794,44566,(,0,0,0
2:03.858,44589,p,0,0,0
2:03.906,44606,),0,0,0
2:03.944,44620,(,0,0,1
2:03.992,44637,N,0,0,0
2:04.031,44651,),0,0,1
2:04.139,44690,(,0,0,2
2:04.231,44723,t,0,0,0
2:04.317,44754,),0,0,2
2:04.556,44840,(,0,0,0
2:04.619,44863,p,0,0,0
2:04.669,44881,),0,0,0
2:04.706,44894,(,0,0,1
2:04.750,44910,N,0,0,0
2:04.789,44924,),0,0,1
2:04.894,44962,(,0,0,2
2:04.975,44991,t,0,0,0
2:05.061,45022,),0,0,2
2:05.217,45078,(,0,0,0
2:05.292,45105,p,0,0,0
2:05.381,45137,),0,0,0
2:05.472,45170,(,0,0,1
2:05.519,45187,N,0,0,0
2:05.556,45200,),0,0,1
2:05.644,45232,(,0,0,2
2:05.744,45268,t,0,0,0
2:05.822,45296,),0,0,2
2:06.081,45389,(,0,0,0
2:06.147,45413,p,0,0,0
2:06.194,45430,),0,0,0
2:06.233,45444,(,0,0,1
2:06.278,45460,N,0,0,0
2:06.317,45474,),0,0,1
2:06.431,45515,(,0,0,2
2:06.511,45544,t,0,0,0
2:06.592,45573,),0,0,2
2:06.856,45668,(,0,0,0
2:06.914,45689,p,0,0,0
2:06.975,45711,),0,0,0
2:07.003,45721,(,0,0,1
2:07.050,45738,N,0,0,0
2:07.092,45753,),0,0,1
2:07.206,45794,(,0,0,2
2:07.292,45825,t,0,0,0
2:07.372,45854,),0,0,2
2:07.636,45949,(,0,0,0
2:07.697,45971,p,0,0,0
2:07.744,45988,),0,0,0
2:07.778,46000,(,0,0,1
2:07.828,46018,N,0,0,0
2:07.867,46032,),0,0,1
2:07.969,46069,(,0,0,2
2:08.058,46101,t,0,0,0
2:08.131,46127,),0,0,2
2:08.400,46224,(,0,0,0
2:08.461,46246,p,0,0,0
2:08.511,46264,),0,0,0
2:08.544,46276,(,0,0,1
2:08.592,46293,N,0,0,0
2:08.631,46307,),0,0,1
2:08.736,46345,(,0,0,2
2:08.828,46378,t,0,0,0
2:08.906,46406,),0,0,2
2:09.178,46504,(,0,0,0
2:09.242,46527,p,0,0,0
2:09.303,46549,),0,0,0
2:09.336,46561,(,0,0,1
2:09.383,46578,N,0,0,0
2:09.425,46593,),0,0,1
2:09.533,46632,(,0,0,2
2:09.622,46664,t,0,0,0
2:09.703,46693,),0,0,2
2:09.967,46788,(,0,0,0
2:10.025,46809,p,0,0,0
2:10.075,46827,),0,0,0
2:10.114,46841,(,0,0,1
2:10.161,46858,N,0,0,0
2:10.197,46871,),0,0,1
2:10.297,46907,(,0,0,2
2:10.400,46944,t,0,0,0
2:10.478,46972,),0,0,2
2:10.739,47066,(,0,0,0
2:10.792,47085,p,0,0,0
2:10.844,47104,),0,0,0
2:10.883,47118,(,0,0,1
2:10.928,47134,N,0,0,0
2:10.964,47147,),0,0,1
2:11.067,47184,(,0,0,2
2:11.158,47217,t,0,0,0
2:11.242,47247,),0,0,2
2:11.506,47342,(,0,0,0
2:11.567,47364,p,0,0,0
2:11.617,47382,),0,0,0
2:11.644,47392,(,0,0,1
2:11.700,47412,N,0,0,0
2:11.742,47427,),0,0,1
2:11.839,47462,(,0,0,2
2:11.931,47495,t,0,0,0
2:12.008,47523,),0,0,2
2:12.272,47618,(,0,0,0
2:12.333,47640,p,0,0,0
2:12.383,47658,),0,0,0
2:12.425,47673,(,0,0,1
2:12.469,47689,N,0,0,0
2:12.508,47703,),0,0,1
2:12.606,47738,(,0,0,2
2:12.700,47772,t,0,0,0
2:12.783,47802,),0,0,2
2:13.047,47897,(,0,0,0
2:13.106,47918,p,0,0,0
2:13.161,47938,),0,0,0
2:13.203,47953,(,0,0,1
2:13.247,47969,N,0,0,0
2:13.289,47984,),0,0,1
2:13.400,48024,(,0,0,2
2:13.494,48058,t,0,0,0
2:13.581,48089,),0,0,2
2:13.842,48183,(,0,0,0
2:13.894,48202,p,0,0,0
2:13.944,48220,),0,0,0
2:13.983,48234,(,0,0,1
2:14.031,48251,N,0,0,0
2:14.069,48265,),0,0,1
2:14.175,48303,(,0,0,2
2:14.261,48334,t,0,0,0
2:14.350,48366,),0,0,2
2:14.603,48457,(,0,0,0
2:14.661,48478,p,0,0,0
2:14.711,48496,),0,0,0
2:14.750,48510,(,0,0,1
2:14.794,48526,N,0,0,0
2:14.833,48540,),0,0,1
2:14.936,48577,(,0,0,2
2:15.019,48607,t,0,0,0
2:15.106,48638,),0,0,2
2:15.358,48729,(,0,0,0
2:15.422,48752,p,0,0,0
2:15.469,48769,),0,0,0
2:15.517,48786,(,0,0,1
2:15.561,48802,N,0,0,0
2:15.600,48816,),0,0,1
2:15.703,48853,(,0,0,2
2:15.797,48887,t,0,0,0
2:15.878,48916,),0,0,2
2:16.136,49009,(,0,0,0
2:16.200,49032,p,0,0,0
2:16.247,49049,),0,0,0
2:16.283,49062,(,0,0,1
2:16.331,49079,N,0,0,0
2:16.372,49094,),0,0,1
2:16.478,49132,(,0,0,2
2:16.572,49166,t,0,0,0
2:16.661,49198,),0,0,2
2:16.897,49283,(,0,0,0
2:16.958,49305,p,0,0,0
2:17.008,49323,),0,0,0
2:17.044,49336,(,0,0,1
2:17.086,49351,N,0,0,0
2:17.125,49365,),0,0,1
2:17.228,49402,(,0,0,2
2:17.319,49435,t,0,0,0
2:17.406,49466,),0,0,2
2:17.672,49562,(,0,0,0
2:17.708,49575,p,0,0,0
2:17.764,49595,),0,0,0
2:17.800,49608,(,0,0,1
2:17.842,49623,N,0,0,0
2:17.881,49637,),0,0,1
2:17.981,49673,(,0,0,2
2:18.067,49704,t,0,0,0
2:18.144,49732,),0,0,2
2:18.439,49838,(,0,0,0
2:18.469,49849,p,0,0,0
2:18.519,49867,),0,0,0
2:18.556,49880,(,0,0,1
2:18.606,49898,N,0,0,0
2:18.644,49912,),0,0,1
2:18.747,49949,(,0,0,2
2:18.836,49981,t,0,0,0
2:18.917,50010,),0,0,2
2:19.178,50104,(,0,0,0
2:19.231,50123,p,0,0,0
2:19.269,50137,),0,0,0
2:19.319,50155,(,0,0,1
2:19.364,50171,N,0,0,0
2:19.403,50185,),0,0,1
2:19.517,50226,(,0,0,2
2:19.603,50257,t,0,0,0
2:19.683,50286,),0,0,2
2:19.917,50370,(,0,0,0
2:19.989,50396,p,0,0,0
2:20.039,50414,),0,0,0
2:20.075,50427,(,0,0,1
2:20.119,50443,N,0,0,0
2:20.161,50458,),0,0,1
2:20.272,50498,(,0,0,2
2:20.344,50524,t,0,0,0
2:20.425,50553,),0,0,2
2:20.678,50644,(,0,0,0
2:20.739,50666,p,0,0,0
2:20.792,50685,),0,0,0
2:20.825,50697,(,0,0,1
2:20.872,50714,N,0,0,0
2:20.911,50728,),0,0,1
2:21.014,50765,(,0,0,2
2:21.106,50798,t,0,0,0
2:21.186,50827,),0,0,2
2:21.456,50924,(,0,0,0
2:21.517,50946,p,0,0,0
2:21.569,50965,),0,0,0
2:21.614,50981,(,0,0,1
2:21.658,50997,N,0,0,0
2:21.697,51011,),0,0,1
2:21.806,51050,(,0,0,2
2:21.892,51081,t,0,0,0
2:21.975,51111,),0,0,2
2:22.214,51197,(,0,0,0
2:22.275,51219,p,0,0,0
2:22.328,51238,),0,0,0
2:22.364,51251,(,0,0,1
2:22.411,51268,N,0,0,0
2:22.450,51282,),0,0,1
2:22.553,51319,(,0,0,2
2:22.647,51353,t,0,0,0
2:22.731,51383,),0,0,2
2:22.967,51468,(,0,0,0
2:23.017,51486,p,0,0,0
2:23.072,51506,),0,0,0
2:23.111,51520,(,0,0,1
2:23.150,51534,N,0,0,0
2:23.189,51548,),0,0,1
2:23.275,51579,(,0,0,2
2:23.381,51617,t,0,0,0
2:23.458,51645,),0,0,2
2:23.736,51745,(,0,0,0
2:23.797,51767,p,0,0,0
2:23.850,51786,),0,0,0
2:23.886,51799,(,0,0,1
2:23.931,51815,N,0,0,0
2:23.969,51829,),0,0,1
2:24.069,51865,(,0,0,2
2:24.158,51897,t,0,0,0
2:24.239,51926,),0,0,2
2:24.478,52012,(,0,0,0
2:24.542,52035,p,0,0,0
2:24.594,52054,),0,0,0
2:24.625,52065,(,0,0,1
2:24.675,52083,N,0,0,0
2:24.714,52097,),0,0,1
2:24.814,52133,(,0,0,2
2:24.903,52165,t,0,0,0
2:24.989,52196,),0,0,2
2:25.253,52291,(,0,0,0
2:25.317,52314,p,0,0,0
2:25.369,52333,),0,0,0
2:25.411,52348,(,0,0,1
2:25.453,52363,N,0,0,0
2:25.494,52378,),0,0,1
2:25.603,52417,(,0,0,2
2:25.697,52451,t,0,0,0
2:25.775,52479,),0,0,2
2:26.036,52573,(,0,0,0
2:26.094,52594,p,0,0,0
2:26.150,52614,),0,0,0
2:26.186,52627,(,0,0,1
2:26.231,52643,N,0,0,0
2:26.269,52657,),0,0,1
2:26.364,52691,(,0,0,2
2:26.464,52727,t,0,0,0
2:26.547,52757,),0,0,2
2:26.786,52843,(,0,0,0
2:26.853,52867,p,0,0,0
2:26.900,52884,),0,0,0
2:26.936,52897,(,0,0,1
2:26.981,52913,N,0,0,0
2:27.019,52927,),0,0,1
2:27.128,52966,(,0,0,2
2:27.211,52996,t,0,0,0
2:27.289,53024,),0,0,2
2:27.556,53120,(,0,0,0
2:27.625,53145,p,0,0,0
2:27.678,53164,),0,0,0
2:27.717,53178,(,0,0,1
2:27.767,53196,N,0,0,0
2:27.806,53210,),0,0,1
2:27.919,53251,(,0,0,2
2:28.006,53282,t,0,0,0
2:28.086,53311,),0,0,2
2:28.344,53404,(,0,0,0
2:28.403,53425,p,0,0,0
2:28.450,53442,),0,0,0
2:28.489,53456,(,0,0,1
2:28.536,53473,N,0,0,0
2:28.575,53487,),0,0,1
2:28.686,53527,(,0,0,2
2:28.772,53558,t,0,0,0
2:28.856,53588,),0,0,2
2:28.894,53602,(,0,0,1
2:29.008,53643,N,0,0,0
2:29.044,53656,),0,0,1
2:29.081,53669,(,0,0,2
2:29.175,53703,t,0,0,1
2:29.256,53732,),0,0,2
2:29.844,53944,(,0,0,0
2:29.908,53967,p,0,0,0
2:29.961,53986,),0,0,0
2:29.989,53996,(,0,0,1
2:30.036,54013,N,0,0,0
2:30.075,54027,),0,0,1
2:30.183,54066,(,0,0,2
2:30.289,54104,t,0,0,0
2:30.372,54134,),0,0,2
2:30.600,54216,(,0,0,0
2:30.667,54240,p,0,0,0
2:30.717,54258,),0,0,0
2:30.756,54272,(,0,0,1
2:30.800,54288,N,0,0,0
2:30.839,54302,),0,0,1
2:30.925,54333,(,0,0,2
2:31.025,54369,t,0,0,0
2:31.108,54399,),0,0,2
2:31.353,54487,(,0,0,0
2:31.419,54511,p,0,0,0
2:31.469,54529,),0,0,0
2:31.500,54540,(,0,0,1
2:31.550,54558,N,0,0,0
2:31.592,54573,),0,0,1
2:31.692,54609,(,0,0,2
2:31.786,54643,t,0,0,0
2:31.875,54675,),0,0,2
2:32.119,54763,(,0,0,0
2:32.172,54782,p,0,0,0
2:32.225,54801,),0,0,0
2:32.261,54814,(,0,0,1
2:32.306,54830,N,0,0,0
2:32.344,54844,),0,0,1
2:32.456,54884,(,0,0,2
2:32.542,54915,t,0,0,0
2:32.622,54944,),0,0,2
2:32.867,55032,(,0,0,0
2:32.925,55053,p,0,0,0
2:32.978,55072,),0,0,0
2:33.014,55085,(,0,0,1
2:33.058,55101,N,0,0,0
2:33.100,55116,),0,0,1
2:33.203,55153,(,0,0,2
2:33.292,55185,t,0,0,0
2:33.381,55217,),0,0,2
2:33.622,55304,(,0,0,0
2:33.689,55328,p,0,0,0
2:33.739,55346,),0,0,0
2:33.778,55360,(,0,0,1
2:33.825,55377,N,0,0,0
2:33.867,55392,),0,0,1
2:33.964,55427,(,0,0,2
2:34.053,55459,t,0,0,0
2:34.136,55489,),0,0,2
2:34.383,55578,(,0,0,0
2:34.442,55599,p,0,0,0
2:34.500,55620,),0,0,0
2:34.533,55632,(,0,0,1
2:34.578,55648,N,0,0,0
2:34.617,55662,),0,0,1
2:34.725,55701,(,0,0,2
2:34.814,55733,t,0,0,0
2:34.897,55763,),0,0,2
2:35.133,55848,(,0,0,0
2:35.194,55870,p,0,0,0
2:35.242,55887,),0,0,0
2:35.281,55901,(,0,0,1
2:35.322,55916,N,0,0,0
2:35.361,55930,),0,0,1
2:35.469,55969,(,0,0,2
2:35.564,56003,t,0,0,0
2:35.650,56034,),0,0,2
2:35.717,56058,(,0,0,0
2:35.744,56068,p,0,0,0
2:35.786,56083,),0,0,0
2:35.933,56136,(,0,0,1
2:36.061,56182,N,0,0,0
2:36.097,56195,),0,0,1
2:36.161,56218,(,0,0,2
2:36.247,56249,t,0,0,1
2:36.336,56281,),0,0,2
2:36.653,56395,(,0,0,0
2:36.708,56415,p,0,0,0
2:36.758,56433,),0,0,0
2:36.792,56445,(,0,0,1
2:36.839,56462,N,0,0,0
2:36.878,56476,),0,0,1
2:36.989,56516,(,0,0,2
2:37.078,56548,t,0,0,0
2:37.167,56580,),0,0,2
2:37.403,56665,(,0,0,0
2:37.475,56691,p,0,0,0
2:37.522,56708,),0,0,0
2:37.564,56723,(,0,0,1
2:37.611,56740,N,0,0,0
2:37.650,56754,),0,0,1
2:37.767,56796,(,0,0,2
2:37.850,56826,t,0,0,0
2:37.933,56856,),0,0,2
2:38.011,56884,(,0,0,1
2:38.133,56928,N,0,0,0
2:38.172,56942,),0,0,1
2:38.236,56965,(,0,0,2
2:38.303,56989,t,0,0,1
2:38.394,57022,),0,0,2
2:38.925,57213,(,0,0,0
2:38.986,57235,p,0,0,0
2:39.036,57253,),0,0,0
2:39.064,57263,(,0,0,1
2:39.114,57281,N,0,0,0
2:39.150,57294,),0,0,1
2:39.261,57334,(,0,0,2
2:39.361,57370,t,0,0,0
2:39.444,57400,),0,0,2
2:39.686,57487,(,0,0,0
2:39.747,57509,p,0,0,0
2:39.800,57528,),0,0,0
2:39.836,57541,(,0,0,1
2:39.886,57559,N,0,0,0
2:39.928,57574,),0,0,1
2:40.025,57609,(,0,0,2
2:40.117,57642,t,0,0,0
2:40.197,57671,),0,0,2
2:40.433,57756,(,0,0,0
2:40.506,57782,p,0,0,0
2:40.553,57799,),0,0,0
2:40.564,57803,(,0,0,1
2:40.639,57830,N,0,0,0
2:40.678,57844,),0,0,1
2:40.789,57884,(,0,0,2
2:40.872,57914,t,0,0,0
2:40.953,57943,),0,0,2
2:41.186,58027,(,0,0,0
2:41.244,58048,p,0,0,0
2:41.292,58065,),0,0,0
2:41.325,58077,(,0,0,1
2:41.369,58093,N,0,0,0
2:41.411,58108,),0,0,1
2:41.519,58147,(,0,0,2
2:41.603,58177,t,0,0,0
2:41.697,58211,),0,0,2
2:41.922,58292,(,0,0,0
2:41.978,58312,p,0,0,0
2:42.033,58332,),0,0,0
2:42.064,58343,(,0,0,1
2:42.111,58360,N,0,0,0
2:42.150,58374,),0,0,1
2:42.250,58410,(,0,0,2
2:42.336,58441,t,0,0,0
2:42.414,58469,),0,0,2
2:42.656,58556,(,0,0,0
2:42.731,58583,p,0,0,0
2:42.775,58599,),0,0,0
2:42.814,58613,(,0,0,1
2:42.856,58628,N,0,0,0
2:42.894,58642,),0,0,1
2:43.019,58687,(,0,0,2
2:43.086,58711,t,0,0,0
2:43.181,58745,),0,0,2
2:43.403,58825,(,0,0,0
2:43.472,58850,p,0,0,0
2:43.517,58866,),0,0,0
2:43.561,58882,(,0,0,1
2:43.600,58896,N,0,0,0
2:43.642,58911,),0,0,1
2:43.753,58951,(,0,0,2
2:43.844,58984,t,0,0,0
2:43.931,59015,),0,0,2
2:44.147,59093,(,0,0,0
2:44.214,59117,p,0,0,0
2:44.261,59134,),0,0,0
2:44.300,59148,(,0,0,1
2:44.339,59162,N,0,0,0
2:44.378,59176,),0,0,1
2:44.481,59213,(,0,0,2
2:44.569,59245,t,0,0,0
2:44.650,59274,),0,0,2
2:44.894,59362,(,0,0,0
2:44.953,59383,p,0,0,0
2:45.000,59400,),0,0,0
2:45.039,59414,(,0,0,1
2:45.089,59432,N,0,0,0
2:45.122,59444,),0,0,1
2:45.225,59481,(,0,0,2
2:45.317,59514,t,0,0,0
2:45.403,59545,),0,0,2
2:45.656,59636,(,0,0,0
2:45.714,59657,p,0,0,0
2:45.767,59676,),0,0,0
2:45.806,59690,(,0,0,1
2:45.853,59707,N,0,0,0
2:45.892,59721,),0,0,1
2:46.000,59760,(,0,0,2
2:46.078,59788,t,0,0,0
2:46.164,59819,),0,0,2
2:46.394,59902,(,0,0,0
2:46.456,59924,p,0,0,0
2:46.508,59943,),0,0,0
2:46.547,59957,(,0,0,1
2:46.589,59972,N,0,0,0
2:46.628,59986,),0,0,1
2:46.736,60025,(,0,0,2
2:46.828,60058,t,0,0,0
2:46.900,60084,),0,0,2
2:47.139,60170,(,0,0,0
2:47.194,60190,p,0,0,0
2:47.247,60209,),0,0,0
2:47.283,60222,(,0,0,1
2:47.328,60238,N,0,0,0
2:47.367,60252,),0,0,1
2:47.489,60296,(,0,0,2
2:47.567,60324,t,0,0,0
2:47.647,60353,),0,0,2
2:47.903,60445,(,0,0,0
2:47.958,60465,p,0,0,0
2:48.006,60482,),0,0,0
2:48.044,60496,(,0,0,1
2:48.092,60513,N,0,0,0
2:48.131,60527,),0,0,1
2:48.231,60563,(,0,0,2
2:48.325,60597,t,0,0,0
2:48.394,60622,),0,0,2
2:48.639,60710,(,0,0,0
2:48.700,60732,p,0,0,0
2:48.747,60749,),0,0,0
2:48.783,60762,(,0,0,1
2:48.831,60779,N,0,0,0
2:48.872,60794,),0,0,1
2:48.989,60836,(,0,0,2
2:49.061,60862,t,0,0,0
2:49.144,60892,),0,0,2
2:49.397,60983,(,0,0,0
2:49.464,61007,p,0,0,0
2:49.517,61026,),0,0,0
2:49.558,61041,(,0,0,1
2:49.600,61056,N,0,0,0
2:49.636,61069,),0,0,1
2:49.756,61112,(,0,0,2
2:49.844,61144,t,0,0,0
2:49.931,61175,),0,0,2
2:50.169,61261,(,0,0,0
2:50.231,61283,p,0,0,0
2:50.281,61301,),0,0,0
2:50.317,61314,(,0,0,1
2:50.364,61331,N,0,0,0
2:50.403,61345,),0,0,1
2:50.503,61381,(,0,0,2
2:50.592,61413,t,0,0,0
2:50.672,61442,),0,0,2
2:50.908,61527,(,0,0,0
2:50.981,61553,p,0,0,0
2:51.022,61568,),0,0,0
2:51.058,61581,(,0,0,1
2:51.100,61596,N,0,0,0
2:51.142,61611,),0,0,1
2:51.236,61645,(,0,0,2
2:51.328,61678,t,0,0,0
2:51.408,61707,),0,0,2
2:51.672,61802,(,0,0,0
2:51.733,61824,p,0,0,0
2:51.789,61844,),0,0,0
2:51.828,61858,(,0,0,1
2:51.875,61875,N,0,0,0
2:51.914,61889,),0,0,1
2:52.022,61928,(,0,0,2
2:52.106,61958,t,0,0,0
2:52.192,61989,),0,0,2
2:52.422,62072,(,0,0,0
2:52.486,62095,p,0,0,0
2:52.539,62114,),0,0,0
2:52.572,62126,(,0,0,1
2:52.619,62143,N,0,0,0
2:52.658,62157,),0,0,1
2:52.764,62195,(,0,0,2
2:52.853,62227,t,0,0,0
2:52.936,62257,),0,0,2
2:53.167,62340,(,0,0,0
2:53.228,62362,p,0,0,0
2:53.272,62378,),0,0,0
2:53.308,62391,(,0,0,1
2:53.353,62407,N,0,0,0
2:53.394,62422,),0,0,1
2:53.500,62460,(,0,0,2
2:53.592,62493,t,0,0,0
2:53.678,62524,),0,0,2
2:53.914,62609,(,0,0,0
2:53.978,62632,p,0,0,0
2:54.028,62650,),0,0,0
2:54.064,62663,(,0,0,1
2:54.106,62678,N,0,0,0
2:54.144,62692,),0,0,1
2:54.250,62730,(,0,0,2
2:54.336,62761,t,0,0,0
2:54.422,62792,),0,0,2
2:54.656,62876,(,0,0,0
2:54.714,62897,p,0,0,0
2:54.769,62917,),0,0,0
2:54.808,62931,(,0,0,1
2:54.853,62947,N,0,0,0
2:54.889,62960,),0,0,1
2:54.992,62997,(,0,0,2
2:55.081,63029,t,0,0,0
2:55.169,63061,),0,0,2
2:55.403,63145,(,0,0,0
2:55.453,63163,p,0,0,0
2:55.508,63183,),0,0,0
2:55.544,63196,(,0,0,1
2:55.594,63214,N,0,0,0
2:55.633,63228,),0,0,1
2:55.733,63264,(,0,0,2
2:55.831,63299,t,0,0,0
2:55.914,63329,),0,0,2
2:56.158,63417,(,0,0,0
2:56.211,63436,p,0,0,0
2:56.267,63456,),0,0,0
2:56.303,63469,(,0,0,1
2:56.347,63485,N,0,0,0
2:56.383,63498,),0,0,1
2:56.492,63537,(,0,0,2
2:56.581,63569,t,0,0,0
2:56.661,63598,),0,0,2
2:56.903,63685,(,0,0,0
2:56.964,63707,p,0,0,0
2:57.014,63725,),0,0,0
2:57.053,63739,(,0,0,1
2:57.097,63755,N,0,0,0
2:57.139,63770,),0,0,1
2:57.247,63809,(,0,0,2
2:57.325,63837,t,0,0,0
2:57.406,63866,),0,0,2
2:57.664,63959,(,0,0,0
2:57.728,63982,p,0,0,0
2:57.778,64000,),0,0,0
2:57.814,64013,(,0,0,1
2:57.864,64031,N,0,0,0
2:57.903,64045,),0,0,1
2:58.006,64082,(,0,0,2
2:58.092,64113,t,0,0,0
2:58.172,64142,),0,0,2
2:58.417,64230,(,0,0,0
2:58.481,64253,p,0,0,0
2:58.533,64272,),0,0,0
2:58.567,64284,(,0,0,1
2:58.614,64301,N,0,0,0
2:58.656,64316,),0,0,1
2:58.756,64352,(,0,0,2
2:58.853,64387,t,0,0,0
2:58.928,64414,),0,0,2
2:59.167,64500,(,0,0,0
2:59.225,64521,p,0,0,0
2:59.275,64539,),0,0,0
2:59.308,64551,(,0,0,1
2:59.353,64567,N,0,0,0
2:59.392,64581,),0,0,1
2:59.508,64623,(,0,0,2
2:59.592,64653,t,0,0,0
2:59.678,64684,),0,0,2
2:59.944,64780,(,0,0,0
2:59.981,64793,p,0,0,0
3:00.033,64812,),0,0,0
3:00.069,64825,(,0,0,1
3:00.117,64842,N,0,0,0
3:00.156,64856,),0,0,1
3:00.244,64888,(,0,0,2
3:00.339,64922,t,0,0,0
3:00.419,64951,),0,0,2
3:00.669,65041,(,0,0,0
3:00.731,65063,p,0,0,0
3:00.781,65081,),0,0,0
3:00.817,65094,(,0,0,1
3:00.864,65111,N,0,0,0
3:00.903,65125,),0,0,1
3:01.003,65161,(,0,0,2
3:01.100,65196,t,0,0,0
3:01.183,65226,),0,0,2
3:01.425,65313,(,0,0,0
3:01.492,65337,p,0,0,0
3:01.547,65357,),0,0,0
3:01.586,65371,(,0,0,1
3:01.631,65387,N,0,0,0
3:01.672,65402,),0,0,1
3:01.781,65441,(,0,0,2
3:01.875,65475,t,0,0,0
3:01.958,65505,),0,0,2
3:02.197,65591,(,0,0,0
3:02.258,65613,p,0,0,0
3:02.306,65630,),0,0,0
3:02.344,65644,(,0,0,1
3:02.389,65660,N,0,0,0
3:02.428,65674,),0,0,1
3:02.542,65715,(,0,0,2
3:02.619,65743,t,0,0,0
3:02.706,65774,),0,0,2
3:02.950,65862,(,0,0,0
3:03.008,65883,p,0,0,0
3:03.056,65900,),0,0,0
3:03.097,65915,(,0,0,1
3:03.136,65929,N,0,0,0
3:03.178,65944,),0,0,1
3:03.272,65978,(,0,0,2
3:03.367,66012,t,0,0,0
3:03.450,66042,),0,0,2
3:03.708,66135,(,0,0,0
3:03.775,66159,p,0,0,0
3:03.833,66180,),0,0,0
3:03.872,66194,(,0,0,1
3:03.914,66209,N,0,0,0
3:03.956,66224,),0,0,1
3:04.058,66261,(,0,0,2
3:04.153,66295,t,0,0,0
3:04.233,66324,),0,0,2
3:04.469,66409,(,0,0,0
3:04.531,66431,p,0,0,0
3:04.581,66449,),0,0,0
3:04.617,66462,(,0,0,1
3:04.664,66479,N,0,0,0
3:04.706,66494,),0,0,1
3:04.811,66532,(,0,0,2
3:04.897,66563,t,0,0,0
3:04.981,66593,),0,0,2
3:05.222,66680,(,0,0,0
3:05.278,66700,p,0,0,0
3:05.331,66719,),0,0,0
3:05.364,66731,(,0,0,1
3:05.408,66747,N,0,0,0
3:05.444,66760,),0,0,1
3:05.556,66800,(,0,0,2
3:05.639,66830,t,0,0,0
3:05.722,66860,),0,0,2
3:05.972,66950,(,0,0,0
3:06.028,66970,p,0,0,0
3:06.075,66987,),0,0,0
3:06.117,67002,(,0,0,1
3:06.161,67018,N,0,0,0
3:06.200,67032,),0,0,1
3:06.306,67070,(,0,0,2
3:06.389,67100,t,0,0,0
3:06.472,67130,),0,0,2
3:06.714,67217,(,0,0,0
3:06.781,67241,p,0,0,0
3:06.831,67259,),0,0,0
3:06.864,67271,(,0,0,1
3:06.908,67287,N,0,0,0
3:06.950,67302,),0,0,1
3:07.047,67337,(,0,0,2
3:07.139,67370,t,0,0,0
3:07.228,67402,),0,0,2
3:07.475,67491,(,0,0,0
3:07.531,67511,p,0,0,0
3:07.578,67528,),0,0,0
3:07.617,67542,(,0,0,1
3:07.667,67560,N,0,0,0
3:07.706,67574,),0,0,1
3:07.828,67618,(,0,0,2
3:07.911,67648,t,0,0,0
3:07.997,67679,),0,0,2
3:08.233,67764,(,0,0,0
3:08.297,67787,p,0,0,0
3:08.347,67805,),0,0,0
3:08.378,67816,(,0,0,1
3:08.422,67832,N,0,0,0
3:08.464,67847,),0,0,1
3:08.547,67877,(,0,0,2
3:08.656,67916,t,0,0,0
3:08.731,67943,),0,0,2
3:08.981,68033,(,0,0,0
3:09.039,68054,p,0,0,0
3:09.092,68073,),0,0,0
3:09.128,68086,(,0,0,1
3:09.172,68102,N,0,0,0
3:09.214,68117,),0,0,1
3:09.308,68151,(,0,0,2
3:09.406,68186,t,0,0,0
3:09.489,68216,),0,0,2
3:09.744,68308,(,0,0,0
3:09.808,68331,p,0,0,0
3:09.864,68351,),0,0,0
3:09.903,68365,(,0,0,1
3:09.944,68380,N,0,0,0
3:09.983,68394,),0,0,1
3:10.086,68431,(,0,0,2
3:10.178,68464,t,0,0,0
3:10.258,68493,),0,0,2
3:10.497,68579,(,0,0,0
3:10.558,68601,p,0,0,0
3:10.614,68621,),0,0,0
3:10.650,68634,(,0,0,1
3:10.694,68650,N,0,0,0
3:10.736,68665,),0,0,1
3:10.844,68704,(,0,0,2
3:10.931,68735,t,0,0,0
3:11.017,68766,),0,0,2
3:11.244,68848,(,0,0,0
3:11.303,68869,p,0,0,0
3:11.353,68887,),0,0,0
3:11.386,68899,(,0,0,1
3:11.431,68915,N,0,0,0
3:11.472,68930,),0,0,1
3:11.572,68966,(,0,0,2
3:11.667,69000,t,0,0,0
3:11.744,69028,),0,0,2
3:12.014,69125,(,0,0,0
3:12.069,69145,p,0,0,0
3:12.117,69162,),0,0,0
3:12.156,69176,(,0,0,1
3:12.200,69192,N,0,0,0
3:12.236,69205,),0,0,1
3:12.339,69242,(,0,0,2
3:12.428,69274,t,0,0,0
3:12.511,69304,),0,0,2
3:12.747,69389,(,0,0,0
3:12.814,69413,p,0,0,0
3:12.864,69431,),0,0,0
3:12.900,69444,(,0,0,1
3:12.947,69461,N,0,0,0
3:12.986,69475,),0,0,1
3:13.089,69512,(,0,0,2
3:13.183,69546,t,0,0,0
3:13.269,69577,),0,0,2
3:13.522,69668,(,0,0,0
3:13.581,69689,p,0,0,0
3:13.628,69706,),0,0,0
3:13.667,69720,(,0,0,1
3:13.711,69736,N,0,0,0
3:13.753,69751,),0,0,1
3:13.861,69790,(,0,0,2
3:13.958,69825,t,0,0,0
3:14.042,69855,),0,0,2
3:14.308,69951,(,0,0,0
3:14.339,69962,p,0,0,0
3:14.392,69981,),0,0,0
3:14.422,69992,(,0,0,1
3:14.469,70009,N,0,0,0
3:14.511,70024,),0,0,1
3:14.617,70062,(,0,0,2
3:14.703,70093,t,0,0,0
3:14.786,70123,),0,0,2
3:15.047,70217,(,0,0,0
3:15.086,70231,p,0,0,0
3:15.139,70250,),0,0,0
3:15.172,70262,(,0,0,1
3:15.217,70278,N,0,0,0
3:15.256,70292,),0,0,1
3:15.353,70327,(,0,0,2
3:15.447,70361,t,0,0,0
3:15.528,70390,),0,0,2
3:15.789,70484,(,0,0,0
3:15.850,70506,p,0,0,0
3:15.906,70526,),0,0,0
3:15.947,70541,(,0,0,1
3:15.992,70557,N,0,0,0
3:16.031,70571,),0,0,1
3:16.142,70611,(,0,0,2
3:16.228,70642,t,0,0,0
3:16.308,70671,),0,0,2
3:16.550,70758,(,0,0,0
3:16.611,70780,p,0,0,0
3:16.664,70799,),0,0,0
3:16.700,70812,(,0,0,1
3:16.747,70829,N,0,0,0
3:16.786,70843,),0,0,1
3:16.886,70879,(,0,0,2
3:16.981,70913,t,0,0,0
3:17.067,70944,),0,0,2
3:17.311,71032,(,0,0,0
3:17.364,71051,p,0,0,0
3:17.417,71070,),0,0,0
3:17.450,71082,(,0,0,1
3:17.494,71098,N,0,0,0
3:17.533,71112,),0,0,1
3:17.628,71146,(,0,0,2
3:17.719,71179,t,0,0,0
3:17.806,71210,),0,0,2
3:18.053,71299,(,0,0,0
3:18.114,71321,p,0,0,0
3:18.167,71340,),0,0,0
3:18.200,71352,(,0,0,1
3:18.247,71369,N,0,0,0
3:18.286,71383,),0,0,1
3:18.381,71417,(,0,0,2
3:18.472,71450,t,0,0,0
3:18.550,71478,),0,0,2
3:18.794,71566,(,0,0,0
3:18.856,71588,p,0,0,0
3:18.911,71608,),0,0,0
3:18.944,71620,(,0,0,1
3:18.989,71636,N,0,0,0
3:19.028,71650,),0,0,1
3:19.119,71683,(,0,0,2
3:19.219,71719,t,0,0,0
3:19.297,71747,),0,0,2
3:19.550,71838,(,0,0,0
3:19.614,71861,p,0,0,0
3:19.661,71878,),0,0,0
3:19.694,71890,(,0,0,1
3:19.742,71907,N,0,0,0
3:19.781,71921,),0,0,1
3:19.878,71956,(,0,0,2
3:19.981,71993,t,0,0,0
3:20.064,72023,),0,0,2
3:20.314,72113,(,0,0,0
3:20.372,72134,p,0,0,0
3:20.422,72152,),0,0,0
3:20.458,72165,(,0,0,1
3:20.500,72180,N,0,0,0
3:20.539,72194,),0,0,1
3:20.636,72229,(,0,0,2
3:20.731,72263,t,0,0,0
3:20.817,72294,),0,0,2
3:21.053,72379,(,0,0,0
3:21.108,72399,p,0,0,0
3:21.164,72419,),0,0,0
3:21.197,72431,(,0,0,1
3:21.244,72448,N,0,0,0
3:21.281,72461,),0,0,1
3:21.375,72495,(,0,0,2
3:21.469,72529,t,0,0,0
3:21.550,72558,),0,0,2
3:21.797,72647,(,0,0,0
3:21.853,72667,p,0,0,0
3:21.911,72688,),0,0,0
3:21.947,72701,(,0,0,1
3:21.994,72718,N,0,0,0
3:22.033,72732,),0,0,1
3:22.142,72771,(,0,0,2
3:22.236,72805,t,0,0,0
3:22.314,72833,),0,0,2
3:22.550,72918,(,0,0,0
3:22.608,72939,p,0,0,0
3:22.664,72959,),0,0,0
3:22.697,72971,(,0,0,1
3:22.747,72989,N,0,0,0
3:22.786,73003,),0,0,1
3:22.894,73042,(,0,0,2
3:22.981,73073,t,0,0,0
3:23.067,73104,),0,0,2
3:23.314,73193,(,0,0,0
3:23.367,73212,p,0,0,0
3:23.414,73229,),0,0,0
3:23.447,73241,(,0,0,1
3:23.492,73257,N,0,0,0
3:23.533,73272,),0,0,1
3:23.622,73304,(,0,0,2
3:23.717,73338,t,0,0,0
3:23.794,73366,),0,0,2
3:24.050,73458,(,0,0,0
3:24.108,73479,p,0,0,0
3:24.156,73496,),0,0,0
3:24.192,73509,(,0,0,1
3:24.242,73527,N,0,0,0
3:24.281,73541,),0,0,1
3:24.372,73574,(,0,0,2
3:24.469,73609,t,0,0,0
3:24.550,73638,),0,0,2
3:24.778,73720,(,0,0,0
3:24.844,73744,p,0,0,0
3:24.892,73761,),0,0,0
3:24.928,73774,(,0,0,1
3:24.972,73790,N,0,0,0
3:25.014,73805,),0,0,1
3:25.131,73847,(,0,0,2
3:25.208,73875,t,0,0,0
3:25.292,73905,),0,0,2
3:25.533,73992,(,0,0,0
3:25.597,74015,p,0,0,0
3:25.650,74034,),0,0,0
3:25.689,74048,(,0,0,1
3:25.733,74064,N,0,0,0
3:25.772,74078,),0,0,1
3:25.878,74116,(,0,0,2
3:25.964,74147,t,0,0,0
3:26.056,74180,),0,0,2
3:26.297,74267,(,0,0,0
3:26.361,74290,p,0,0,0
3:26.414,74309,),0,0,0
3:26.450,74322,(,0,0,1
3:26.497,74339,N,0,0,0
3:26.533,74352,),0,0,1
3:26.636,74389,(,0,0,2
3:26.719,74419,t,0,0,0
3:26.800,74448,),0,0,2
3:27.028,74530,(,0,0,0
3:27.092,74553,p,0,0,0
3:27.147,74573,),0,0,0
3:27.183,74586,(,0,0,1
3:27.228,74602,N,0,0,0
3:27.267,74616,),0,0,1
3:27.361,74650,(,0,0,2
3:27.453,74683,t,0,0,0
3:27.525,74709,),0,0,2
3:27.569,74725,(,0,0,1
3:27.700,74772,N,0,0,0
3:27.739,74786,),0,0,1
3:27.803,74809,(,0,0,2
3:27.875,74835,t,0,0,1
3:27.964,74867,),0,0,2
3:28.553,75079,(,0,0,0
3:28.611,75100,p,0,0,0
3:28.661,75118,),0,0,0
3:28.692,75129,(,0,0,1
3:28.736,75145,N,0,0,0
3:28.772,75158,),0,0,1
3:28.889,75200,(,0,0,2
3:28.983,75234,t,0,0,0
3:29.064,75263,),0,0,2
3:29.294,75346,(,0,0,0
3:29.361,75370,p,0,0,0
3:29.411,75388,),0,0,0
3:29.447,75401,(,0,0,1
3:29.492,75417,N,0,0,0
3:29.531,75431,),0,0,1
3:29.611,75460,(,0,0,2
3:29.708,75495,t,0,0,0
3:29.789,75524,),0,0,2
3:30.028,75610,(,0,0,0
3:30.092,75633,p,0,0,0
3:30.142,75651,),0,0,0
3:30.186,75667,(,0,0,1
3:30.228,75682,N,0,0,0
3:30.267,75696,),0,0,1
3:30.372,75734,(,0,0,2
3:30.464,75767,t,0,0,0
3:30.547,75797,),0,0,2
3:30.778,75880,(,0,0,0
3:30.839,75902,p,0,0,0
3:30.897,75923,),0,0,0
3:30.925,75933,(,0,0,1
3:30.972,75950,N,0,0,0
3:31.011,75964,),0,0,1
3:31.114,76001,(,0,0,2
3:31.194,76030,t,0,0,0
3:31.275,76059,),0,0,2
3:31.506,76142,(,0,0,0
3:31.575,76167,p,0,0,0
3:31.625,76185,),0,0,0
3:31.658,76197,(,0,0,1
3:31.706,76214,N,0,0,0
3:31.744,76228,),0,0,1
3:31.858,76269,(,0,0,2
3:31.936,76297,t,0,0,0
3:32.019,76327,),0,0,2
3:32.264,76415,(,0,0,0
3:32.331,76439,p,0,0,0
3:32.381,76457,),0,0,0
3:32.419,76471,(,0,0,1
3:32.464,76487,N,0,0,0
3:32.503,76501,),0,0,1
3:32.622,76544,(,0,0,2
3:32.697,76571,t,0,0,0
3:32.767,76596,),0,0,2
3:33.039,76694,(,0,0,0
3:33.072,76706,p,0,0,0
3:33.122,76724,),0,0,0
3:33.133,76728,(,0,0,1
3:33.203,76753,N,0,0,0
3:33.244,76768,),0,0,1
3:33.350,76806,(,0,0,2
3:33.436,76837,t,0,0,0
3:33.511,76864,),0,0,2
3:33.750,76950,(,0,0,0
3:33.806,76970,p,0,0,0
3:33.864,76991,),0,0,0
3:33.889,77000,(,0,0,1
3:33.933,77016,N,0,0,0
3:33.975,77031,),0,0,1
3:34.072,77066,(,0,0,2
3:34.169,77101,t,0,0,0
3:34.261,77134,),0,0,2
3:34.503,77221,(,0,0,0
3:34.567,77244,p,0,0,0
3:34.628,77266,),0,0,0
3:34.658,77277,(,0,0,1
3:34.700,77292,N,0,0,0
3:34.742,77307,),0,0,1
3:34.847,77345,(,0,0,2
3:34.928,77374,t,0,0,0
3:35.008,77403,),0,0,2
3:35.244,77488,(,0,0,0
3:35.311,77512,p,0,0,0
3:35.358,77529,),0,0,0
3:35.397,77543,(,0,0,1
3:35.442,77559,N,0,0,0
3:35.483,77574,),0,0,1
3:35.589,77612,(,0,0,2
3:35.672,77642,t,0,0,0
3:35.758,77673,),0,0,2
3:35.981,77753,(,0,0,0
3:36.042,77775,p,0,0,0
3:36.092,77793,),0,0,0
3:36.131,77807,(,0,0,1
3:36.175,77823,N,0,0,0
3:36.214,77837,),0,0,1
3:36.317,77874,(,0,0,2
3:36.414,77909,t,0,0,0
3:36.500,77940,),0,0,2
3:36.725,78021,(,0,0,0
3:36.781,78041,p,0,0,0
3:36.831,78059,),0,0,0
3:36.867,78072,(,0,0,1
3:36.914,78089,N,0,0,0
3:36.953,78103,),0,0,1
3:37.064,78143,(,0,0,2
3:37.144,78172,t,0,0,0
3:37.231,78203,),0,0,2
3:37.469,78289,(,0,0,0
3:37.533,78312,p,0,0,0
3:37.583,78330,),0,0,0
3:37.622,78344,(,0,0,1
3:37.664,78359,N,0,0,0
3:37.706,78374,),0,0,1
3:37.808,78411,(,0,0,2
3:37.897,78443,t,0,0,0
3:37.978,78472,),0,0,2
3:38.217,78558,(,0,0,0
3:38.281,78581,p,0,0,0
3:38.333,78600,),0,0,0
3:38.369,78613,(,0,0,1
3:38.417,78630,N,0,0,0
3:38.456,78644,),0,0,1
3:38.567,78684,(,0,0,2
3:38.656,78716,t,0,0,0
3:38.733,78744,),0,0,2
3:38.961,78826,(,0,0,0
3:39.025,78849,p,0,0,0
3:39.075,78867,),0,0,0
3:39.108,78879,(,0,0,1
3:39.156,78896,N,0,0,0
3:39.194,78910,),0,0,1
3:39.294,78946,(,0,0,2
3:39.381,78977,t,0,0,0
3:39.464,79007,),0,0,2
3:39.700,79092,(,0,0,0
3:39.761,79114,p,0,0,0
3:39.817,79134,),0,0,0
3:39.847,79145,(,0,0,1
3:39.897,79163,N,0,0,0
3:39.936,79177,),0,0,1
3:40.036,79213,(,0,0,2
3:40.125,79245,t,0,0,0
3:40.217,79278,),0,0,2
3:40.456,79364,(,0,0,0
3:40.522,79388,p,0,0,0
3:40.572,79406,),0,0,0
3:40.608,79419,(,0,0,1
3:40.658,79437,N,0,0,0
3:40.697,79451,),0,0,1
3:40.806,79490,(,0,0,2
3:40.886,79519,t,0,0,0
3:40.969,79549,),0,0,2
3:41.203,79633,(,0,0,0
3:41.267,79656,p,0,0,0
3:41.322,79676,),0,0,0
3:41.350,79686,(,0,0,1
3:41.397,79703,N,0,0,0
3:41.439,79718,),0,0,1
3:41.544,79756,(,0,0,2
3:41.631,79787,t,0,0,0
3:41.711,79816,),0,0,2
3:41.944,79900,(,0,0,0
3:42.003,79921,p,0,0,0
3:42.050,79938,),0,0,0
3:42.081,79949,(,0,0,1
3:42.125,79965,N,0,0,0
3:42.167,79980,),0,0,1
3:42.264,80015,(,0,0,2
3:42.361,80050,t,0,0,0
3:42.442,80079,),0,0,2
3:42.697,80171,(,0,0,0
3:42.756,80192,p,0,0,0
3:42.806,80210,),0,0,0
3:42.839,80222,(,0,0,1
3:42.883,80238,N,0,0,0
3:42.919,80251,),0,0,1
3:43.022,80288,(,0,0,2
3:43.111,80320,t,0,0,0
3:43.192,80349,),0,0,2
3:43.422,80432,(,0,0,0
3:43.486,80455,p,0,0,0
3:43.536,80473,),0,0,0
3:43.569,80485,(,0,0,1
3:43.617,80502,N,0,0,0
3:43.656,80516,),0,0,1
3:43.756,80552,(,0,0,2
3:43.847,80585,t,0,0,0
3:43.931,80615,),0,0,2
3:44.308,80751,(,0,0,1
3:44.356,80768,N,0,0,0
3:44.394,80782,),0,0,1
3:44.503,80821,(,0,0,2
3:44.592,80853,t,0,0,0
3:44.678,80884,),0,0,2
3:44.914,80969,(,0,0,0
3:44.978,80992,p,0,0,0
3:45.028,81010,),0,0,0
3:45.061,81022,(,0,0,1
3:45.106,81038,N,0,0,0
3:45.147,81053,),0,0,1
3:45.247,81089,(,0,0,2
3:45.339,81122,t,0,0,0
3:45.425,81153,),0,0,2
3:45.664,81239,(,0,0,0
3:45.714,81257,p,0,0,0
3:45.764,81275,),0,0,0
3:45.797,81287,(,0,0,1
3:45.844,81304,N,0,0,0
3:45.883,81318,),0,0,1
3:45.969,81349,(,0,0,2
3:46.069,81385,t,0,0,0
3:46.153,81415,),0,0,2
3:46.389,81500,(,0,0,0
3:46.456,81524,p,0,0,0
3:46.503,81541,),0,0,0
3:46.542,81555,(,0,0,1
3:46.592,81573,N,0,0,0
3:46.633,81588,),0,0,1
3:46.736,81625,(,0,0,2
3:46.833,81660,t,0,0,0
3:46.917,81690,),0,0,2
3:47.147,81773,(,0,0,0
3:47.211,81796,p,0,0,0
3:47.264,81815,),0,0,0
3:47.275,81819,(,0,0,1
3:47.342,81843,N,0,0,0
3:47.381,81857,),0,0,1
3:47.486,81895,(,0,0,2
3:47.578,81928,t,0,0,0
3:47.664,81959,),0,0,2
3:47.897,82043,(,0,0,0
3:47.953,82063,p,0,0,0
3:48.003,82081,),0,0,0
3:48.039,82094,(,0,0,1
3:48.081,82109,N,0,0,0
3:48.119,82123,),0,0,1
3:48.208,82155,(,0,0,2
3:48.306,82190,t,0,0,0
3:48.386,82219,),0,0,2
3:48.625,82305,(,0,0,0
3:48.686,82327,p,0,0,0
3:48.742,82347,),0,0,0
3:48.778,82360,(,0,0,1
3:48.822,82376,N,0,0,0
3:48.864,82391,),0,0,1
3:48.961,82426,(,0,0,2
3:49.050,82458,t,0,0,0
3:49.128,82486,),0,0,2
3:49.375,82575,(,0,0,0
3:49.433,82596,p,0,0,0
3:49.486,82615,),0,0,0
3:49.528,82630,(,0,0,1
3:49.569,82645,N,0,0,0
3:49.608,82659,),0,0,1
3:49.714,82697,(,0,0,2
3:49.797,82727,t,0,0,0
3:49.881,82757,),0,0,2
3:50.117,82842,(,0,0,0
3:50.181,82865,p,0,0,0
3:50.231,82883,),0,0,0
3:50.267,82896,(,0,0,1
3:50.314,82913,N,0,0,0
3:50.356,82928,),0,0,1
3:50.453,82963,(,0,0,2
3:50.547,82997,t,0,0,0
3:50.628,83026,),0,0,2
3:50.875,83115,(,0,0,0
3:50.942,83139,p,0,0,0
3:50.983,83154,),0,0,0
3:51.017,83166,(,0,0,1
3:51.061,83182,N,0,0,0
3:51.100,83196,),0,0,1
3:51.194,83230,(,0,0,2
3:51.289,83264,t,0,0,0
3:51.372,83294,),0,0,2
3:51.608,83379,(,0,0,0
3:51.667,83400,p,0,0,0
3:51.717,83418,),0,0,0
3:51.756,83432,(,0,0,1
3:51.800,83448,N,0,0,0
3:51.839,83462,),0,0,1
3:51.942,83499,(,0,0,2
3:52.033,83532,t,0,0,0
3:52.117,83562,),0,0,2
3:52.347,83645,(,0,0,0
3:52.414,83669,p,0,0,0
3:52.469,83689,),0,0,0
3:52.506,83702,(,0,0,1
3:52.556,83720,N,0,0,0
3:52.594,83734,),0,0,1
3:52.703,83773,(,0,0,2
3:52.792,83805,t,0,0,0
3:52.872,83834,),0,0,2
3:53.111,83920,(,0,0,0
3:53.169,83941,p,0,0,0
3:53.222,83960,),0,0,0
3:53.244,83968,(,0,0,1
3:53.303,83989,N,0,0,0
3:53.342,84003,),0,0,1
3:53.436,84037,(,0,0,2
3:53.536,84073,t,0,0,0
3:53.614,84101,),0,0,2
3:53.853,84187,(,0,0,0
3:53.914,84209,p,0,0,0
3:53.967,84228,),0,0,0
3:54.000,84240,(,0,0,1
3:54.042,84255,N,0,0,0
3:54.078,84268,),0,0,1
3:54.181,84305,(,0,0,2
3:54.261,84334,t,0,0,0
3:54.344,84364,),0,0,2
3:54.594,84454,(,0,0,0
3:54.650,84474,p,0,0,0
3:54.706,84494,),0,0,0
3:54.739,84506,(,0,0,1
3:54.786,84523,N,0,0,0
3:54.825,84537,),0,0,1
3:54.922,84572,(,0,0,2
3:55.014,84605,t,0,0,0
3:55.089,84632,),0,0,2
3:55.319,84715,(,0,0,0
3:55.381,84737,p,0,0,0
3:55.431,84755,),0,0,0
3:55.464,84767,(,0,0,1
3:55.511,84784,N,0,0,0
3:55.550,84798,),0,0,1
3:55.644,84832,(,0,0,2
3:55.739,84866,t,0,0,0
3:55.822,84896,),0,0,2
3:56.058,84981,(,0,0,0
3:56.122,85004,p,0,0,0
3:56.172,85022,),0,0,0
3:56.211,85036,(,0,0,1
3:56.253,85051,N,0,0,0
3:56.294,85066,),0,0,1
3:56.400,85104,(,0,0,2
3:56.489,85136,t,0,0,0
3:56.578,85168,),0,0,2
3:56.817,85254,(,0,0,0
3:56.881,85277,p,0,0,0
3:56.933,85296,),0,0,0
3:56.969,85309,(,0,0,1
3:57.017,85326,N,0,0,0
3:57.056,85340,),0,0,1
3:57.144,85372,(,0,0,2
3:57.242,85407,t,0,0,0
3:57.317,85434,),0,0,2
3:57.567,85524,(,0,0,0
3:57.625,85545,p,0,0,0
3:57.672,85562,),0,0,0
3:57.706,85574,(,0,0,1
3:57.753,85591,N,0,0,0
3:57.792,85605,),0,0,1
3:57.894,85642,(,0,0,2
3:57.981,85673,t,0,0,0
3:58.058,85701,),0,0,2
3:58.294,85786,(,0,0,0
3:58.358,85809,p,0,0,0
3:58.411,85828,),0,0,0
3:58.447,85841,(,0,0,1
3:58.497,85859,N,0,0,0
3:58.539,85874,),0,0,1
3:58.647,85913,(,0,0,2
3:58.739,85946,t,0,0,0
3:58.825,85977,),0,0,2
3:59.067,86064,(,0,0,0
3:59.122,86084,p,0,0,0
3:59.175,86103,),0,0,0
3:59.214,86117,(,0,0,1
3:59.256,86132,N,0,0,0
3:59.294,86146,),0,0,1
3:59.403,86185,(,0,0,2
3:59.492,86217,t,0,0,0
3:59.572,86246,),0,0,2
3:59.814,86333,(,0,0,0
3:59.875,86355,p,0,0,0
3:59.928,86374,),0,0,0
3:59.961,86386,(,0,0,1
4:00.006,86402,N,0,0,0
4:00.042,86415,),0,0,1
4:00.139,86450,(,0,0,2
4:00.225,86481,t,0,0,0
4:00.303,86509,),0,0,2
4:00.544,86596,(,0,0,0
4:00.608,86619,p,0,0,0
4:00.658,86637,),0,0,0
4:00.697,86651,(,0,0,1
4:00.744,86668,N,0,0,0
4:00.786,86683,),0,0,1
4:00.875,86715,(,0,0,2
4:00.975,86751,t,0,0,0
4:01.058,86781,),0,0,2
4:01.300,86868,(,0,0,0
4:01.361,86890,p,0,0,0
4:01.414,86909,),0,0,0
4:01.453,86923,(,0,0,1
4:01.497,86939,N,0,0,0
4:01.536,86953,),0,0,1
4:01.636,86989,(,0,0,2
4:01.728,87022,t,0,0,0
4:01.814,87053,),0,0,2
4:02.050,87138,(,0,0,0
4:02.111,87160,p,0,0,0
4:02.175,87183,),0,0,0
4:02.200,87192,(,0,0,1
4:02.244,87208,N,0,0,0
4:02.286,87223,),0,0,1
4:02.397,87263,(,0,0,2
4:02.475,87291,t,0,0,0
4:02.564,87323,),0,0,2
4:02.811,87412,(,0,0,0
4:02.883,87438,p,0,0,0
4:02.933,87456,),0,0,0
4:02.947,87461,(,0,0,1
4:03.014,87485,N,0,0,0
4:03.053,87499,),0,0,1
4:03.156,87536,(,0,0,2
4:03.239,87566,t,0,0,0
4:03.322,87596,),0,0,2
4:03.561,87682,(,0,0,0
4:03.622,87704,p,0,0,0
4:03.675,87723,),0,0,0
4:03.714,87737,(,0,0,1
4:03.756,87752,N,0,0,0
4:03.797,87767,),0,0,1
4:03.903,87805,(,0,0,2
4:03.986,87835,t,0,0,0
4:04.072,87866,),0,0,2
4:04.322,87956,(,0,0,0
4:04.378,87976,p,0,0,0
4:04.431,87995,),0,0,0
4:04.456,88004,(,0,0,1
4:04.517,88026,N,0,0,0
4:04.558,88041,),0,0,1
4:04.669,88081,(,0,0,2
4:04.758,88113,t,0,0,0
4:04.842,88143,),0,0,2
4:05.083,88230,(,0,0,0
4:05.150,88254,p,0,0,0
4:05.200,88272,),0,0,0
4:05.236,88285,(,0,0,1
4:05.281,88301,N,0,0,0
4:05.319,88315,),0,0,1
4:05.419,88351,(,0,0,2
4:05.514,88385,t,0,0,0
4:05.606,88418,),0,0,2
4:05.844,88504,(,0,0,0
4:05.908,88527,p,0,0,0
4:05.958,88545,),0,0,0
4:05.992,88557,(,0,0,1
4:06.036,88573,N,0,0,0
4:06.072,88586,),0,0,1
4:06.169,88621,(,0,0,2
4:06.258,88653,t,0,0,0
4:06.344,88684,),0,0,2
4:06.589,88772,(,0,0,0
4:06.650,88794,p,0,0,0
4:06.708,88815,),0,0,0
4:06.742,88827,(,0,0,1
4:06.789,88844,N,0,0,0
4:06.828,88858,),0,0,1
4:06.922,88892,(,0,0,2
4:07.014,88925,t,0,0,0
4:07.092,88953,),0,0,2
4:07.339,89042,(,0,0,0
4:07.397,89063,p,0,0,0
4:07.442,89079,),0,0,0
4:07.481,89093,(,0,0,1
4:07.528,89110,N,0,0,0
4:07.569,89125,),0,0,1
4:07.669,89161,(,0,0,2
4:07.758,89193,t,0,0,0
4:07.844,89224,),0,0,2
4:08.089,89312,(,0,0,0
4:08.153,89335,p,0,0,0
4:08.203,89353,),0,0,0
4:08.242,89367,(,0,0,1
4:08.286,89383,N,0,0,0
4:08.328,89398,),0,0,1
4:08.431,89435,(,0,0,2
4:08.519,89467,t,0,0,0
4:08.614,89501,),0,0,2
4:08.867,89592,(,0,0,0
4:08.928,89614,p,0,0,0
4:08.972,89630,),0,0,0
4:09.011,89644,(,0,0,1
4:09.056,89660,N,0,0,0
4:09.097,89675,),0,0,1
4:09.192,89709,(,0,0,2
4:09.286,89743,t,0,0,0
4:09.372,89774,),0,0,2
4:09.617,89862,(,0,0,0
4:09.678,89884,p,0,0,0
4:09.728,89902,),0,0,0
4:09.761,89914,(,0,0,1
4:09.808,89931,N,0,0,0
4:09.847,89945,),0,0,1
4:09.956,89984,(,0,0,2
4:10.033,90012,t,0,0,0
4:10.114,90041,),0,0,2
4:10.361,90130,(,0,0,0
4:10.431,90155,p,0,0,0
4:10.483,90174,),0,0,0
4:10.522,90188,(,0,0,1
4:10.567,90204,N,0,0,0
4:10.611,90220,),0,0,1
4:10.722,90260,(,0,0,2
4:10.811,90292,t,0,0,0
4:10.897,90323,),0,0,2
4:11.147,90413,(,0,0,0
4:11.203,90433,p,0,0,0
4:11.253,90451,),0,0,0
4:11.294,90466,(,0,0,1
4:11.339,90482,N,0,0,0
4:11.375,90495,),0,0,1
4:11.481,90533,(,0,0,2
4:11.569,90565,t,0,0,0
4:11.656,90596,),0,0,2
4:11.914,90689,(,0,0,0
4:11.972,90710,p,0,0,0
4:12.019,90727,),0,0,0
4:12.056,90740,(,0,0,1
4:12.100,90756,N,0,0,0
4:12.139,90770,),0,0,1
4:12.236,90805,(,0,0,2
4:12.322,90836,t,0,0,0
4:12.406,90866,),0,0,2
4:12.656,90956,(,0,0,0
4:12.725,90981,p,0,0,0
4:12.778,91000,),0,0,0
4:12.817,91014,(,0,0,1
4:12.864,91031,N,0,0,0
4:12.903,91045,),0,0,1
4:13.000,91080,(,0,0,2
4:13.092,91113,t,0,0,0
4:13.181,91145,),0,0,2
4:13.431,91235,(,0,0,0
4:13.486,91255,p,0,0,0
4:13.539,91274,),0,0,0
4:13.578,91288,(,0,0,1
4:13.622,91304,N,0,0,0
4:13.664,91319,),0,0,1
4:13.761,91354,(,0,0,2
4:13.853,91387,t,0,0,0
4:13.939,91418,),0,0,2
4:14.189,91508,(,0,0,0
4:14.250,91530,p,0,0,0
4:14.300,91548,),0,0,0
4:14.339,91562,(,0,0,1
4:14.386,91579,N,0,0,0
4:14.425,91593,),0,0,1
4:14.522,91628,(,0,0,2
4:14.622,91664,t,0,0,0
4:14.706,91694,),0,0,2
4:14.969,91789,(,0,0,0
4:15.025,91809,p,0,0,0
4:15.075,91827,),0,0,0
4:15.114,91841,(,0,0,1
4:15.158,91857,N,0,0,0
4:15.194,91870,),0,0,1
4:15.300,91908,(,0,0,2
4:15.386,91939,t,0,0,0
4:15.472,91970,),0,0,2
4:15.722,92060,(,0,0,0
4:15.775,92079,p,0,0,0
4:15.825,92097,),0,0,0
4:15.864,92111,(,0,0,1
4:15.914,92129,N,0,0,0
4:15.953,92143,),0,0,1
4:16.053,92179,(,0,0,2
4:16.142,92211,t,0,0,0
4:16.217,92238,),0,0,2
4:16.483,92334,(,0,0,0
4:16.542,92355,p,0,0,0
4:16.594,92374,),0,0,0
4:16.631,92387,(,0,0,1
4:16.681,92405,N,0,0,0
4:16.719,92419,),0,0,1
4:16.825,92457,(,0,0,2
4:16.922,92492,t,0,0,0
4:17.003,92521,),0,0,2
4:17.247,92609,(,0,0,0
4:17.308,92631,p,0,0,0
4:17.358,92649,),0,0,0
4:17.394,92662,(,0,0,1
4:17.442,92679,N,0,0,0
4:17.481,92693,),0,0,1
4:17.589,92732,(,0,0,2
4:17.675,92763,t,0,0,0
4:17.756,92792,),0,0,2
4:18.000,92880,(,0,0,0
4:18.053,92899,p,0,0,0
4:18.103,92917,),0,0,0
4:18.133,92928,(,0,0,1
4:18.181,92945,N,0,0,0
4:18.222,92960,),0,0,1
4:18.306,92990,(,0,0,2
4:18.406,93026,t,0,0,0
4:18.486,93055,),0,0,2
4:18.750,93150,(,0,0,0
4:18.808,93171,p,0,0,0
4:18.858,93189,),0,0,0
4:18.894,93202,(,0,0,1
4:18.942,93219,N,0,0,0
4:18.978,93232,),0,0,1
4:19.081,93269,(,0,0,2
4:19.167,93300,t,0,0,0
4:19.242,93327,),0,0,2
4:19.481,93413,(,0,0,0
4:19.542,93435,p,0,0,0
4:19.592,93453,),0,0,0
4:19.628,93466,(,0,0,1
4:19.675,93483,N,0,0,0
4:19.711,93496,),0,0,1
4:19.808,93531,(,0,0,2
4:19.906,93566,t,0,0,0
4:19.989,93596,),0,0,2
4:20.217,93678,(,0,0,0
4:20.275,93699,p,0,0,0
4:20.331,93719,),0,0,0
4:20.367,93732,(,0,0,1
4:20.414,93749,N,0,0,0
4:20.456,93764,),0,0,1
4:20.561,93802,(,0,0,2
4:20.650,93834,t,0,0,0
4:20.728,93862,),0,0,2
4:20.992,93957,(,0,0,0
4:21.047,93977,p,0,0,0
4:21.097,93995,),0,0,0
4:21.131,94007,(,0,0,1
4:21.181,94025,N,0,0,0
4:21.219,94039,),0,0,1
4:21.319,94075,(,0,0,2
4:21.406,94106,t,0,0,0
4:21.486,94135,),0,0,2
4:21.722,94220,(,0,0,0
4:21.783,94242,p,0,0,0
4:21.839,94262,),0,0,0
4:21.867,94272,(,0,0,1
4:21.914,94289,N,0,0,0
4:21.956,94304,),0,0,1
4:22.047,94337,(,0,0,2
4:22.139,94370,t,0,0,0
4:22.219,94399,),0,0,2
4:22.472,94490,(,0,0,0
4:22.536,94513,p,0,0,0
4:22.594,94534,),0,0,0
4:22.631,94547,(,0,0,1
4:22.681,94565,N,0,0,0
4:22.722,94580,),0,0,1
4:22.825,94617,(,0,0,2
4:22.919,94651,t,0,0,0
4:23.000,94680,),0,0,2
4:23.064,94703,(,0,0,1
4:23.200,94752,N,0,0,0
4:23.236,94765,),0,0,1
4:23.300,94788,(,0,0,2
4:23.372,94814,t,0,0,1
4:23.461,94846,),0,0,2
4:23.994,95038,(,0,0,0
4:24.058,95061,p,0,0,0
4:24.103,95077,),0,0,0
4:24.131,95087,(,0,0,1
4:24.178,95104,N,0,0,0
4:24.217,95118,),0,0,1
4:24.314,95153,(,0,0,2
4:24.422,95192,t,0,0,0
4:24.506,95222,),0,0,2
4:24.750,95310,(,0,0,0
4:24.808,95331,p,0,0,0
4:24.861,95350,),0,0,0
4:24.897,95363,(,0,0,1
4:24.947,95381,N,0,0,0
4:24.986,95395,),0,0,1
4:25.075,95427,(,0,0,2
4:25.175,95463,t,0,0,0
4:25.258,95493,),0,0,2
4:25.297,95507,(,0,0,1
4:25.419,95551,N,0,0,0
4:25.458,95565,),0,0,1
4:25.533,95592,(,0,0,2
4:25.592,95613,t,0,0,1
4:25.681,95645,),0,0,2
4:26.258,95853,(,0,0,0
4:26.317,95874,p,0,0,0
4:26.364,95891,),0,0,0
4:26.394,95902,(,0,0,1
4:26.444,95920,N,0,0,0
4:26.483,95934,),0,0,1
4:26.572,95966,(,0,0,2
4:26.717,96018,t,0,0,0
4:26.789,96044,),0,0,2
4:26.833,96060,(,0,0,1
4:26.967,96108,N,0,0,0
4:27.003,96121,),0,0,1
4:27.042,96135,(,0,0,2
4:27.139,96170,t,0,0,1
4:27.228,96202,),0,0,2
4:27.775,96399,(,0,0,0
4:27.842,96423,p,0,0,0
4:27.894,96442,),0,0,0
4:27.925,96453,(,0,0,1
4:27.969,96469,N,0,0,0
4:28.006,96482,),0,0,1
4:28.103,96517,(,0,0,2
4:28.222,96560,t,0,0,0
4:28.303,96589,),0,0,2
4:28.664,96719,(,0,0,1
4:28.714,96737,N,0,0,0
4:28.756,96752,),0,0,1
4:28.844,96784,(,0,0,2
4:28.947,96821,t,0,0,0
4:29.031,96851,),0,0,2
4:29.278,96940,(,0,0,0
4:29.339,96962,p,0,0,0
4:29.389,96980,),0,0,0
4:29.425,96993,(,0,0,1
4:29.467,97008,N,0,0,0
4:29.508,97023,),0,0,1
4:29.606,97058,(,0,0,2
4:29.703,97093,t,0,0,0
4:29.789,97124,),0,0,2
4:30.011,97204,(,0,0,0
4:30.072,97226,p,0,0,0
4:30.119,97243,),0,0,0
4:30.131,97247,(,0,0,1
4:30.197,97271,N,0,0,0
4:30.239,97286,),0,0,1
4:30.342,97323,(,0,0,2
4:30.419,97351,t,0,0,0
4:30.497,97379,),0,0,2
4:30.756,97472,(,0,0,0
4:30.819,97495,p,0,0,0
4:30.867,97512,),0,0,0
4:30.903,97525,(,0,0,1
4:30.950,97542,N,0,0,0
4:30.989,97556,),0,0,1
4:31.075,97587,(,0,0,2
4:31.172,97622,t,0,0,0
4:31.253,97651,),0,0,2
4:31.486,97735,(,0,0,0
4:31.544,97756,p,0,0,0
4:31.594,97774,),0,0,0
4:31.628,97786,(,0,0,1
4:31.672,97802,N,0,0,0
4:31.708,97815,),0,0,1
4:31.811,97852,(,0,0,2
4:31.903,97885,t,0,0,0
4:31.992,97917,),0,0,2
4:32.222,98000,(,0,0,0
4:32.286,98023,p,0,0,0
4:32.336,98041,),0,0,0
4:32.369,98053,(,0,0,1
4:32.414,98069,N,0,0,0
4:32.453,98083,),0,0,1
4:32.556,98120,(,0,0,2
4:32.647,98153,t,0,0,0
4:32.733,98184,),0,0,2
4:32.986,98275,(,0,0,0
4:33.047,98297,p,0,0,0
4:33.097,98315,),0,0,0
4:33.133,98328,(,0,0,1
4:33.178,98344,N,0,0,0
4:33.217,98358,),0,0,1
4:33.319,98395,(,0,0,2
4:33.403,98425,t,0,0,0
4:33.489,98456,),0,0,2
4:33.753,98551,(,0,0,0
4:33.783,98562,p,0,0,0
4:33.831,98579,),0,0,0
4:33.869,98593,(,0,0,1
4:33.914,98609,N,0,0,0
4:33.953,98623,),0,0,1
4:34.047,98657,(,0,0,2
4:34.136,98689,t,0,0,0
4:34.219,98719,),0,0,2
4:34.458,98805,(,0,0,0
4:34.522,98828,p,0,0,0
4:34.572,98846,),0,0,0
4:34.611,98860,(,0,0,1
4:34.658,98877,N,0,0,0
4:34.700,98892,),0,0,1
4:34.806,98930,(,0,0,2
4:34.903,98965,t,0,0,0
4:34.994,98998,),0,0,2
4:36.142,99411,(,0,0,0
4:36.172,99422,p,0,0,0
4:36.203,99433,),0,0,0
4:36.294,99466,(,0,0,1
4:36.397,99503,N,0,0,0
4:36.472,99530,),0,0,1
4:36.731,99623,(,0,0,2
4:36.803,99649,t,0,0,0
4:36.864,99671,),0,0,2
4:36.908,99687,(,0,0,0
4:36.939,99698,p,0,0,0
4:36.969,99709,),0,0,0
4:37.067,99744,(,0,0,1
4:37.178,99784,N,0,0,0
4:37.300,99828,),0,0,1
4:37.672,99962,(,0,0,0
4:37.700,99972,p,0,0,0
4:37.728,99982,),0,0,0
4:37.828   100018,(,0,0,1
4:37.928   100054,N,0,0,0
4:38.006   100082,),0,0,1
4:38.269   100177,(,0,0,2
4:38.336   100201,t,0,0,0
4:38.394   100222,),0,0,2
4:38.442   100239,(,0,0,0
4:38.472   100250,p,0,0,0
4:38.503   100261,),0,0,0
4:38.600   100296,(,0,0,1
4:38.714   100337,N,0,0,0
4:38.783   100362,),0,0,1
4:39.064   100463,(,0,0,2
4:39.128   100486,t,0,0,0
4:39.186   100507,),0,0,2
4:39.231   100523,(,0,0,0
4:39.261   100534,p,0,0,0
4:39.289   100544,),0,0,0
4:39.364   100571,(,0,0,1
4:39.489   100616,N,0,0,0
4:39.672   100682,),0,0,1
4:39.953   100783,),0,0,2
4:39.975   100791,t,0,0,0
4:39.997   100799,(,0,0,2
4:40.008   100803,(,0,0,0
4:40.036   100813,p,0,0,0
4:40.067   100824,),0,0,0
4:40.139   100850,(,0,0,1
4:40.272   100898,N,0,0,0
4:40.342   100923,),0,0,1
4:40.606   101018,(,0,0,2
4:40.669   101041,t,0,0,0
4:40.728   101062,),0,0,2
4:40.778   101080,(,0,0,0
4:40.808   101091,p,0,0,0
4:40.836   101101,),0,0,0
4:40.933   101136,(,0,0,1
4:41.056   101180,N,0,0,0
4:41.136   101209,),0,0,1
4:41.397   101303,(,0,0,2
4:41.464   101327,t,0,0,0
4:41.519   101347,),0,0,2
4:41.567   101364,(,0,0,0
4:41.597   101375,p,0,0,0
4:41.628   101386,),0,0,0
4:41.733   101424,(,0,0,1
4:41.831   101459,N,0,0,0
4:41.908   101487,),0,0,1
4:42.181   101585,(,0,0,2
4:42.247   101609,t,0,0,0
4:42.303   101629,),0,0,2
4:42.344   101644,(,0,0,0
4:42.372   101654,p,0,0,0
4:42.403   101665,),0,0,0
4:42.503   101701,(,0,0,1
4:42.600   101736,N,0,0,0
4:42.675   101763,),0,0,1
4:42.944   101860,(,0,0,2
4:43.008   101883,t,0,0,0
4:43.067   101904,),0,0,2
4:43.111   101920,(,0,0,0
4:43.139   101930,p,0,0,0
4:43.167   101940,),0,0,0
4:43.242   101967,(,0,0,1
4:43.364   102011,N,0,0,0
4:43.472   102050,),0,0,1
4:43.869   102193,(,0,0,0
4:43.897   102203,p,0,0,0
4:43.925   102213,),0,0,0
4:44.033   102252,(,0,0,1
4:44.131   102287,N,0,0,0
4:44.208   102315,),0,0,1
4:44.467   102408,(,0,0,2
4:44.539   102434,t,0,0,0
4:44.594   102454,),0,0,2
4:44.642   102471,(,0,0,0
4:44.669   102481,p,0,0,0
4:44.700   102492,),0,0,0
4:44.806   102530,(,0,0,1
4:44.917   102570,N,0,0,0
4:45.039   102614,),0,0,1
4:45.392   102741,t,0,0,2
4:45.450   102762,),0,0,2
4:45.575   102807,(,0,0,1
4:45.686   102847,N,0,0,0
4:45.881   102917,),0,0,1
4:46.131   103007,),0,0,2
4:46.153   103015,t,0,0,0
4:46.172   103022,(,0,0,2
4:46.183   103026,(,0,0,0
4:46.211   103036,p,0,0,0
4:46.239   103046,),0,0,0
4:46.339   103082,(,0,0,1
4:46.447   103121,N,0,0,0
4:46.606   103178,),0,0,1
4:46.953   103303,(,0,0,2
4:46.989   103316,t,0,0,0
4:47.028   103330,),0,0,2
4:47.106   103358,(,0,0,1
4:47.231   103403,N,0,0,0
4:47.311   103432,),0,0,1
4:47.567   103524,(,0,0,2
4:47.631   103547,t,0,0,5
4:47.697   103571,t,0,0,5
4:47.761   103594,),0,0,2
4:47.847   103625,(,0,0,1
4:47.994   103678,N,0,0,0
4:48.181   103745,),0,0,1
4:48.497   103859,(,0,0,2
4:48.531   103871,t,0,0,0
4:48.569   103885,),0,0,2
4:49.278   104140,(,0,0,0
4:49.308   104151,p,0,0,0
4:49.336   104161,),0,0,0
4:49.408   104187,(,0,0,1
4:49.542   104235,N,0,0,0
4:49.589   104252,),0,0,1
4:49.703   104293,(,0,0,2
4:49.789   104324,t,0,0,0
4:49.847   104345,),0,0,2
4:50.786   104683,(,0,0,1
4:50.878   104716,N,0,0,0
4:50.881   104717,),0,0,1
4:50.944   104740,(,0,0,2
4:51.078   104788,t,0,0,0
4:51.153   104815,),0,0,2
4:51.553   104959,(,0,0,0
4:51.578   104968,p,0,0,0
4:51.608   104979,),0,0,0
4:51.708   105015,(,0,0,1
4:51.803   105049,N,0,0,0
4:51.983   105114,),0,0,1
4:52.289   105224,(,0,0,2
4:52.325   105237,t,0,0,0
4:52.361   105250,),0,0,2
4:52.475   105291,(,0,0,0
4:52.550   105318,p,0,0,0
4:52.617   105342,),0,0,0
4:52.794   105406,(,0,0,1
4:52.978   105472,N,0,0,0
4:53.128   105526,),0,0,1
4:53.219   105559,(,0,0,2
4:53.414   105629,t,0,0,1
4:53.683   105726,),0,0,2
4:53.781   105761,(,0,0,0
4:53.811   105772,p,0,0,0
4:53.842   105783,),0,0,0
4:53.944   105820,(,0,0,1
4:54.064   105863,N,0,0,0
4:54.219   105919,),0,0,1
4:54.356   105968,(,0,0,2
4:54.425   105993,t,0,0,0
4:54.475   106011,),0,0,2
4:54.522   106028,(,0,0,0
4:54.550   106038,p,0,0,0
4:54.578   106048,),0,0,0
4:54.669   106081,(,0,0,1
4:54.769   106117,N,0,0,0
4:54.828   106138,),0,0,1
4:55.194   106270,),0,0,2
4:55.214   106277,t,0,0,0
4:55.233   106284,(,0,0,2
4:55.244   106288,(,0,0,0
4:55.275   106299,p,0,0,0
4:55.303   106309,),0,0,0
4:55.378   106336,(,0,0,1
4:55.506   106382,N,0,0,0
4:55.558   106401,),0,0,1
4:55.928   106534,),0,0,2
4:55.947   106541,t,0,0,0
4:55.964   106547,(,0,0,2
4:55.975   106551,(,0,0,0
4:56.003   106561,p,0,0,0
4:56.031   106571,),0,0,0
4:56.089   106592,(,0,0,1
4:56.233   106644,N,0,0,0
4:56.314   106673,),0,0,1
4:56.528   106750,(,0,0,2
4:56.592   106773,t,0,0,0
4:56.644   106792,),0,0,2
4:56.694   106810,(,0,0,0
4:56.722   106820,p,0,0,0
4:56.750   106830,),0,0,0
4:56.844   106864,(,0,0,1
4:56.961   106906,N,0,0,0
4:57.044   106936,),0,0,1
4:57.450   107082,(,0,0,0
4:57.478   107092,p,0,0,0
4:57.506   107102,),0,0,0
4:57.611   107140,(,0,0,1
4:57.706   107174,N,0,0,0
4:57.783   107202,),0,0,1
4:58.178   107344,(,0,0,0
4:58.208   107355,p,0,0,0
4:58.236   107365,),0,0,0
4:58.344   107404,(,0,0,1
4:58.439   107438,N,0,0,0
4:58.581   107489,),0,0,1
4:58.917   107610,(,0,0,2
4:58.953   107623,t,0,0,0
4:58.992   107637,),0,0,2
4:59.075   107667,(,0,0,1
4:59.197   107711,N,0,0,0
4:59.311   107752,),0,0,1
4:59.669   107881,t,0,0,2
4:59.731   107903,),0,0,2
4:59.844   107944,(,0,0,1
4:59.969   107989,N,0,0,0
5:00.047   108017,),0,0,1
5:00.306   108110,(,0,0,2
5:00.372   108134,t,0,0,0
5:00.431   108155,),0,0,2
5:00.478   108172,(,0,0,0
5:00.508   108183,p,0,0,0
5:00.536   108193,),0,0,0
5:00.639   108230,(,0,0,1
5:00.739   108266,N,0,0,0
5:00.817   108294,),0,0,1
5:01.069   108385,(,0,0,2
5:01.139   108410,t,0,0,0
5:01.194   108430,),0,0,2
5:01.250   108450,(,0,0,0
5:01.281   108461,p,0,0,0
5:01.308   108471,),0,0,0
5:01.414   108509,(,0,0,1
5:01.531   108551,N,0,0,0
5:01.650   108594,),0,0,1
5:01.992   108717,t,0,0,2
5:02.056   108740,),0,0,2
5:02.183   108786,(,0,0,1
5:02.294   108826,N,0,0,0
5:02.336   108841,),0,0,1
5:02.639   108950,(,0,0,2
5:02.706   108974,t,0,0,0
5:02.758   108993,),0,0,2
5:02.808   109011,(,0,0,0
5:02.839   109022,p,0,0,0
5:02.869   109033,),0,0,0
5:02.950   109062,(,0,0,1
5:03.072   109106,N,0,0,0
5:03.156   109136,),0,0,1
5:03.431   109235,(,0,0,2
5:03.506   109262,t,0,0,0
5:03.561   109282,),0,0,2
5:03.611   109300,(,0,0,0
5:03.642   109311,p,0,0,0
5:03.672   109322,),0,0,0
5:03.753   109351,(,0,0,1
5:03.875   109395,N,0,0,0
5:03.953   109423,),0,0,1
5:04.211   109516,(,0,0,2
5:04.278   109540,t,0,0,5
5:04.347   109565,t,0,0,5
5:04.408   109587,),0,0,2
5:04.519   109627,(,0,0,1
5:04.642   109671,N,0,0,0
5:04.717   109698,),0,0,1
5:04.981   109793,(,0,0,2
5:05.047   109817,t,0,0,0
5:05.103   109837,),0,0,2
5:05.150   109854,(,0,0,0
5:05.178   109864,p,0,0,0
5:05.208   109875,),0,0,0
5:05.286   109903,(,0,0,1
5:05.431   109955,N,0,0,0
5:05.475   109971,),0,0,1
5:05.778   110080,(,0,0,2
5:05.844   110104,t,0,0,0
5:05.903   110125,),0,0,2
5:05.947   110141,(,0,0,0
5:05.975   110151,p,0,0,0
5:06.006   110162,),0,0,0
5:06.117   110202,(,0,0,1
5:06.208   110235,N,0,0,0
5:06.386   110299,),0,0,1
5:06.667   110400,),0,0,2
5:06.686   110407,t,0,0,0
5:06.706   110414,(,0,0,2
5:06.719   110419,(,0,0,0
5:06.747   110429,p,0,0,0
5:06.778   110440,),0,0,0
5:06.839   110462,(,0,0,1
5:06.972   110510,N,0,0,0
5:07.039   110534,),0,0,1
5:07.300   110628,(,0,0,2
5:07.361   110650,t,0,0,5
5:07.425   110673,t,0,0,5
5:07.492   110697,),0,0,2
5:07.647   110753,(,0,0,1
5:07.739   110786,N,0,0,0
5:07.814   110813,),0,0,1
5:08.233   110964,(,0,0,0
5:08.264   110975,p,0,0,0
5:08.294   110986,),0,0,0
5:08.386   111019,(,0,0,1
5:08.500   111060,N,0,0,0
5:08.583   111090,),0,0,1
5:08.992   111237,(,0,0,0
5:09.022   111248,p,0,0,0
5:09.053   111259,),0,0,0
5:09.125   111285,(,0,0,1
5:09.267   111336,N,0,0,0
5:09.308   111351,),0,0,1
5:09.594   111454,(,0,0,2
5:09.669   111481,t,0,0,0
5:09.722   111500,),0,0,2
5:09.775   111519,(,0,0,0
5:09.803   111529,p,0,0,0
5:09.831   111539,),0,0,0
5:09.914   111569,(,0,0,1
5:10.031   111611,N,0,0,0
5:10.103   111637,),0,0,1
5:10.358   111729,(,0,0,2
5:10.431   111755,t,0,0,0
5:10.489   111776,),0,0,2
5:10.536   111793,(,0,0,0
5:10.567   111804,p,0,0,0
5:10.594   111814,),0,0,0
5:10.692   111849,(,0,0,1
5:10.800   111888,N,0,0,0
5:10.881   111917,),0,0,1
5:11.200   112032,(,0,0,2
5:11.256   112052,t,0,0,1
5:11.325   112077,),0,0,2
5:11.428   112114,(,0,0,1
5:11.572   112166,N,0,0,0
5:11.689   112208,),0,0,1
5:12.044   112336,t,0,0,2
5:12.106   112358,),0,0,2
5:12.853   112627,(,0,0,0
5:12.883   112638,p,0,0,0
5:12.914   112649,),0,0,0
5:12.986   112675,(,0,0,1
5:13.108   112719,N,0,0,0
5:13.289   112784,),0,0,1
5:13.567   112884,t,0,0,2
5:13.639   112910,),0,0,2
5:13.758   112953,(,0,0,1
5:13.881   112997,N,0,0,0
5:13.958   113025,),0,0,1
5:14.369   113173,(,0,0,0
5:14.397   113183,p,0,0,0
5:14.428   113194,),0,0,0
5:14.528   113230,(,0,0,1
5:14.642   113271,N,0,0,0
5:14.753   113311,),0,0,1
5:15.092   113433,t,0,0,2
5:15.153   113455,),0,0,2
5:15.322   113516,(,0,0,1
5:15.400   113544,N,0,0,0
5:15.528   113590,),0,0,1
5:15.900   113724,(,0,0,0
5:15.928   113734,p,0,0,0
5:15.958   113745,),0,0,0
5:16.031   113771,(,0,0,1
5:16.161   113818,N,0,0,0
5:16.361   113890,),0,0,1
5:16.636   113989,(,0,0,2
5:16.672   114002,t,0,0,0
5:16.708   114015,),0,0,2
5:16.792   114045,(,0,0,1
5:16.911   114088,N,0,0,0
5:16.992   114117,),0,0,1
5:18.156   114536,(,0,0,0
5:18.183   114546,p,0,0,0
5:18.211   114556,),0,0,0
5:18.322   114596,(,0,0,1
5:18.411   114628,N,0,0,0
5:18.561   114682,),0,0,1
5:18.861   114790,),0,0,2
5:18.875   114795,t,0,0,0
5:18.886   114799,(,0,0,2
5:18.911   114808,(,0,0,0
5:18.939   114818,p,0,0,0
5:18.969   114829,),0,0,0
5:19.056   114860,(,0,0,1
5:19.153   114895,N,0,0,0
5:19.294   114946,),0,0,1
5:19.639   115070,(,0,0,2
5:19.672   115082,t,0,0,0
5:19.711   115096,),0,0,2
5:19.758   115113,(,0,0,1
5:19.914   115169,N,0,0,0
5:20.028   115210,),0,0,1
5:20.397   115343,(,0,0,0
5:20.428   115354,p,0,0,0
5:20.456   115364,),0,0,0
5:20.475   115371,(,0,0,1
5:20.669   115441,N,0,0,0
5:20.797   115487,),0,0,1
5:21.169   115621,(,0,0,0
5:21.197   115631,p,0,0,0
5:21.225   115641,),0,0,0
5:21.283   115662,(,0,0,1
5:21.442   115719,N,0,0,0
5:21.594   115774,),0,0,1
5:21.889   115880,),0,0,2
5:21.908   115887,t,0,0,0
5:21.928   115894,(,0,0,2
5:21.939   115898,(,0,0,0
5:21.969   115909,p,0,0,0
5:21.997   115919,),0,0,0
5:22.194   115990,(,0,0,1
5:22.200   115992,N,0,0,0
5:22.367   116052,),0,0,1
5:22.694   116170,(,0,0,2
5:22.728   116182,t,0,0,0
5:22.761   116194,),0,0,2
5:23.461   116446,(,0,0,0
5:23.489   116456,p,0,0,0
5:23.519   116467,),0,0,0
5:23.619   116503,(,0,0,1
5:23.736   116545,N,0,0,0
5:23.861   116590,),0,0,1
5:24.200   116712,t,0,0,2
5:24.261   116734,),0,0,2
5:24.394   116782,(,0,0,1
5:24.508   116823,N,0,0,0
5:24.572   116846,),0,0,1
5:24.992   116997,(,0,0,0
5:25.017   117006,p,0,0,0
5:25.044   117016,),0,0,0
5:25.067   117024,(,0,0,1
5:25.247   117089,N,0,0,0
5:25.397   117143,),0,0,1
5:25.700   117252,),0,0,2
5:25.719   117259,t,0,0,0
5:25.736   117265,(,0,0,2
5:25.753   117271,(,0,0,0
5:25.781   117281,p,0,0,0
5:25.811   117292,),0,0,0
5:25.897   117323,(,0,0,1
5:26.019   117367,N,0,0,0
5:26.094   117394,),0,0,1
5:26.497   117539,(,0,0,0
5:26.525   117549,p,0,0,0
5:26.556   117560,),0,0,0
5:26.658   117597,(,0,0,1
5:26.758   117633,N,0,0,0
5:26.936   117697,),0,0,1
5:27.178   117784,),0,0,2
5:27.200   117792,t,0,0,0
5:27.219   117799,(,0,0,2
5:27.233   117804,(,0,0,0
5:27.261   117814,p,0,0,0
5:27.292   117825,),0,0,0
5:27.311   117832,(,0,0,1
5:27.489   117896,N,0,0,0
5:27.539   117914,),0,0,1
5:27.828   118018,(,0,0,2
5:27.900   118044,t,0,0,0
5:27.956   118064,),0,0,2
5:28.003   118081,(,0,0,0
5:28.033   118092,p,0,0,0
5:28.064   118103,),0,0,0
5:28.156   118136,(,0,0,1
5:28.275   118179,N,0,0,0
5:28.336   118201,),0,0,1
5:28.736   118345,(,0,0,0
5:28.767   118356,p,0,0,0
5:28.797   118367,),0,0,0
5:28.869   118393,(,0,0,1
5:28.983   118434,N,0,0,0
5:29.000   118440,),0,0,1
5:29.303   118549,(,0,0,2
5:29.361   118570,t,0,0,0
5:29.419   118591,),0,0,2
5:29.467   118608,(,0,0,0
5:29.497   118619,p,0,0,0
5:29.525   118629,),0,0,0
5:29.589   118652,(,0,0,1
5:29.747   118709,N,0,0,0
5:29.903   118765,),0,0,1
5:30.222   118880,(,0,0,2
5:30.256   118892,t,0,0,0
5:30.294   118906,),0,0,2
5:30.486   118975,(,0,0,1
5:30.497   118979,N,0,0,0
5:30.575   119007,),0,0,1
5:30.817   119094,(,0,0,2
5:30.858   119109,t,0,0,0
5:30.928   119134,),0,0,2
5:30.972   119150,(,0,0,0
5:31.000   119160,p,0,0,0
5:31.028   119170,),0,0,0
5:31.119   119203,(,0,0,1
5:31.219   119239,N,0,0,0
5:31.275   119259,),0,0,1
5:31.525   119349,(,0,0,2
5:31.597   119375,t,0,0,0
5:31.650   119394,),0,0,2
5:31.697   119411,(,0,0,0
5:31.728   119422,p,0,0,0
5:31.758   119433,),0,0,0
5:31.864   119471,(,0,0,1
5:31.961   119506,N,0,0,0
5:32.147   119573,),0,0,1
5:32.389   119660,),0,0,2
5:32.408   119667,t,0,0,0
5:32.428   119674,(,0,0,2
5:32.436   119677,(,0,0,0
5:32.467   119688,p,0,0,0
5:32.497   119699,),0,0,0
5:32.597   119735,(,0,0,1
5:32.703   119773,N,0,0,0
5:32.900   119844,),0,0,1
5:33.136   119929,t,0,0,2
5:33.197   119951,),0,0,2
5:33.333   120000,(,0,0,1
5:33.439   120038,N,0,0,0
5:33.628   120106,),0,0,1
5:33.878   120196,),0,0,2
5:33.900   120204,t,0,0,0
5:33.919   120211,(,0,0,2
5:33.931   120215,(,0,0,0
5:33.961   120226,p,0,0,0
5:33.989   120236,),0,0,0
5:34.069   120265,(,0,0,1
5:34.189   120308,N,0,0,0
5:34.253   120331,),0,0,1
5:34.503   120421,(,0,0,2
5:34.575   120447,t,0,0,0
5:34.631   120467,),0,0,2
5:34.672   120482,(,0,0,0
5:34.700   120492,p,0,0,0
5:34.731   120503,),0,0,0
5:34.806   120530,(,0,0,1
5:34.944   120580,N,0,0,0
5:34.986   120595,),0,0,1
5:35.311   120712,(,0,0,2
5:35.369   120733,t,0,0,1
5:35.433   120756,),0,0,2
5:35.564   120803,(,0,0,1
5:35.683   120846,N,0,0,0
5:35.872   120914,),0,0,1
5:36.108   120999,),0,0,2
5:36.131   121007,t,0,0,0
5:36.150   121014,(,0,0,2
5:36.161   121018,(,0,0,0
5:36.189   121028,p,0,0,0
5:36.219   121039,),0,0,0
5:36.303   121069,(,0,0,1
5:36.422   121112,N,0,0,0
5:36.539   121154,),0,0,1
5:36.917   121290,(,0,0,0
5:36.947   121301,p,0,0,0
5:36.975   121311,),0,0,0
5:37.067   121344,(,0,0,1
5:37.175   121383,N,0,0,0
5:37.244   121408,),0,0,1
5:37.486   121495,(,0,0,2
5:37.553   121519,t,0,0,0
5:37.611   121540,),0,0,2
5:37.661   121558,(,0,0,0
5:37.692   121569,p,0,0,0
5:37.719   121579,),0,0,0
5:37.831   121619,(,0,0,1
5:37.933   121656,N,0,0,0
5:38.042   121695,),0,0,1
5:38.361   121810,t,0,0,2
5:38.428   121834,),0,0,2
5:38.597   121895,(,0,0,1
5:38.658   121917,N,0,0,0
5:38.858   121989,),0,0,1
5:39.142   122091,(,0,0,2
5:39.178   122104,t,0,0,0
5:39.214   122117,),0,0,2
5:39.300   122148,(,0,0,1
5:39.417   122190,N,0,0,0
5:39.503   122221,),0,0,1
5:39.736   122305,(,0,0,2
5:39.806   122330,t,0,0,0
5:39.867   122352,),0,0,2
5:39.914   122369,(,0,0,0
5:39.942   122379,p,0,0,0
5:39.972   122390,),0,0,0
5:40.064   122423,(,0,0,1
5:40.275   122499,N,0,0,0
5:40.375   122535,),0,0,1
5:40.597   122615,),0,0,2
5:40.619   122623,t,0,0,0
5:40.639   122630,(,0,0,2
5:40.647   122633,(,0,0,0
5:40.678   122644,p,0,0,0
5:40.706   122654,),0,0,0
5:40.739   122666,(,0,0,1
5:40.914   122729,N,0,0,0
5:41.103   122797,),0,0,1
5:41.381   122897,(,0,0,2
5:41.417   122910,t,0,0,0
5:41.456   122924,),0,0,2
5:41.542   122955,(,0,0,1
5:41.664   122999,N,0,0,0
5:41.842   123063,),0,0,1
5:42.103   123157,),0,0,2
5:42.119   123163,t,0,0,0
5:42.136   123169,(,0,0,2
5:42.147   123173,(,0,0,0
5:42.175   123183,p,0,0,0
5:42.203   123193,),0,0,0
5:42.294   123226,(,0,0,1
5:42.408   123267,N,0,0,0
5:42.572   123326,),0,0,1
5:42.842   123423,),0,0,2
5:42.861   123430,t,0,0,0
5:42.878   123436,(,0,0,2
5:42.892   123441,(,0,0,0
5:42.919   123451,p,0,0,0
5:42.950   123462,),0,0,0
5:43.033   123492,(,0,0,1
5:43.150   123534,N,0,0,0
5:43.194   123550,),0,0,1
5:43.617   123702,(,0,0,0
5:43.647   123713,p,0,0,0
5:43.678   123724,),0,0,0
5:43.769   123757,(,0,0,1
5:43.889   123800,N,0,0,0
5:44.072   123866,),0,0,1
5:44.308   123951,),0,0,2
5:44.331   123959,t,0,0,0
5:44.350   123966,(,0,0,2
5:44.358   123969,(,0,0,0
5:44.386   123979,p,0,0,0
5:44.417   123990,),0,0,0
5:44.506   124022,(,0,0,1
5:44.622   124064,N,0,0,0
5:44.772   124118,),0,0,1
5:45.008   124203,(,0,0,2
5:45.067   124224,t,0,0,1
5:45.128   124246,),0,0,2
5:45.242   124287,(,0,0,1
5:45.364   124331,N,0,0,0
5:45.475   124371,),0,0,1
5:45.764   124475,(,0,0,2
5:45.825   124497,t,0,0,1
5:45.883   124518,),0,0,2
5:45.975   124551,(,0,0,1
5:46.125   124605,N,0,0,0
5:46.239   124646,),0,0,1
5:46.561   124762,t,0,0,2
5:46.622   124784,),0,0,2
5:46.736   124825,(,0,0,1
5:46.858   124869,N,0,0,0
5:46.936   124897,),0,0,1
5:47.175   124983,(,0,0,2
5:47.231   125003,t,0,0,0
5:47.286   125023,),0,0,2
5:47.333   125040,(,0,0,0
5:47.364   125051,p,0,0,0
5:47.394   125062,),0,0,0
5:47.408   125067,(,0,0,1
5:47.614   125141,N,0,0,0
5:47.681   125165,),0,0,1
5:47.933   125256,(,0,0,2
5:48.003   125281,t,0,0,0
5:48.064   125303,),0,0,2
5:48.100   125316,(,0,0,0
5:48.128   125326,p,0,0,0
5:48.158   125337,),0,0,0
5:48.231   125363,(,0,0,1
5:48.361   125410,N,0,0,0
5:48.553   125479,),0,0,1
5:48.800   125568,),0,0,2
5:48.822   125576,t,0,0,0
5:48.842   125583,(,0,0,2
5:48.850   125586,(,0,0,0
5:48.878   125596,p,0,0,0
5:48.906   125606,),0,0,0
5:48.972   125630,(,0,0,1
5:49.114   125681,N,0,0,0
5:49.186   125707,),0,0,1
5:49.261   125734,t,0,0,2
5:49.381   125777,),0,0,2
5:49.586   125851,N,0,0,0
5:49.600   125856,(,0,0,1
5:49.711   125896,),0,0,1
5:49.903   125965,(,0,0,2
5:49.928   125974,t,0,0,5
5:50.078   126028,t,0,0,5
5:50.089   126032,),0,0,2
5:50.331   126119,(,0,0,0
5:50.361   126130,p,0,0,0
5:50.392   126141,),0,0,0
5:50.475   126171,(,0,0,1
5:50.606   126218,N,0,0,0
5:50.683   126246,),0,0,1
5:51.039   126374,t,0,0,2
5:51.103   126397,),0,0,2
5:51.211   126436,(,0,0,1
5:51.342   126483,N,0,0,0
5:51.514   126545,),0,0,1
5:51.797   126647,t,0,0,2
5:51.861   126670,),0,0,2
5:52.003   126721,(,0,0,1
5:52.100   126756,N,0,0,0
5:52.158   126777,),0,0,1
5:52.475   126891,(,0,0,2
5:52.533   126912,t,0,0,1
5:52.592   126933,),0,0,2
5:52.642   126951,(,0,0,1
5:52.831   127019,N,0,0,0
5:52.947   127061,),0,0,1
5:53.264   127175,t,0,0,2
5:53.322   127196,),0,0,2
5:53.431   127235,(,0,0,1
5:53.681   127325,N,0,0,0
5:53.714   127337,),0,0,1
5:54.019   127447,t,0,0,2
5:54.083   127470,),0,0,2
5:54.211   127516,(,0,0,1
5:54.322   127556,N,0,0,0
5:54.447   127601,),0,0,1
5:54.761   127714,t,0,0,2
5:54.825   127737,),0,0,2
5:54.833   127740,(,0,0,0
5:54.897   127763,p,0,0,0
5:54.903   127765,),0,0,0
5:54.939   127778,(,0,0,1
5:55.061   127822,N,0,0,0
5:55.139   127850,),0,0,1
5:55.531   127991,(,0,0,0
5:55.558   128001,p,0,0,0
5:55.586   128011,),0,0,0
5:55.708   128055,(,0,0,1
5:55.803   128089,N,0,0,0
5:55.983   128154,),0,0,1
5:56.250   128250,t,0,0,2
5:56.314   128273,),0,0,2
5:56.439   128318,(,0,0,1
5:56.556   128360,N,0,0,0
5:56.600   128376,),0,0,1
5:56.869   128473,(,0,0,2
5:56.942   128499,t,0,0,0
5:56.992   128517,),0,0,2
5:57.039   128534,(,0,0,0
5:57.069   128545,p,0,0,0
5:57.100   128556,),0,0,0
5:57.206   128594,(,0,0,1
5:57.408   128667,N,0,0,0
5:57.594   128734,),0,0,1
5:57.753   128791,t,0,0,2
5:57.822   128816,),0,0,2
5:57.975   128871,(,0,0,1
5:58.064   128903,N,0,0,0
5:58.125   128925,),0,0,1
5:58.386   129019,(,0,0,2
5:58.456   129044,t,0,0,0
5:58.514   129065,),0,0,2
5:58.558   129081,(,0,0,0
5:58.589   129092,p,0,0,0
5:58.617   129102,),0,0,0
5:58.683   129126,(,0,0,1
5:58.825   129177,N,0,0,0
5:58.944   129220,),0,0,1
5:59.272   129338,t,0,0,2
5:59.333   129360,),0,0,2
5:59.444   129400,(,0,0,1
5:59.567   129444,N,0,0,0
5:59.681   129485,),0,0,1
5:59.903   129565,(,0,0,2
5:59.969   129589,t,0,0,5
6:00.039   129614,t,0,0,5
6:00.103   129637,),0,0,2
6:00.111   129640,(,0,0,0
6:00.178   129664,p,0,0,0
6:00.206   129674,),0,0,0
6:00.239   129686,(,0,0,1
6:00.422   129752,N,0,0,0
6:00.425   129753,),0,0,1
6:00.831   129899,(,0,0,0
6:00.858   129909,p,0,0,0
6:00.889   129920,),0,0,0
6:01.008   129963,(,0,0,1
6:01.100   129996,N,0,0,0
6:01.283   130062,),0,0,1
6:01.522   130148,),0,0,2
6:01.547   130157,t,0,0,0
6:01.569   130165,(,0,0,2
6:01.578   130168,(,0,0,0
6:01.608   130179,p,0,0,0
6:01.639   130190,),0,0,0
6:01.711   130216,(,0,0,1
6:01.844   130264,N,0,0,0
6:01.919   130291,),0,0,1
6:02.175   130383,(,0,0,2
6:02.239   130406,t,0,0,0
6:02.292   130425,),0,0,2
6:02.336   130441,(,0,0,0
6:02.364   130451,p,0,0,0
6:02.394   130462,),0,0,0
6:02.478   130492,(,0,0,1
6:02.597   130535,N,0,0,0
6:02.681   130565,),0,0,1
6:02.908   130647,(,0,0,2
6:02.981   130673,t,0,0,5
6:03.044   130696,t,0,0,5
6:03.108   130719,),0,0,2
6:03.117   130722,(,0,0,0
6:03.144   130732,p,0,0,0
6:03.172   130742,),0,0,0
6:03.186   130747,(,0,0,1
6:03.447   130841,N,0,0,0
6:03.597   130895,),0,0,1
6:03.842   130983,(,0,0,2
6:03.875   130995,t,0,0,0
6:03.914   131009,),0,0,2
6:04.011   131044,(,0,0,1
6:04.125   131085,N,0,0,0
6:04.319   131155,),0,0,1
6:04.561   131242,),0,0,2
6:04.583   131250,t,0,0,0
6:04.603   131257,(,0,0,2
6:04.614   131261,(,0,0,0
6:04.642   131271,p,0,0,0
6:04.672   131282,),0,0,0
6:04.744   131308,(,0,0,1
6:04.872   131354,N,0,0,0
6:04.931   131375,),0,0,1
6:05.200   131472,(,0,0,2
6:05.261   131494,t,0,0,0
6:05.317   131514,),0,0,2
6:05.367   131532,(,0,0,0
6:05.394   131542,p,0,0,0
6:05.425   131553,),0,0,0
6:05.514   131585,(,0,0,1
6:05.744   131668,N,0,0,0
6:05.897   131723,),0,0,1
6:06.092   131793,t,0,0,2
6:06.158   131817,),0,0,2
6:06.278   131860,(,0,0,1
6:06.394   131902,N,0,0,0
6:06.547   131957,),0,0,1
6:06.656   131996,(,0,0,2
6:06.717   132018,t,0,0,0
6:06.775   132039,),0,0,2
6:07.622   132344,(,0,0,0
6:07.650   132354,p,0,0,0
6:07.681   132365,),0,0,0
6:07.786   132403,(,0,0,1
6:07.906   132446,N,0,0,0
6:07.986   132475,),0,0,1
6:08.222   132560,(,0,0,2
6:08.286   132583,t,0,0,0
6:08.342   132603,),0,0,2
6:08.383   132618,(,0,0,0
6:08.411   132628,p,0,0,0
6:08.442   132639,),0,0,0
6:08.483   132654,(,0,0,1
6:08.750   132750,N,0,0,0
6:08.856   132788,),0,0,1
6:09.125   132885,(,0,0,2
6:09.158   132897,t,0,0,0
6:09.200   132912,),0,0,2
6:09.883   133158,(,0,0,0
6:09.914   133169,p,0,0,0
6:09.942   133179,),0,0,0
6:10.044   133216,(,0,0,1
6:10.253   133291,N,0,0,0
6:10.289   133304,),0,0,1
6:10.631   133427,(,0,0,2
6:10.664   133439,t,0,0,0
6:10.706   133454,),0,0,2
6:11.378   133696,(,0,0,0
6:11.408   133707,p,0,0,0
6:11.436   133717,),0,0,0
6:11.547   133757,(,0,0,1
6:11.636   133789,N,0,0,0
6:11.822   133856,),0,0,1
6:12.142   133971,(,0,0,2
6:12.175   133983,t,0,0,0
6:12.217   133998,),0,0,2
6:12.350   134046,(,0,0,0
6:12.414   134069,p,0,0,0
6:12.478   134092,),0,0,0
6:12.517   134106,N,0,0,0
6:12.517   134106,(,0,0,1
6:12.653   134155,),0,0,1
6:12.897   134243,(,0,0,2
6:12.933   134256,t,0,0,0
6:12.975   134271,),0,0,2
6:13.053   134299,(,0,0,1
6:13.289   134384,N,0,0,0
6:13.394   134422,),0,0,1
6:13.644   134512,(,0,0,2
6:13.678   134524,t,0,0,0
6:13.717   134538,),0,0,2
6:13.831   134579,(,0,0,0
6:13.908   134607,p,0,0,0
6:13.972   134630,),0,0,0
6:14.036   134653,(,0,0,1
6:14.156   134696,N,0,0,0
6:14.194   134710,),0,0,1
6:14.233   134724,(,0,0,2
6:14.331   134759,t,0,0,1
6:14.419   134791,),0,0,2
6:15.142   135051,(,0,0,0
6:15.172   135062,p,0,0,0
6:15.203   135073,),0,0,0
6:15.278   135100,(,0,0,1
6:15.431   135155,N,0,0,0
6:15.589   135212,),0,0,1
6:15.894   135322,(,0,0,2
6:15.931   135335,t,0,0,0
6:15.969   135349,),0,0,2
6:16.025   135369,(,0,0,1
6:16.289   135464,N,0,0,0
6:16.394   135502,),0,0,1
6:16.653   135595,(,0,0,2
6:16.686   135607,t,0,0,0
6:16.725   135621,),0,0,2
6:16.783   135642,(,0,0,1
6:17.022   135728,N,0,0,0
6:17.139   135770,),0,0,1
6:17.397   135863,(,0,0,2
6:17.431   135875,t,0,0,0
6:17.469   135889,),0,0,2
6:18.356   136208,(,0,0,0
6:18.428   136234,p,0,0,0
6:18.492   136257,),0,0,0
6:18.503   136261,(,0,0,1
6:18.528   136270,N,0,0,0
6:18.625   136305,),0,0,1
6:18.906   136406,(,0,0,2
6:18.942   136419,t,0,0,0
6:18.981   136433,),0,0,2
6:19.053   136459,(,0,0,1
6:19.264   136535,N,0,0,0
6:19.394   136582,),0,0,1
6:19.650   136674,(,0,0,2
6:19.683   136686,t,0,0,0
6:19.722   136700,),0,0,2
6:19.789   136724,(,0,0,1
6:19.994   136798,N,0,0,0
6:20.136   136849,),0,0,1
6:20.411   136948,(,0,0,2
6:20.444   136960,t,0,0,0
6:20.483   136974,),0,0,2
6:20.581   137009,(,0,0,1
6:20.764   137075,N,0,0,0
6:20.939   137138,),0,0,1
6:21.147   137213,(,0,0,2
6:21.181   137225,t,0,0,0
6:21.219   137239,),0,0,2
6:21.408   137307,(,0,0,1
6:21.508   137343,N,0,0,0
6:21.544   137356,),0,0,1
6:21.886   137479,(,0,0,2
6:21.922   137492,t,0,0,0
6:21.958   137505,),0,0,2
6:22.053   137539,(,0,0,1
6:22.256   137612,N,0,0,0
6:22.408   137667,),0,0,1
6:22.661   137758,(,0,0,2
6:22.694   137770,t,0,0,0
6:22.733   137784,),0,0,2
6:22.822   137816,(,0,0,1
6:23.025   137889,N,0,0,0
6:23.144   137932,),0,0,1
6:23.394   138022,(,0,0,2
6:23.428   138034,t,0,0,0
6:23.467   138048,),0,0,2
6:23.528   138070,(,0,0,1
6:23.756   138152,N,0,0,0
6:23.869   138193,),0,0,1
6:24.133   138288,(,0,0,2
6:24.169   138301,t,0,0,0
6:24.211   138316,),0,0,2
6:24.289   138344,(,0,0,1
6:24.525   138429,N,0,0,0
6:24.628   138466,),0,0,1
6:24.900   138564,(,0,0,2
6:24.933   138576,t,0,0,0
6:24.972   138590,),0,0,2
6:27.119   139363,(,0,0,1
6:27.153   139375,N,0,0,0
6:27.178   139384,),0,0,1
6:27.294   139426,(,0,0,2
6:27.383   139458,t,0,0,0
6:27.461   139486,),0,0,2
6:27.725   139581,(,0,0,0
6:27.756   139592,p,0,0,0
6:27.814   139613,),0,0,0
6:27.853   139627,(,0,0,1
6:27.889   139640,N,0,0,0
6:27.917   139650,),0,0,1
6:28.033   139692,(,0,0,2
6:28.125   139725,t,0,0,0
6:28.206   139754,),0,0,2
6:28.436   139837,(,0,0,0
6:28.503   139861,p,0,0,0
6:28.558   139881,),0,0,0
6:28.606   139898,(,0,0,1
6:28.642   139911,N,0,0,0
6:28.669   139921,),0,0,1
6:28.786   139963,(,0,0,2
6:28.867   139992,t,0,0,0
6:28.944   140020,),0,0,2
6:29.186   140107,(,0,0,0
6:29.247   140129,p,0,0,0
6:29.300   140148,),0,0,0
6:29.344   140164,(,0,0,1
6:29.378   140176,N,0,0,0
6:29.406   140186,),0,0,1
6:29.522   140228,(,0,0,2
6:29.608   140259,t,0,0,0
6:29.692   140289,),0,0,2
6:29.925   140373,(,0,0,0
6:29.986   140395,p,0,0,0
6:30.039   140414,),0,0,0
6:30.081   140429,(,0,0,1
6:30.117   140442,N,0,0,0
6:30.175   140463,),0,0,1
6:30.264   140495,(,0,0,2
6:30.353   140527,t,0,0,0
6:30.436   140557,),0,0,2
6:30.689   140648,(,0,0,0
6:30.744   140668,p,0,0,0
6:30.800   140688,),0,0,0
6:30.839   140702,(,0,0,1
6:30.872   140714,N,0,0,0
6:30.900   140724,),0,0,1
6:31.006   140762,(,0,0,2
6:31.097   140795,t,0,0,0
6:31.175   140823,),0,0,2
6:31.275   140859,(,0,0,1
6:31.369   140893,N,0,0,0
6:31.411   140908,),0,0,1
6:31.475   140931,(,0,0,2
6:31.558   140961,t,0,0,1
6:31.653   140995,),0,0,2
6:32.161   141178,(,0,0,0
6:32.222   141200,p,0,0,0
6:32.283   141222,),0,0,0
6:32.317   141234,(,0,0,1
6:32.353   141247,N,0,0,0
6:32.417   141270,),0,0,1
6:32.500   141300,(,0,0,2
6:32.608   141339,t,0,0,0
6:32.694   141370,),0,0,2
6:32.911   141448,(,0,0,0
6:32.972   141470,p,0,0,0
6:33.025   141489,),0,0,0
6:33.069   141505,(,0,0,1
6:33.103   141517,N,0,0,0
6:33.128   141526,),0,0,1
6:33.233   141564,(,0,0,2
6:33.331   141599,t,0,0,0
6:33.411   141628,),0,0,2
6:33.656   141716,(,0,0,0
6:33.717   141738,p,0,0,0
6:33.772   141758,),0,0,0
6:33.814   141773,(,0,0,1
6:33.850   141786,N,0,0,0
6:33.878   141796,),0,0,1
6:33.989   141836,(,0,0,2
6:34.083   141870,t,0,0,0
6:34.164   141899,),0,0,2
6:34.578   142048,(,0,0,1
6:34.614   142061,N,0,0,0
6:34.642   142071,),0,0,1
6:34.761   142114,(,0,0,2
6:34.847   142145,t,0,0,0
6:34.933   142176,),0,0,2
6:35.164   142259,(,0,0,0
6:35.222   142280,p,0,0,0
6:35.281   142301,),0,0,0
6:35.325   142317,(,0,0,1
6:35.358   142329,N,0,0,0
6:35.383   142338,),0,0,1
6:35.492   142377,(,0,0,2
6:35.583   142410,t,0,0,0
6:35.664   142439,),0,0,2
6:35.917   142530,(,0,0,0
6:35.975   142551,p,0,0,0
6:36.028   142570,),0,0,0
6:36.069   142585,(,0,0,1
6:36.106   142598,N,0,0,0
6:36.133   142608,),0,0,1
6:36.247   142649,(,0,0,2
6:36.342   142683,t,0,0,0
6:36.425   142713,),0,0,2
6:36.686   142807,(,0,0,0
6:36.747   142829,p,0,0,0
6:36.808   142851,),0,0,0
6:36.850   142866,(,0,0,1
6:36.886   142879,N,0,0,0
6:36.914   142889,),0,0,1
6:37.028   142930,(,0,0,2
6:37.117   142962,t,0,0,0
6:37.200   142992,),0,0,2
6:37.450   143082,(,0,0,0
6:37.511   143104,p,0,0,0
6:37.564   143123,),0,0,0
6:37.611   143140,(,0,0,1
6:37.644   143152,N,0,0,0
6:37.672   143162,),0,0,1
6:37.781   143201,(,0,0,2
6:37.875   143235,t,0,0,0
6:37.956   143264,),0,0,2
6:38.192   143349,(,0,0,0
6:38.253   143371,p,0,0,0
6:38.306   143390,),0,0,0
6:38.350   143406,(,0,0,1
6:38.386   143419,N,0,0,0
6:38.447   143441,),0,0,1
6:38.528   143470,(,0,0,2
6:38.619   143503,t,0,0,0
6:38.703   143533,),0,0,2
6:38.956   143624,(,0,0,0
6:39.017   143646,p,0,0,0
6:39.069   143665,),0,0,0
6:39.111   143680,(,0,0,1
6:39.147   143693,N,0,0,0
6:39.206   143714,),0,0,1
6:39.294   143746,(,0,0,2
6:39.375   143775,t,0,0,0
6:39.458   143805,),0,0,2
6:39.697   143891,(,0,0,0
6:39.764   143915,p,0,0,0
6:39.817   143934,),0,0,0
6:39.858   143949,(,0,0,1
6:39.897   143963,N,0,0,0
6:39.925   143973,),0,0,1
6:40.036   144013,(,0,0,2
6:40.125   144045,t,0,0,0
6:40.206   144074,),0,0,2
6:40.458   144165,(,0,0,0
6:40.525   144189,p,0,0,0
6:40.578   144208,),0,0,0
6:40.625   144225,(,0,0,1
6:40.661   144238,N,0,0,0
6:40.722   144260,),0,0,1
6:40.803   144289,(,0,0,2
6:40.897   144323,t,0,0,0
6:40.986   144355,),0,0,2
6:41.219   144439,(,0,0,0
6:41.278   144460,p,0,0,0
6:41.336   144481,),0,0,0
6:41.378   144496,(,0,0,1
6:41.411   144508,N,0,0,0
6:41.439   144518,),0,0,1
6:41.539   144554,(,0,0,2
6:41.644   144592,t,0,0,0
6:41.722   144620,),0,0,2
6:41.972   144710,(,0,0,0
6:42.028   144730,p,0,0,0
6:42.078   144748,),0,0,0
6:42.119   144763,(,0,0,1
6:42.156   144776,N,0,0,0
6:42.181   144785,),0,0,1
6:42.281   144821,(,0,0,2
6:42.386   144859,t,0,0,0
6:42.475   144891,),0,0,2
6:42.722   144980,(,0,0,0
6:42.786   145003,p,0,0,0
6:42.844   145024,),0,0,0
6:42.886   145039,(,0,0,1
6:42.922   145052,N,0,0,0
6:42.981   145073,),0,0,1
6:43.056   145100,(,0,0,2
6:43.147   145133,t,0,0,0
6:43.225   145161,),0,0,2
6:43.461   145246,(,0,0,0
6:43.522   145268,p,0,0,0
6:43.575   145287,),0,0,0
6:43.622   145304,(,0,0,1
6:43.658   145317,N,0,0,0
6:43.683   145326,),0,0,1
6:43.800   145368,(,0,0,2
6:43.889   145400,t,0,0,0
6:43.972   145430,),0,0,2
6:44.194   145510,(,0,0,0
6:44.250   145530,p,0,0,0
6:44.306   145550,),0,0,0
6:44.347   145565,(,0,0,1
6:44.383   145578,N,0,0,0
6:44.411   145588,),0,0,1
6:44.525   145629,(,0,0,2
6:44.617   145662,t,0,0,0
6:44.700   145692,),0,0,2
6:44.936   145777,(,0,0,0
6:44.992   145797,p,0,0,0
6:45.050   145818,),0,0,0
6:45.089   145832,(,0,0,1
6:45.125   145845,N,0,0,0
6:45.183   145866,),0,0,1
6:45.261   145894,(,0,0,2
6:45.350   145926,t,0,0,0
6:45.431   145955,),0,0,2
6:45.669   146041,(,0,0,0
6:45.728   146062,p,0,0,0
6:45.783   146082,),0,0,0
6:45.822   146096,(,0,0,1
6:45.858   146109,N,0,0,0
6:45.883   146118,),0,0,1
6:46.003   146161,(,0,0,2
6:46.089   146192,t,0,0,0
6:46.178   146224,),0,0,2
6:46.400   146304,(,0,0,0
6:46.461   146326,p,0,0,0
6:46.519   146347,),0,0,0
6:46.564   146363,(,0,0,1
6:46.603   146377,N,0,0,0
6:46.631   146387,),0,0,1
6:46.747   146429,(,0,0,2
6:46.836   146461,t,0,0,0
6:46.919   146491,),0,0,2
6:47.153   146575,(,0,0,0
6:47.214   146597,p,0,0,0
6:47.264   146615,),0,0,0
6:47.306   146630,(,0,0,1
6:47.344   146644,N,0,0,0
6:47.369   146653,),0,0,1
6:47.489   146696,(,0,0,2
6:47.567   146724,t,0,0,0
6:47.656   146756,),0,0,2
6:47.872   146834,(,0,0,0
6:47.939   146858,p,0,0,0
6:47.994   146878,),0,0,0
6:48.039   146894,(,0,0,1
6:48.075   146907,N,0,0,0
6:48.100   146916,),0,0,1
6:48.208   146955,(,0,0,2
6:48.297   146987,t,0,0,0
6:48.381   147017,),0,0,2
6:48.628   147106,(,0,0,0
6:48.689   147128,p,0,0,0
6:48.744   147148,),0,0,0
6:48.792   147165,(,0,0,1
6:48.828   147178,N,0,0,0
6:48.856   147188,),0,0,1
6:48.972   147230,(,0,0,2
6:49.061   147262,t,0,0,0
6:49.147   147293,),0,0,2
6:49.536   147433,(,0,0,1
6:49.572   147446,N,0,0,0
6:49.600   147456,),0,0,1
6:49.717   147498,(,0,0,2
6:49.803   147529,t,0,0,0
6:49.881   147557,),0,0,2
6:50.258   147693,(,0,0,1
6:50.292   147705,N,0,0,0
6:50.317   147714,),0,0,1
6:50.433   147756,(,0,0,2
6:50.522   147788,t,0,0,0
6:50.606   147818,),0,0,2
6:50.858   147909,(,0,0,0
6:50.919   147931,p,0,0,0
6:50.975   147951,),0,0,0
6:51.019   147967,(,0,0,1
6:51.050   147978,N,0,0,0
6:51.078   147988,),0,0,1
6:51.186   148027,(,0,0,2
6:51.278   148060,t,0,0,0
6:51.364   148091,),0,0,2
6:51.600   148176,(,0,0,0
6:51.653   148195,p,0,0,0
6:51.708   148215,),0,0,0
6:51.750   148230,(,0,0,1
6:51.789   148244,N,0,0,0
6:51.847   148265,),0,0,1
6:51.928   148294,(,0,0,2
6:52.014   148325,t,0,0,0
6:52.100   148356,),0,0,2
6:52.350   148446,(,0,0,0
6:52.406   148466,p,0,0,0
6:52.458   148485,),0,0,0
6:52.503   148501,(,0,0,1
6:52.539   148514,N,0,0,0
6:52.567   148524,),0,0,1
6:52.675   148563,(,0,0,2
6:52.781   148601,t,0,0,0
6:52.867   148632,),0,0,2
6:53.111   148720,(,0,0,0
6:53.178   148744,p,0,0,0
6:53.231   148763,),0,0,0
6:53.272   148778,(,0,0,1
6:53.308   148791,N,0,0,0
6:53.336   148801,),0,0,1
6:53.447   148841,(,0,0,2
6:53.533   148872,t,0,0,0
6:53.625   148905,),0,0,2
6:53.742   148947,(,0,0,1
6:53.831   148979,N,0,0,0
6:53.872   148994,),0,0,1
6:53.944   149020,(,0,0,2
6:54.017   149046,t,0,0,1
6:54.106   149078,),0,0,2
6:54.617   149262,(,0,0,0
6:54.683   149286,p,0,0,0
6:54.739   149306,),0,0,0
6:54.775   149319,(,0,0,1
6:54.814   149333,N,0,0,0
6:54.842   149343,),0,0,1
6:54.964   149387,(,0,0,2
6:55.064   149423,t,0,0,0
6:55.142   149451,),0,0,2
6:55.400   149544,(,0,0,0
6:55.433   149556,p,0,0,0
6:55.492   149577,),0,0,0
6:55.531   149591,(,0,0,1
6:55.567   149604,N,0,0,0
6:55.592   149613,),0,0,1
6:55.706   149654,(,0,0,2
6:55.800   149688,t,0,0,0
6:55.886   149719,),0,0,2
6:56.122   149804,(,0,0,0
6:56.186   149827,p,0,0,0
6:56.239   149846,),0,0,0
6:56.281   149861,(,0,0,1
6:56.314   149873,N,0,0,0
6:56.339   149882,),0,0,1
6:56.442   149919,(,0,0,2
6:56.542   149955,t,0,0,0
6:56.619   149983,),0,0,2
6:56.742   150027,(,0,0,1
6:56.839   150062,N,0,0,0
6:56.875   150075,),0,0,1
6:56.944   150100,(,0,0,2
6:57.022   150128,t,0,0,1
6:57.114   150161,),0,0,2
6:57.758   150393,(,0,0,1
6:57.797   150407,N,0,0,0
6:57.822   150416,),0,0,1
6:57.933   150456,(,0,0,2
6:58.042   150495,t,0,0,0
6:58.122   150524,),0,0,2
6:58.353   150607,(,0,0,0
6:58.417   150630,p,0,0,0
6:58.467   150648,),0,0,0
6:58.517   150666,(,0,0,1
6:58.553   150679,N,0,0,0
6:58.581   150689,),0,0,1
6:58.689   150728,(,0,0,2
6:58.792   150765,t,0,0,0
6:58.878   150796,),0,0,2
6:59.125   150885,(,0,0,0
6:59.175   150903,p,0,0,0
6:59.228   150922,),0,0,0
6:59.269   150937,(,0,0,1
6:59.306   150950,N,0,0,0
6:59.331   150959,),0,0,1
6:59.428   150994,(,0,0,2
6:59.531   151031,t,0,0,0
6:59.606   151058,),0,0,2
6:59.856   151148,(,0,0,0
6:59.917   151170,p,0,0,0
6:59.972   151190,),0,0,0
7:00.011   151204,(,0,0,1
7:00.047   151217,N,0,0,0
7:00.072   151226,),0,0,1
7:00.175   151263,(,0,0,2
7:00.275   151299,t,0,0,0
7:00.356   151328,),0,0,2
7:00.608   151419,(,0,0,0
7:00.672   151442,p,0,0,0
7:00.725   151461,),0,0,0
7:00.775   151479,(,0,0,1
7:00.814   151493,N,0,0,0
7:00.839   151502,),0,0,1
7:00.967   151548,(,0,0,2
7:01.050   151578,t,0,0,0
7:01.133   151608,),0,0,2
7:01.378   151696,(,0,0,0
7:01.436   151717,p,0,0,0
7:01.486   151735,),0,0,0
7:01.536   151753,(,0,0,1
7:01.569   151765,N,0,0,0
7:01.597   151775,),0,0,1
7:01.703   151813,(,0,0,2
7:01.794   151846,t,0,0,0
7:01.872   151874,),0,0,2
7:02.122   151964,(,0,0,0
7:02.183   151986,p,0,0,0
7:02.228   152002,),0,0,0
7:02.272   152018,(,0,0,1
7:02.306   152030,N,0,0,0
7:02.333   152040,),0,0,1
7:02.442   152079,(,0,0,2
7:02.536   152113,t,0,0,0
7:02.619   152143,),0,0,2
7:02.867   152232,(,0,0,0
7:02.931   152255,p,0,0,0
7:02.986   152275,),0,0,0
7:03.031   152291,(,0,0,1
7:03.064   152303,N,0,0,0
7:03.089   152312,),0,0,1
7:03.197   152351,(,0,0,2
7:03.286   152383,t,0,0,0
7:03.375   152415,),0,0,2
7:03.611   152500,(,0,0,0
7:03.667   152520,p,0,0,0
7:03.719   152539,),0,0,0
7:03.767   152556,(,0,0,1
7:03.800   152568,N,0,0,0
7:03.828   152578,),0,0,1
7:03.925   152613,(,0,0,2
7:04.033   152652,t,0,0,0
7:04.111   152680,),0,0,2
7:04.203   152713,(,0,0,1
7:04.297   152747,N,0,0,0
7:04.336   152761,),0,0,1
7:04.372   152774,(,0,0,2
7:04.483   152814,t,0,0,1
7:04.575   152847,),0,0,2
7:05.108   153039,(,0,0,0
7:05.167   153060,p,0,0,0
7:05.225   153081,),0,0,0
7:05.261   153094,(,0,0,1
7:05.294   153106,N,0,0,0
7:05.322   153116,),0,0,1
7:05.439   153158,(,0,0,2
7:05.553   153199,t,0,0,0
7:05.633   153228,),0,0,2
7:06.003   153361,(,0,0,1
7:06.039   153374,N,0,0,0
7:06.064   153383,),0,0,1
7:06.153   153415,(,0,0,2
7:06.258   153453,t,0,0,0
7:06.342   153483,),0,0,2
7:06.581   153569,(,0,0,0
7:06.650   153594,p,0,0,0
7:06.703   153613,),0,0,0
7:06.750   153630,(,0,0,1
7:06.786   153643,N,0,0,0
7:06.811   153652,),0,0,1
7:06.922   153692,(,0,0,2
7:07.022   153728,t,0,0,0
7:07.097   153755,),0,0,2
7:07.189   153788,(,0,0,1
7:07.278   153820,N,0,0,0
7:07.322   153836,),0,0,1
7:07.383   153858,(,0,0,2
7:07.467   153888,t,0,0,1
7:07.558   153921,),0,0,2
7:08.206   154154,(,0,0,1
7:08.236   154165,N,0,0,0
7:08.264   154175,),0,0,1
7:08.372   154214,(,0,0,2
7:08.486   154255,t,0,0,0
7:08.567   154284,),0,0,2
7:08.789   154364,(,0,0,0
7:08.847   154385,p,0,0,0
7:08.906   154406,),0,0,0
7:08.947   154421,(,0,0,1
7:08.978   154432,N,0,0,0
7:09.003   154441,),0,0,1
7:09.103   154477,(,0,0,2
7:09.197   154511,t,0,0,0
7:09.283   154542,),0,0,2
7:09.506   154622,(,0,0,0
7:09.567   154644,p,0,0,0
7:09.625   154665,),0,0,0
7:09.667   154680,(,0,0,1
7:09.700   154692,N,0,0,0
7:09.725   154701,),0,0,1
7:09.833   154740,(,0,0,2
7:09.925   154773,t,0,0,0
7:10.006   154802,),0,0,2
7:10.397   154943,(,0,0,1
7:10.431   154955,N,0,0,0
7:10.456   154964,),0,0,1
7:10.572   155006,(,0,0,2
7:10.667   155040,t,0,0,0
7:10.747   155069,),0,0,2
7:10.992   155157,(,0,0,0
7:11.053   155179,p,0,0,0
7:11.106   155198,),0,0,0
7:11.147   155213,(,0,0,1
7:11.181   155225,N,0,0,0
7:11.208   155235,),0,0,1
7:11.317   155274,(,0,0,2
7:11.403   155305,t,0,0,0
7:11.478   155332,),0,0,2
7:11.725   155421,(,0,0,0
7:11.778   155440,p,0,0,0
7:11.828   155458,),0,0,0
7:11.875   155475,(,0,0,1
7:11.911   155488,N,0,0,0
7:11.936   155497,),0,0,1
7:12.033   155532,(,0,0,2
7:12.139   155570,t,0,0,0
7:12.217   155598,),0,0,2
7:12.472   155690,(,0,0,0
7:12.531   155711,p,0,0,0
7:12.586   155731,),0,0,0
7:12.636   155749,(,0,0,1
7:12.672   155762,N,0,0,0
7:12.700   155772,),0,0,1
7:12.808   155811,(,0,0,2
7:12.911   155848,t,0,0,0
7:12.992   155877,),0,0,2
7:13.250   155970,(,0,0,0
7:13.311   155992,p,0,0,0
7:13.358   156009,),0,0,0
7:13.408   156027,(,0,0,1
7:13.444   156040,N,0,0,0
7:13.472   156050,),0,0,1
7:13.572   156086,(,0,0,2
7:13.681   156125,t,0,0,0
7:13.767   156156,),0,0,2
7:14.014   156245,(,0,0,0
7:14.069   156265,p,0,0,0
7:14.122   156284,),0,0,0
7:14.164   156299,(,0,0,1
7:14.197   156311,N,0,0,0
7:14.222   156320,),0,0,1
7:14.286   156343,(,0,0,2
7:14.419   156391,t,0,0,0
7:14.503   156421,),0,0,2
7:14.631   156467,(,0,0,1
7:14.728   156502,N,0,0,0
7:14.769   156517,),0,0,1
7:14.847   156545,(,0,0,2
7:14.922   156572,t,0,0,1
7:15.019   156607,),0,0,2
7:15.525   156789,(,0,0,0
7:15.572   156806,p,0,0,0
7:15.631   156827,),0,0,0
7:15.669   156841,(,0,0,1
7:15.706   156854,N,0,0,0
7:15.731   156863,),0,0,1
7:15.847   156905,(,0,0,2
7:15.961   156946,t,0,0,0
7:16.042   156975,),0,0,2
7:16.278   157060,(,0,0,0
7:16.308   157071,p,0,0,0
7:16.361   157090,),0,0,0
7:16.408   157107,(,0,0,1
7:16.442   157119,N,0,0,0
7:16.469   157129,),0,0,1
7:16.581   157169,(,0,0,2
7:16.667   157200,t,0,0,0
7:16.753   157231,),0,0,2
7:17.014   157325,(,0,0,0
7:17.069   157345,p,0,0,0
7:17.117   157362,),0,0,0
7:17.136   157369,(,0,0,1
7:17.203   157393,N,0,0,0
7:17.231   157403,),0,0,1
7:17.344   157444,(,0,0,2
7:17.436   157477,t,0,0,0
7:17.511   157504,),0,0,2
7:17.908   157647,(,0,0,1
7:17.944   157660,N,0,0,0
7:17.972   157670,),0,0,1
7:18.081   157709,(,0,0,2
7:18.172   157742,t,0,0,0
7:18.256   157772,),0,0,2
7:18.467   157848,(,0,0,0
7:18.533   157872,p,0,0,0
7:18.583   157890,),0,0,0
7:18.636   157909,(,0,0,1
7:18.669   157921,N,0,0,0
7:18.697   157931,),0,0,1
7:18.808   157971,(,0,0,2
7:18.908   158007,t,0,0,0
7:18.989   158036,),0,0,2
7:19.375   158175,(,0,0,1
7:19.411   158188,N,0,0,0
7:19.439   158198,),0,0,1
7:19.547   158237,(,0,0,2
7:19.639   158270,t,0,0,0
7:19.728   158302,),0,0,2
7:19.956   158384,(,0,0,0
7:20.017   158406,p,0,0,0
7:20.075   158427,),0,0,0
7:20.117   158442,(,0,0,1
7:20.150   158454,N,0,0,0
7:20.178   158464,),0,0,1
7:20.286   158503,(,0,0,2
7:20.367   158532,t,0,0,0
7:20.444   158560,),0,0,2
7:20.681   158645,(,0,0,0
7:20.739   158666,p,0,0,0
7:20.794   158686,),0,0,0
7:20.839   158702,(,0,0,1
7:20.875   158715,N,0,0,0
7:20.903   158725,),0,0,1
7:21.014   158765,(,0,0,2
7:21.100   158796,t,0,0,0
7:21.178   158824,),0,0,2
7:21.406   158906,(,0,0,0
7:21.469   158929,p,0,0,0
7:21.525   158949,),0,0,0
7:21.564   158963,(,0,0,1
7:21.597   158975,N,0,0,0
7:21.622   158984,),0,0,1
7:21.731   159023,(,0,0,2
7:21.822   159056,t,0,0,0
7:21.908   159087,),0,0,2
7:22.297   159227,(,0,0,1
7:22.331   159239,N,0,0,0
7:22.356   159248,),0,0,1
7:22.456   159284,(,0,0,2
7:22.561   159322,t,0,0,0
7:22.658   159357,),0,0,2
7:22.881   159437,(,0,0,0
7:22.942   159459,p,0,0,0
7:23.006   159482,),0,0,0
7:23.047   159497,(,0,0,1
7:23.078   159508,N,0,0,0
7:23.106   159518,),0,0,1
7:23.203   159553,(,0,0,2
7:23.297   159587,t,0,0,0
7:23.381   159617,),0,0,2
7:23.594   159694,(,0,0,0
7:23.661   159718,p,0,0,0
7:23.714   159737,),0,0,0
7:23.758   159753,(,0,0,1
7:23.792   159765,N,0,0,0
7:23.819   159775,),0,0,1
7:23.928   159814,(,0,0,2
7:24.022   159848,t,0,0,0
7:24.106   159878,),0,0,2
7:24.494   160018,(,0,0,1
7:24.531   160031,N,0,0,0
7:24.558   160041,),0,0,1
7:24.711   160096,(,0,0,2
7:24.769   160117,t,0,0,0
7:24.856   160148,),0,0,2
7:25.094   160234,(,0,0,0
7:25.156   160256,p,0,0,0
7:25.214   160277,),0,0,0
7:25.250   160290,(,0,0,1
7:25.286   160303,N,0,0,0
7:25.314   160313,),0,0,1
7:25.425   160353,(,0,0,2
7:25.514   160385,t,0,0,0
7:25.594   160414,),0,0,2
7:25.822   160496,(,0,0,0
7:25.886   160519,p,0,0,0
7:25.942   160539,),0,0,0
7:25.986   160555,(,0,0,1
7:26.022   160568,N,0,0,0
7:26.047   160577,),0,0,1
7:26.150   160614,(,0,0,2
7:26.239   160646,t,0,0,0
7:26.325   160677,),0,0,2
7:26.583   160770,(,0,0,0
7:26.606   160778,p,0,0,0
7:26.661   160798,),0,0,0
7:26.706   160814,(,0,0,1
7:26.742   160827,N,0,0,0
7:26.772   160838,),0,0,1
7:26.881   160877,(,0,0,2
7:26.978   160912,t,0,0,0
7:27.067   160944,),0,0,2
7:27.286   161023,(,0,0,0
7:27.342   161043,p,0,0,0
7:27.403   161065,),0,0,0
7:27.442   161079,(,0,0,1
7:27.478   161092,N,0,0,0
7:27.539   161114,),0,0,1
7:27.617   161142,(,0,0,2
7:27.708   161175,t,0,0,0
7:27.792   161205,),0,0,2
7:28.011   161284,(,0,0,0
7:28.069   161305,p,0,0,0
7:28.125   161325,),0,0,0
7:28.167   161340,(,0,0,1
7:28.200   161352,N,0,0,0
7:28.231   161363,),0,0,1
7:28.344   161404,(,0,0,2
7:28.431   161435,t,0,0,0
7:28.514   161465,),0,0,2
7:28.733   161544,(,0,0,0
7:28.803   161569,p,0,0,0
7:28.858   161589,),0,0,0
7:28.897   161603,(,0,0,1
7:28.936   161617,N,0,0,0
7:28.961   161626,),0,0,1
7:29.081   161669,(,0,0,2
7:29.172   161702,t,0,0,0
7:29.258   161733,),0,0,2
7:29.483   161814,(,0,0,0
7:29.539   161834,p,0,0,0
7:29.597   161855,),0,0,0
7:29.639   161870,(,0,0,1
7:29.672   161882,N,0,0,0
7:29.700   161892,),0,0,1
7:29.811   161932,(,0,0,2
7:29.900   161964,t,0,0,0
7:29.986   161995,),0,0,2
7:30.197   162071,(,0,0,0
7:30.256   162092,p,0,0,0
7:30.314   162113,),0,0,0
7:30.356   162128,(,0,0,1
7:30.389   162140,N,0,0,0
7:30.417   162150,),0,0,1
7:30.519   162187,(,0,0,2
7:30.611   162220,t,0,0,0
7:30.703   162253,),0,0,2
7:30.928   162334,(,0,0,0
7:31.000   162360,p,0,0,0
7:31.056   162380,),0,0,0
7:31.097   162395,(,0,0,1
7:31.133   162408,N,0,0,0
7:31.161   162418,),0,0,1
7:31.272   162458,(,0,0,2
7:31.358   162489,t,0,0,0
7:31.439   162518,),0,0,2
7:31.672   162602,(,0,0,0
7:31.731   162623,p,0,0,0
7:31.789   162644,),0,0,0
7:31.828   162658,(,0,0,1
7:31.864   162671,N,0,0,0
7:31.892   162681,),0,0,1
7:32.014   162725,(,0,0,2
7:32.100   162756,t,0,0,0
7:32.181   162785,),0,0,2
7:32.408   162867,(,0,0,0
7:32.461   162886,p,0,0,0
7:32.514   162905,),0,0,0
7:32.553   162919,(,0,0,1
7:32.589   162932,N,0,0,0
7:32.617   162942,),0,0,1
7:32.719   162979,(,0,0,2
7:32.817   163014,t,0,0,0
7:32.900   163044,),0,0,2
7:33.294   163186,(,0,0,1
7:33.328   163198,N,0,0,0
7:33.353   163207,),0,0,1
7:33.456   163244,(,0,0,2
7:33.556   163280,t,0,0,0
7:33.631   163307,),0,0,2
7:33.869   163393,(,0,0,0
7:33.933   163416,p,0,0,0
7:33.989   163436,),0,0,0
7:34.028   163450,(,0,0,1
7:34.067   163464,N,0,0,0
7:34.094   163474,),0,0,1
7:34.197   163511,(,0,0,2
7:34.294   163546,t,0,0,0
7:34.375   163575,),0,0,2
7:34.619   163663,(,0,0,0
7:34.678   163684,p,0,0,0
7:34.728   163702,),0,0,0
7:34.778   163720,(,0,0,1
7:34.817   163734,N,0,0,0
7:34.844   163744,),0,0,1
7:34.961   163786,(,0,0,2
7:35.053   163819,t,0,0,0
7:35.131   163847,),0,0,2
7:35.372   163934,(,0,0,0
7:35.431   163955,p,0,0,0
7:35.483   163974,),0,0,0
7:35.525   163989,(,0,0,1
7:35.558   164001,N,0,0,0
7:35.586   164011,),0,0,1
7:35.697   164051,(,0,0,2
7:35.786   164083,t,0,0,0
7:35.869   164113,),0,0,2
7:36.108   164199,(,0,0,0
7:36.169   164221,p,0,0,0
7:36.225   164241,),0,0,0
7:36.264   164255,(,0,0,1
7:36.303   164269,N,0,0,0
7:36.328   164278,),0,0,1
7:36.422   164312,(,0,0,2
7:36.525   164349,t,0,0,0
7:36.603   164377,),0,0,2
7:37.019   164527,(,0,0,1
7:37.056   164540,N,0,0,0
7:37.083   164550,),0,0,1
7:37.203   164593,(,0,0,2
7:37.297   164627,t,0,0,0
7:37.386   164659,),0,0,2
7:37.769   164797,(,0,0,1
