Elapsedtime,sample,Type,Sub,Chan,Num
0:00.300,108,(,0,0,0
0:00.350,126,p,0,0,0
0:00.403,145,),0,0,0
0:00.442,159,(,0,0,1
0:00.525,189,N,0,0,0
0:00.561,202,),0,0,1
0:00.683,246,(,0,0,2
0:00.786,283,t,0,0,0
0:00.897,323,),0,0,2
0:01.431,515,(,0,0,0
0:01.483,534,p,0,0,0
0:01.533,552,),0,0,0
0:01.597,575,(,0,0,1
0:01.664,599,N,0,0,0
0:01.697,611,),0,0,1
0:01.828,658,(,0,0,2
0:01.931,695,t,0,0,0
0:02.033,732,),0,0,2
0:02.569,925,(,0,0,0
0:02.617,942,p,0,0,0
0:02.669,961,),0,0,0
0:02.708,975,(,0,0,1
0:02.789,1004,N,0,0,0
0:02.828,1018,),0,0,1
0:02.958,1065,(,0,0,2
0:03.061,1102,t,0,0,0
0:03.161,1138,),0,0,2
0:03.689,1328,(,0,0,0
0:03.736,1345,p,0,0,0
0:03.792,1365,),0,0,0
0:03.839,1382,(,0,0,1
0:03.917,1410,N,0,0,0
0:03.944,1420,),0,0,1
0:04.083,1470,(,0,0,2
0:04.192,1509,t,0,0,0
0:04.297,1547,),0,0,2
0:04.867,1752,(,0,0,0
0:04.917,1770,p,0,0,0
0:04.981,1793,),0,0,0
0:05.006,1802,(,0,0,1
0:05.097,1835,N,0,0,0
0:05.131,1847,),0,0,1
0:05.272,1898,(,0,0,2
0:05.367,1932,t,0,0,0
0:05.464,1967,),0,0,2
0:06.011,2164,(,0,0,0
0:06.064,2183,p,0,0,0
0:06.111,2200,),0,0,0
0:06.144,2212,(,0,0,1
0:06.244,2248,N,0,0,0
0:06.278,2260,),0,0,1
0:06.406,2306,(,0,0,2
0:06.514,2345,t,0,0,0
0:06.622,2384,),0,0,2
0:07.206,2594,(,0,0,0
0:07.258,2613,p,0,0,0
0:07.311,2632,),0,0,0
0:07.344,2644,(,0,0,1
0:07.436,2677,N,0,0,0
0:07.469,2689,),0,0,1
0:07.597,2735,(,0,0,2
0:07.706,2774,t,0,0,0
0:07.808,2811,),0,0,2
0:08.397,3023,(,0,0,0
0:08.444,3040,p,0,0,0
0:08.500,3060,),0,0,0
0:08.542,3075,(,0,0,1
0:08.622,3104,N,0,0,0
0:08.656,3116,),0,0,1
0:08.778,3160,(,0,0,2
0:08.889,3200,t,0,0,0
0:08.997,3239,),0,0,2
0:09.572,3446,(,0,0,0
0:09.622,3464,p,0,0,0
0:09.669,3481,),0,0,0
0:09.708,3495,(,0,0,1
0:09.806,3530,N,0,0,0
0:09.836,3541,),0,0,1
0:09.972,3590,(,0,0,2
0:10.064,3623,t,0,0,0
0:10.175,3663,),0,0,2
0:10.769,3877,(,0,0,0
0:10.814,3893,p,0,0,0
0:10.869,3913,),0,0,0
0:10.908,3927,(,0,0,1
0:10.997,3959,N,0,0,0
0:11.025,3969,),0,0,1
0:11.153,4015,(,0,0,2
0:11.256,4052,t,0,0,0
0:11.353,4087,),0,0,2
0:11.939,4298,(,0,0,0
0:11.986,4315,p,0,0,0
0:12.039,4334,),0,0,0
0:12.100,4356,(,0,0,1
0:12.172,4382,N,0,0,0
0:12.211,4396,),0,0,1
0:12.336,4441,(,0,0,2
0:12.436,4477,t,0,0,0
0:12.533,4512,),0,0,2
0:13.106,4718,(,0,0,0
0:13.153,4735,p,0,0,0
0:13.206,4754,),0,0,0
0:13.242,4767,(,0,0,1
0:13.333,4800,N,0,0,0
0:13.361,4810,),0,0,1
0:13.494,4858,(,0,0,2
0:13.597,4895,t,0,0,0
0:13.703,4933,),0,0,2
0:14.317,5154,(,0,0,0
0:14.364,5171,p,0,0,0
0:14.417,5190,),0,0,0
0:14.478,5212,(,0,0,1
0:14.556,5240,N,0,0,0
0:14.586,5251,),0,0,1
0:14.733,5304,(,0,0,2
0:14.833,5340,t,0,0,0
0:14.939,5378,),0,0,2
0:15.511,5584,(,0,0,0
0:15.561,5602,p,0,0,0
0:15.608,5619,),0,0,0
0:15.669,5641,(,0,0,1
0:15.739,5666,N,0,0,0
0:15.769,5677,),0,0,1
0:15.908,5727,(,0,0,2
0:16.008,5763,t,0,0,0
0:16.114,5801,),0,0,2
0:16.706,6014,(,0,0,0
0:16.756,6032,p,0,0,0
0:16.806,6050,),0,0,0
0:16.844,6064,(,0,0,1
0:16.942,6099,N,0,0,0
0:16.969,6109,),0,0,1
0:17.125,6165,(,0,0,2
0:17.219,6199,t,0,0,0
0:17.333,6240,),0,0,2
0:17.964,6467,(,0,0,0
0:18.011,6484,p,0,0,0
0:18.058,6501,),0,0,0
0:18.108,6519,(,0,0,1
0:18.192,6549,N,0,0,0
0:18.222,6560,),0,0,1
0:18.364,6611,(,0,0,2
0:18.467,6648,t,0,0,0
0:18.575,6687,),0,0,2
0:19.169,6901,(,0,0,0
0:19.217,6918,p,0,0,0
0:19.275,6939,),0,0,0
0:19.311,6952,(,0,0,1
0:19.397,6983,N,0,0,0
0:19.425,6993,),0,0,1
0:19.567,7044,(,0,0,2
0:19.667,7080,t,0,0,0
0:19.772,7118,),0,0,2
0:20.408,7347,(,0,0,0
0:20.461,7366,p,0,0,0
0:20.517,7386,),0,0,0
0:20.544,7396,(,0,0,1
0:20.642,7431,N,0,0,0
0:20.667,7440,),0,0,1
0:20.814,7493,(,0,0,2
0:20.914,7529,t,0,0,0
0:21.011,7564,),0,0,2
0:21.611,7780,(,0,0,0
0:21.667,7800,p,0,0,0
0:21.714,7817,),0,0,0
0:21.772,7838,(,0,0,1
0:21.844,7864,N,0,0,0
0:21.875,7875,),0,0,1
0:22.017,7926,(,0,0,2
0:22.117,7962,t,0,0,0
0:22.222,8000,),0,0,2
0:22.878,8236,(,0,0,0
0:22.936,8257,p,0,0,0
0:23.000,8280,),0,0,0
0:23.017,8286,(,0,0,1
0:23.114,8321,N,0,0,0
0:23.142,8331,),0,0,1
0:23.278,8380,(,0,0,2
0:23.381,8417,t,0,0,0
0:23.475,8451,),0,0,2
0:24.103,8677,(,0,0,0
0:24.158,8697,p,0,0,0
0:24.206,8714,),0,0,0
0:24.244,8728,(,0,0,1
0:24.336,8761,N,0,0,0
0:24.364,8771,),0,0,1
0:24.503,8821,(,0,0,2
0:24.600,8856,t,0,0,0
0:24.700,8892,),0,0,2
0:25.347,9125,(,0,0,0
0:25.397,9143,p,0,0,0
0:25.447,9161,),0,0,0
0:25.481,9173,(,0,0,1
0:25.583,9210,N,0,0,0
0:25.614,9221,),0,0,1
0:25.756,9272,(,0,0,2
0:25.856,9308,t,0,0,0
0:25.958,9345,),0,0,2
0:26.564,9563,(,0,0,0
0:26.622,9584,p,0,0,0
0:26.675,9603,),0,0,0
0:26.717,9618,(,0,0,1
0:26.803,9649,N,0,0,0
0:26.836,9661,),0,0,1
0:26.969,9709,(,0,0,2
0:27.069,9745,t,0,0,0
0:27.164,9779,),0,0,2
0:27.761,9994,(,0,0,0
0:27.811,10012,p,0,0,0
0:27.867,10032,),0,0,0
0:27.914,10049,(,0,0,1
0:28.000,10080,N,0,0,0
0:28.031,10091,),0,0,1
0:28.167,10140,(,0,0,2
0:28.272,10178,t,0,0,0
0:28.375,10215,),0,0,2
0:28.994,10438,(,0,0,0
0:29.036,10453,p,0,0,0
0:29.097,10475,),0,0,0
0:29.147,10493,(,0,0,1
0:29.222,10520,N,0,0,0
0:29.256,10532,),0,0,1
0:29.394,10582,(,0,0,2
0:29.489,10616,t,0,0,0
0:29.606,10658,),0,0,2
0:30.125,10845,(,0,0,0
0:30.175,10863,p,0,0,0
0:30.219,10879,),0,0,0
0:30.281,10901,(,0,0,1
0:30.356,10928,N,0,0,0
0:30.392,10941,),0,0,1
0:30.528,10990,(,0,0,2
0:30.636,11029,t,0,0,0
0:30.747,11069,),0,0,2
0:31.297,11267,(,0,0,0
0:31.342,11283,p,0,0,0
0:31.397,11303,),0,0,0
0:31.417,11310,(,0,0,1
0:31.522,11348,N,0,0,0
0:31.550,11358,),0,0,1
0:31.694,11410,(,0,0,2
0:31.792,11445,t,0,0,0
0:31.894,11482,),0,0,2
0:32.436,11677,(,0,0,0
0:32.489,11696,p,0,0,0
0:32.539,11714,),0,0,0
0:32.581,11729,(,0,0,1
0:32.661,11758,N,0,0,0
0:32.694,11770,),0,0,1
0:32.836,11821,(,0,0,2
0:32.944,11860,t,0,0,0
0:33.044,11896,),0,0,2
0:33.608,12099,(,0,0,0
0:33.653,12115,p,0,0,0
0:33.703,12133,),0,0,0
0:33.750,12150,(,0,0,1
0:33.831,12179,N,0,0,0
0:33.861,12190,),0,0,1
0:34.008,12243,(,0,0,2
0:34.106,12278,t,0,0,0
0:34.211,12316,),0,0,2
0:34.839,12542,(,0,0,0
0:34.892,12561,p,0,0,0
0:34.947,12581,),0,0,0
0:34.983,12594,(,0,0,1
0:35.064,12623,N,0,0,0
0:35.089,12632,),0,0,1
0:35.231,12683,(,0,0,2
0:35.325,12717,t,0,0,0
0:35.428,12754,),0,0,2
0:36.058,12981,(,0,0,0
0:36.111,13000,p,0,0,0
0:36.161,13018,),0,0,0
0:36.217,13038,(,0,0,1
0:36.289,13064,N,0,0,0
0:36.325,13077,),0,0,1
0:36.450,13122,(,0,0,2
0:36.553,13159,t,0,0,0
0:36.656,13196,),0,0,2
0:37.283,13422,(,0,0,0
0:37.328,13438,p,0,0,0
0:37.375,13455,),0,0,0
0:37.442,13479,(,0,0,1
0:37.506,13502,N,0,0,0
0:37.533,13512,),0,0,1
0:37.678,13564,(,0,0,2
0:37.778,13600,t,0,0,0
0:37.886,13639,),0,0,2
0:38.531,13871,(,0,0,0
0:38.575,13887,p,0,0,0
0:38.625,13905,),0,0,0
0:38.683,13926,(,0,0,1
0:38.758,13953,N,0,0,0
0:38.792,13965,),0,0,1
0:38.942,14019,(,0,0,2
0:39.036,14053,t,0,0,0
0:39.131,14087,),0,0,2
0:39.739,14306,(,0,0,0
0:39.783,14322,p,0,0,0
0:39.833,14340,),0,0,0
0:39.886,14359,(,0,0,1
0:39.969,14389,N,0,0,0
0:39.997,14399,),0,0,1
0:40.139,14450,(,0,0,2
0:40.239,14486,t,0,0,0
0:40.347,14525,),0,0,2
0:40.983,14754,(,0,0,0
0:41.042,14775,p,0,0,0
0:41.089,14792,),0,0,0
0:41.125,14805,(,0,0,1
0:41.228,14842,N,0,0,0
0:41.261,14854,),0,0,1
0:41.414,14909,(,0,0,2
0:41.508,14943,t,0,0,0
0:41.617,14982,),0,0,2
0:42.208,15195,(,0,0,0
0:42.250,15210,p,0,0,0
0:42.306,15230,),0,0,0
0:42.356,15248,(,0,0,1
0:42.433,15276,N,0,0,0
0:42.469,15289,),0,0,1
0:42.614,15341,(,0,0,2
0:42.711,15376,t,0,0,0
0:42.814,15413,),0,0,2
0:43.417,15630,(,0,0,0
0:43.467,15648,p,0,0,0
0:43.522,15668,),0,0,0
0:43.556,15680,(,0,0,1
0:43.656,15716,N,0,0,0
0:43.686,15727,),0,0,1
0:43.833,15780,(,0,0,2
0:43.936,15817,t,0,0,0
0:44.042,15855,),0,0,2
0:44.636,16069,(,0,0,0
0:44.681,16085,p,0,0,0
0:44.731,16103,),0,0,0
0:44.789,16124,(,0,0,1
0:44.861,16150,N,0,0,0
0:44.897,16163,),0,0,1
0:45.036,16213,(,0,0,2
0:45.139,16250,t,0,0,0
0:45.239,16286,),0,0,2
0:45.828,16498,(,0,0,0
0:45.872,16514,p,0,0,0
0:45.933,16536,),0,0,0
0:45.958,16545,(,0,0,1
0:46.031,16571,N,0,0,0
0:46.092,16593,),0,0,1
0:46.219,16639,(,0,0,2
0:46.339,16682,t,0,0,0
0:46.439,16718,),0,0,2
0:47.053,16939,(,0,0,0
0:47.106,16958,p,0,0,0
0:47.158,16977,),0,0,0
0:47.189,16988,(,0,0,1
0:47.286,17023,N,0,0,0
0:47.311,17032,),0,0,1
0:47.456,17084,(,0,0,2
0:47.561,17122,t,0,0,0
0:47.658,17157,),0,0,2
0:48.253,17371,(,0,0,0
0:48.300,17388,p,0,0,0
0:48.347,17405,),0,0,0
0:48.397,17423,(,0,0,1
0:48.475,17451,N,0,0,0
0:48.506,17462,),0,0,1
0:48.639,17510,(,0,0,2
0:48.750,17550,t,0,0,0
0:48.847,17585,),0,0,2
0:49.461,17806,(,0,0,0
0:49.511,17824,p,0,0,0
0:49.561,17842,),0,0,0
0:49.625,17865,(,0,0,1
0:49.700,17892,N,0,0,0
0:49.728,17902,),0,0,1
0:49.875,17955,(,0,0,2
0:49.972,17990,t,0,0,0
0:50.078,18028,),0,0,2
0:50.739,18266,(,0,0,0
0:50.778,18280,p,0,0,0
0:50.839,18302,),0,0,0
0:50.861,18310,(,0,0,1
0:50.961,18346,N,0,0,0
0:50.992,18357,),0,0,1
0:51.122,18404,(,0,0,2
0:51.231,18443,t,0,0,0
0:51.322,18476,),0,0,2
0:51.919,18691,(,0,0,0
0:51.972,18710,p,0,0,0
0:52.028,18730,),0,0,0
0:52.086,18751,(,0,0,1
0:52.153,18775,N,0,0,0
0:52.183,18786,),0,0,1
0:52.325,18837,(,0,0,2
0:52.428,18874,t,0,0,0
0:52.531,18911,),0,0,2
0:53.158,19137,(,0,0,0
0:53.219,19159,p,0,0,0
0:53.272,19178,),0,0,0
0:53.328,19198,(,0,0,1
0:53.403,19225,N,0,0,0
0:53.433,19236,),0,0,1
0:53.581,19289,(,0,0,2
0:53.678,19324,t,0,0,0
0:53.775,19359,),0,0,2
0:54.394,19582,(,0,0,0
0:54.444,19600,p,0,0,0
0:54.492,19617,),0,0,0
0:54.531,19631,(,0,0,1
0:54.631,19667,N,0,0,0
0:54.664,19679,),0,0,1
0:54.814,19733,(,0,0,2
0:54.911,19768,t,0,0,0
0:55.019,19807,),0,0,2
0:55.625,20025,(,0,0,0
0:55.672,20042,p,0,0,0
0:55.728,20062,),0,0,0
0:55.786,20083,(,0,0,1
0:55.856,20108,N,0,0,0
0:55.883,20118,),0,0,1
0:56.036,20173,(,0,0,2
0:56.128,20206,t,0,0,0
0:56.231,20243,),0,0,2
0:56.825,20457,(,0,0,0
0:56.875,20475,p,0,0,0
0:56.925,20493,),0,0,0
0:56.961,20506,(,0,0,1
0:57.061,20542,N,0,0,0
0:57.094,20554,),0,0,1
0:57.247,20609,(,0,0,2
0:57.344,20644,t,0,0,0
0:57.453,20683,),0,0,2
0:58.056,20900,(,0,0,0
0:58.103,20917,p,0,0,0
0:58.158,20937,),0,0,0
0:58.197,20951,(,0,0,1
0:58.258,20973,N,0,0,0
0:58.319,20995,),0,0,1
0:58.461,21046,(,0,0,2
0:58.569,21085,t,0,0,0
0:58.669,21121,),0,0,2
0:59.281,21341,(,0,0,0
0:59.317,21354,p,0,0,0
0:59.369,21373,),0,0,0
0:59.397,21383,(,0,0,1
0:59.497,21419,N,0,0,0
0:59.531,21431,),0,0,1
0:59.675,21483,(,0,0,2
0:59.778,21520,t,0,0,0
0:59.886,21559,),0,0,2
1:00.486,21775,(,0,0,0
1:00.531,21791,p,0,0,0
1:00.589,21812,),0,0,0
1:00.631,21827,(,0,0,1
1:00.683,21846,N,0,0,0
1:00.742,21867,),0,0,1
1:00.892,21921,(,0,0,2
1:00.989,21956,t,0,0,0
1:01.094,21994,),0,0,2
1:01.708,22215,(,0,0,0
1:01.750,22230,p,0,0,0
1:01.803,22249,),0,0,0
1:01.833,22260,(,0,0,1
1:01.936,22297,N,0,0,0
1:01.972,22310,),0,0,1
1:02.111,22360,(,0,0,2
1:02.219,22399,t,0,0,0
1:02.328,22438,),0,0,2
1:02.922,22652,(,0,0,0
1:02.972,22670,p,0,0,0
1:03.022,22688,),0,0,0
1:03.064,22703,(,0,0,1
1:03.125,22725,N,0,0,0
1:03.181,22745,),0,0,1
1:03.314,22793,(,0,0,2
1:03.419,22831,t,0,0,0
1:03.531,22871,),0,0,2
1:04.136,23089,(,0,0,0
1:04.186,23107,p,0,0,0
1:04.236,23125,),0,0,0
1:04.269,23137,(,0,0,1
1:04.336,23161,N,0,0,0
1:04.392,23181,),0,0,1
1:04.531,23231,(,0,0,2
1:04.642,23271,t,0,0,0
1:04.742,23307,),0,0,2
1:05.364,23531,(,0,0,0
1:05.414,23549,p,0,0,0
1:05.464,23567,),0,0,0
1:05.528,23590,(,0,0,1
1:05.603,23617,N,0,0,0
1:05.636,23629,),0,0,1
1:05.769,23677,(,0,0,2
1:05.872,23714,t,0,0,0
1:05.975,23751,),0,0,2
1:06.564,23963,(,0,0,0
1:06.614,23981,p,0,0,0
1:06.667,24000,),0,0,0
1:06.731,24023,(,0,0,1
1:06.772,24038,N,0,0,0
1:06.828,24058,),0,0,1
1:06.964,24107,(,0,0,2
1:07.078,24148,t,0,0,0
1:07.175,24183,),0,0,2
1:07.789,24404,(,0,0,0
1:07.831,24419,p,0,0,0
1:07.889,24440,),0,0,0
1:07.936,24457,(,0,0,1
1:08.019,24487,N,0,0,0
1:08.050,24498,),0,0,1
1:08.189,24548,(,0,0,2
1:08.297,24587,t,0,0,0
1:08.400,24624,),0,0,2
1:08.936,24817,(,0,0,0
1:08.989,24836,p,0,0,0
1:09.039,24854,),0,0,0
1:09.100,24876,(,0,0,1
1:09.147,24893,N,0,0,0
1:09.206,24914,),0,0,1
1:09.344,24964,(,0,0,2
1:09.450,25002,t,0,0,0
1:09.561,25042,),0,0,2
1:10.139,25250,(,0,0,0
1:10.183,25266,p,0,0,0
1:10.236,25285,),0,0,0
1:10.300,25308,(,0,0,1
1:10.344,25324,N,0,0,0
1:10.406,25346,),0,0,1
1:10.547,25397,(,0,0,2
1:10.653,25435,t,0,0,0
1:10.761,25474,),0,0,2
1:11.308,25671,(,0,0,0
1:11.358,25689,p,0,0,0
1:11.411,25708,),0,0,0
1:11.467,25728,(,0,0,1
1:11.542,25755,N,0,0,0
1:11.575,25767,),0,0,1
1:11.714,25817,(,0,0,2
1:11.814,25853,t,0,0,0
1:11.922,25892,),0,0,2
1:12.469,26089,(,0,0,0
1:12.517,26106,p,0,0,0
1:12.572,26126,),0,0,0
1:12.633,26148,(,0,0,1
1:12.675,26163,N,0,0,0
1:12.733,26184,),0,0,1
1:12.869,26233,(,0,0,2
1:12.981,26273,t,0,0,0
1:13.089,26312,),0,0,2
1:13.697,26531,(,0,0,0
1:13.739,26546,p,0,0,0
1:13.789,26564,),0,0,0
1:13.839,26582,(,0,0,1
1:13.892,26601,N,0,0,0
1:13.953,26623,),0,0,1
1:14.089,26672,(,0,0,2
1:14.197,26711,t,0,0,0
1:14.306,26750,),0,0,2
1:14.867,26952,(,0,0,0
1:14.919,26971,p,0,0,0
1:14.983,26994,),0,0,0
1:15.006,27002,(,0,0,1
1:15.075,27027,N,0,0,0
1:15.128,27046,),0,0,1
1:15.264,27095,(,0,0,2
1:15.367,27132,t,0,0,0
1:15.469,27169,),0,0,2
1:16.069,27385,(,0,0,0
1:16.119,27403,p,0,0,0
1:16.167,27420,),0,0,0
1:16.236,27445,(,0,0,1
1:16.275,27459,N,0,0,0
1:16.331,27479,),0,0,1
1:16.472,27530,(,0,0,2
1:16.575,27567,t,0,0,0
1:16.686,27607,),0,0,2
1:17.250,27810,(,0,0,0
1:17.303,27829,p,0,0,0
1:17.350,27846,),0,0,0
1:17.406,27866,(,0,0,1
1:17.458,27885,N,0,0,0
1:17.514,27905,),0,0,1
1:17.656,27956,(,0,0,2
1:17.753,27991,t,0,0,0
1:17.867,28032,),0,0,2
1:18.469,28249,(,0,0,0
1:18.525,28269,p,0,0,0
1:18.589,28292,),0,0,0
1:18.608,28299,(,0,0,1
1:18.689,28328,N,0,0,0
1:18.744,28348,),0,0,1
1:18.897,28403,(,0,0,2
1:18.997,28439,t,0,0,0
1:19.103,28477,),0,0,2
1:19.708,28695,(,0,0,0
1:19.750,28710,p,0,0,0
1:19.803,28729,),0,0,0
1:19.842,28743,(,0,0,1
1:19.908,28767,N,0,0,0
1:19.967,28788,),0,0,1
1:20.111,28840,(,0,0,2
1:20.206,28874,t,0,0,0
1:20.317,28914,),0,0,2
1:20.878,29116,(,0,0,0
1:20.925,29133,p,0,0,0
1:20.978,29152,),0,0,0
1:21.042,29175,(,0,0,1
1:21.092,29193,N,0,0,0
1:21.153,29215,),0,0,1
1:21.303,29269,(,0,0,2
1:21.408,29307,t,0,0,0
1:21.522,29348,),0,0,2
1:22.111,29560,(,0,0,0
1:22.167,29580,p,0,0,0
1:22.211,29596,),0,0,0
1:22.272,29618,(,0,0,1
1:22.322,29636,N,0,0,0
1:22.381,29657,),0,0,1
1:22.533,29712,(,0,0,2
1:22.625,29745,t,0,0,0
1:22.736,29785,),0,0,2
1:23.242,29967,(,0,0,0
1:23.297,29987,p,0,0,0
1:23.342,30003,),0,0,0
1:23.403,30025,(,0,0,1
1:23.447,30041,N,0,0,0
1:23.506,30062,),0,0,1
1:23.661,30118,(,0,0,2
1:23.758,30153,t,0,0,0
1:23.867,30192,),0,0,2
1:24.461,30406,(,0,0,0
1:24.503,30421,p,0,0,0
1:24.564,30443,),0,0,0
1:24.608,30459,(,0,0,1
1:24.658,30477,N,0,0,0
1:24.714,30497,),0,0,1
1:24.861,30550,(,0,0,2
1:24.961,30586,t,0,0,0
1:25.061,30622,),0,0,2
1:25.628,30826,(,0,0,0
1:25.678,30844,p,0,0,0
1:25.728,30862,),0,0,0
1:25.775,30879,(,0,0,1
1:25.828,30898,N,0,0,0
1:25.892,30921,),0,0,1
1:26.031,30971,(,0,0,2
1:26.133,31008,t,0,0,0
1:26.247,31049,),0,0,2
1:26.836,31261,(,0,0,0
1:26.886,31279,p,0,0,0
1:26.947,31301,),0,0,0
1:26.975,31311,(,0,0,1
1:27.044,31336,N,0,0,0
1:27.103,31357,),0,0,1
1:27.239,31406,(,0,0,2
1:27.342,31443,t,0,0,0
1:27.442,31479,),0,0,2
1:28.058,31701,(,0,0,0
1:28.111,31720,p,0,0,0
1:28.169,31741,),0,0,0
1:28.211,31756,(,0,0,1
1:28.264,31775,N,0,0,0
1:28.322,31796,),0,0,1
1:28.461,31846,(,0,0,2
1:28.564,31883,t,0,0,0
1:28.667,31920,),0,0,2
1:29.300,32148,(,0,0,0
1:29.344,32164,p,0,0,0
1:29.397,32183,),0,0,0
1:29.442,32199,(,0,0,1
1:29.500,32220,N,0,0,0
1:29.558,32241,),0,0,1
1:29.700,32292,(,0,0,2
1:29.800,32328,t,0,0,0
1:29.906,32366,),0,0,2
1:30.558,32601,(,0,0,0
1:30.603,32617,p,0,0,0
1:30.653,32635,),0,0,0
1:30.708,32655,(,0,0,1
1:30.758,32673,N,0,0,0
1:30.817,32694,),0,0,1
1:30.969,32749,(,0,0,2
1:31.058,32781,t,0,0,0
1:31.161,32818,),0,0,2
1:31.767,33036,(,0,0,0
1:31.806,33050,p,0,0,0
1:31.864,33071,),0,0,0
1:31.914,33089,(,0,0,1
1:31.967,33108,N,0,0,0
1:32.022,33128,),0,0,1
1:32.161,33178,(,0,0,2
1:32.264,33215,t,0,0,0
1:32.372,33254,),0,0,2
1:33.000,33480,(,0,0,0
1:33.047,33497,p,0,0,0
1:33.106,33518,),0,0,0
1:33.167,33540,(,0,0,1
1:33.203,33553,N,0,0,0
1:33.264,33575,),0,0,1
1:33.408,33627,(,0,0,2
1:33.514,33665,t,0,0,0
1:33.622,33704,),0,0,2
1:34.219,33919,(,0,0,0
1:34.272,33938,p,0,0,0
1:34.319,33955,),0,0,0
1:34.378,33976,(,0,0,1
1:34.431,33995,N,0,0,0
1:34.492,34017,),0,0,1
1:34.636,34069,(,0,0,2
1:34.742,34107,t,0,0,0
1:34.839,34142,),0,0,2
1:35.461,34366,(,0,0,0
1:35.514,34385,p,0,0,0
1:35.561,34402,),0,0,0
1:35.611,34420,(,0,0,1
1:35.664,34439,N,0,0,0
1:35.725,34461,),0,0,1
1:35.875,34515,(,0,0,2
1:35.975,34551,t,0,0,0
1:36.072,34586,),0,0,2
1:36.653,34795,(,0,0,0
1:36.708,34815,p,0,0,0
1:36.761,34834,),0,0,0
1:36.814,34853,(,0,0,1
1:36.867,34872,N,0,0,0
1:36.931,34895,),0,0,1
1:37.075,34947,(,0,0,2
1:37.183,34986,t,0,0,0
1:37.281,35021,),0,0,2
1:37.897,35243,(,0,0,0
1:37.956,35264,p,0,0,0
1:38.008,35283,),0,0,0
1:38.047,35297,(,0,0,1
1:38.106,35318,N,0,0,0
1:38.167,35340,),0,0,1
1:38.314,35393,(,0,0,2
1:38.422,35432,t,0,0,0
1:38.519,35467,),0,0,2
1:39.108,35679,(,0,0,0
1:39.150,35694,p,0,0,0
1:39.203,35713,),0,0,0
1:39.250,35730,(,0,0,1
1:39.300,35748,N,0,0,0
1:39.361,35770,),0,0,1
1:39.508,35823,(,0,0,2
1:39.611,35860,t,0,0,0
1:39.711,35896,),0,0,2
1:40.278,36100,(,0,0,0
1:40.333,36120,p,0,0,0
1:40.389,36140,),0,0,0
1:40.417,36150,(,0,0,1
1:40.486,36175,N,0,0,0
1:40.544,36196,),0,0,1
1:40.683,36246,(,0,0,2
1:40.794,36286,t,0,0,0
1:40.900,36324,),0,0,2
1:41.514,36545,(,0,0,0
1:41.561,36562,p,0,0,0
1:41.611,36580,),0,0,0
1:41.653,36595,(,0,0,1
1:41.714,36617,N,0,0,0
1:41.778,36640,),0,0,1
1:41.911,36688,(,0,0,2
1:42.025,36729,t,0,0,0
1:42.131,36767,),0,0,2
1:42.736,36985,(,0,0,0
1:42.783,37002,p,0,0,0
1:42.836,37021,),0,0,0
1:42.883,37038,(,0,0,1
1:42.939,37058,N,0,0,0
1:42.997,37079,),0,0,1
1:43.136,37129,(,0,0,2
1:43.242,37167,t,0,0,0
1:43.344,37204,),0,0,2
1:43.942,37419,(,0,0,0
1:43.997,37439,p,0,0,0
1:44.056,37460,),0,0,0
1:44.086,37471,(,0,0,1
1:44.144,37492,N,0,0,0
1:44.206,37514,),0,0,1
1:44.344,37564,(,0,0,2
1:44.447,37601,t,0,0,0
1:44.553,37639,),0,0,2
1:45.147,37853,(,0,0,0
1:45.208,37875,p,0,0,0
1:45.256,37892,),0,0,0
1:45.317,37914,(,0,0,1
1:45.367,37932,N,0,0,0
1:45.433,37956,),0,0,1
1:45.567,38004,(,0,0,2
1:45.667,38040,t,0,0,0
1:45.772,38078,),0,0,2
1:46.356,38288,(,0,0,0
1:46.411,38308,p,0,0,0
1:46.461,38326,),0,0,0
1:46.517,38346,(,0,0,1
1:46.567,38364,N,0,0,0
1:46.625,38385,),0,0,1
1:46.758,38433,(,0,0,2
1:46.861,38470,t,0,0,0
1:46.964,38507,),0,0,2
1:47.539,38714,(,0,0,0
1:47.594,38734,p,0,0,0
1:47.647,38753,),0,0,0
1:47.686,38767,(,0,0,1
1:47.781,38801,N,0,0,0
1:47.819,38815,),0,0,1
1:47.950,38862,(,0,0,2
1:48.050,38898,t,0,0,0
1:48.153,38935,),0,0,2
1:48.719,39139,(,0,0,0
1:48.767,39156,p,0,0,0
1:48.817,39174,),0,0,0
1:48.856,39188,(,0,0,1
1:48.919,39211,N,0,0,0
1:48.978,39232,),0,0,1
1:49.117,39282,(,0,0,2
1:49.219,39319,t,0,0,0
1:49.325,39357,),0,0,2
1:49.922,39572,(,0,0,0
1:49.975,39591,p,0,0,0
1:50.031,39611,),0,0,0
1:50.086,39631,(,0,0,1
1:50.136,39649,N,0,0,0
1:50.200,39672,),0,0,1
1:50.347,39725,(,0,0,2
1:50.450,39762,t,0,0,0
1:50.553,39799,),0,0,2
1:51.111,40000,(,0,0,0
1:51.164,40019,p,0,0,0
1:51.217,40038,),0,0,0
1:51.256,40052,(,0,0,1
1:51.317,40074,N,0,0,0
1:51.378,40096,),0,0,1
1:51.511,40144,(,0,0,2
1:51.622,40184,t,0,0,0
1:51.725,40221,),0,0,2
1:52.311,40432,(,0,0,0
1:52.361,40450,p,0,0,0
1:52.417,40470,),0,0,0
1:52.478,40492,(,0,0,1
1:52.517,40506,N,0,0,0
1:52.578,40528,),0,0,1
1:52.728,40582,(,0,0,2
1:52.839,40622,t,0,0,0
1:52.939,40658,),0,0,2
1:53.542,40875,(,0,0,0
1:53.581,40889,p,0,0,0
1:53.644,40912,),0,0,0
1:53.694,40930,(,0,0,1
1:53.736,40945,N,0,0,0
1:53.800,40968,),0,0,1
1:53.933,41016,(,0,0,2
1:54.044,41056,t,0,0,0
1:54.153,41095,),0,0,2
1:54.747,41309,(,0,0,0
1:54.789,41324,p,0,0,0
1:54.847,41345,),0,0,0
1:54.889,41360,(,0,0,1
1:54.944,41380,N,0,0,0
1:55.003,41401,),0,0,1
1:55.147,41453,(,0,0,2
1:55.256,41492,t,0,0,0
1:55.358,41529,),0,0,2
1:55.961,41746,(,0,0,0
1:56.011,41764,p,0,0,0
1:56.067,41784,),0,0,0
1:56.092,41793,(,0,0,1
1:56.186,41827,N,0,0,0
1:56.225,41841,),0,0,1
1:56.361,41890,(,0,0,2
1:56.464,41927,t,0,0,0
1:56.575,41967,),0,0,2
1:57.128,42166,(,0,0,0
1:57.178,42184,p,0,0,0
1:57.231,42203,),0,0,0
1:57.292,42225,(,0,0,1
1:57.342,42243,N,0,0,0
1:57.400,42264,),0,0,1
1:57.550,42318,(,0,0,2
1:57.647,42353,t,0,0,0
1:57.753,42391,),0,0,2
1:58.356,42608,(,0,0,0
1:58.403,42625,p,0,0,0
1:58.458,42645,),0,0,0
1:58.525,42669,(,0,0,1
1:58.561,42682,N,0,0,0
1:58.617,42702,),0,0,1
1:58.756,42752,(,0,0,2
1:58.856,42788,t,0,0,0
1:58.961,42826,),0,0,2
1:59.531,43031,(,0,0,0
1:59.583,43050,p,0,0,0
1:59.631,43067,),0,0,0
1:59.692,43089,(,0,0,1
1:59.739,43106,N,0,0,0
1:59.797,43127,),0,0,1
1:59.928,43174,(,0,0,2
2:00.039,43214,t,0,0,0
2:00.144,43252,),0,0,2
2:00.719,43459,(,0,0,0
2:00.767,43476,p,0,0,0
2:00.817,43494,),0,0,0
2:00.861,43510,(,0,0,1
2:00.925,43533,N,0,0,0
2:00.983,43554,),0,0,1
2:01.122,43604,(,0,0,2
2:01.225,43641,t,0,0,0
2:01.336,43681,),0,0,2
2:01.900,43884,(,0,0,0
2:01.942,43899,p,0,0,0
2:02.000,43920,),0,0,0
2:02.031,43931,(,0,0,1
2:02.131,43967,N,0,0,0
2:02.167,43980,),0,0,1
2:02.300,44028,(,0,0,2
2:02.408,44067,t,0,0,0
2:02.517,44106,),0,0,2
2:03.047,44297,(,0,0,0
2:03.103,44317,p,0,0,0
2:03.158,44337,),0,0,0
2:03.194,44350,(,0,0,1
2:03.258,44373,N,0,0,0
2:03.314,44393,),0,0,1
2:03.453,44443,(,0,0,2
2:03.569,44485,t,0,0,0
2:03.675,44523,),0,0,2
2:04.242,44727,(,0,0,0
2:04.289,44744,p,0,0,0
2:04.342,44763,),0,0,0
2:04.397,44783,(,0,0,1
2:04.472,44810,N,0,0,0
2:04.503,44821,),0,0,1
2:04.653,44875,(,0,0,2
2:04.753,44911,t,0,0,0
2:04.856,44948,),0,0,2
2:05.408,45147,(,0,0,0
2:05.453,45163,p,0,0,0
2:05.506,45182,),0,0,0
2:05.531,45191,(,0,0,1
2:05.608,45219,N,0,0,0
2:05.672,45242,),0,0,1
2:05.808,45291,(,0,0,2
2:05.914,45329,t,0,0,0
2:06.031,45371,),0,0,2
2:06.619,45583,(,0,0,0
2:06.664,45599,p,0,0,0
2:06.717,45618,),0,0,0
2:06.764,45635,(,0,0,1
2:06.814,45653,N,0,0,0
2:06.875,45675,),0,0,1
2:07.019,45727,(,0,0,2
2:07.122,45764,t,0,0,0
2:07.225,45801,),0,0,2
2:07.808,46011,(,0,0,0
2:07.853,46027,p,0,0,0
2:07.903,46045,),0,0,0
2:07.933,46056,(,0,0,1
2:08.033,46092,N,0,0,0
2:08.064,46103,),0,0,1
2:08.197,46151,(,0,0,2
2:08.308,46191,t,0,0,0
2:08.406,46226,),0,0,2
2:08.992,46437,(,0,0,0
2:09.050,46458,p,0,0,0
2:09.108,46479,),0,0,0
2:09.133,46488,(,0,0,1
2:09.203,46513,N,0,0,0
2:09.264,46535,),0,0,1
2:09.408,46587,(,0,0,2
2:09.506,46622,t,0,0,0
2:09.606,46658,),0,0,2
2:10.233,46884,(,0,0,0
2:10.286,46903,p,0,0,0
2:10.333,46920,),0,0,0
2:10.369,46933,(,0,0,1
2:10.464,46967,N,0,0,0
2:10.492,46977,),0,0,1
2:10.633,47028,(,0,0,2
2:10.731,47063,t,0,0,0
2:10.833,47100,),0,0,2
2:11.425,47313,(,0,0,0
2:11.478,47332,p,0,0,0
2:11.528,47350,),0,0,0
2:11.567,47364,(,0,0,1
2:11.658,47397,N,0,0,0
2:11.692,47409,),0,0,1
2:11.836,47461,(,0,0,2
2:11.928,47494,t,0,0,0
2:12.031,47531,),0,0,2
2:12.617,47742,(,0,0,0
2:12.669,47761,p,0,0,0
2:12.717,47778,),0,0,0
2:12.767,47796,(,0,0,1
2:12.817,47814,N,0,0,0
2:12.875,47835,),0,0,1
2:13.022,47888,(,0,0,2
2:13.119,47923,t,0,0,0
2:13.225,47961,),0,0,2
2:13.811,48172,(,0,0,0
2:13.867,48192,p,0,0,0
2:13.919,48211,),0,0,0
2:13.969,48229,(,0,0,1
2:14.056,48260,N,0,0,0
2:14.094,48274,),0,0,1
2:14.239,48326,(,0,0,2
2:14.339,48362,t,0,0,0
2:14.442,48399,),0,0,2
2:15.017,48606,(,0,0,0
2:15.061,48622,p,0,0,0
2:15.119,48643,),0,0,0
2:15.164,48659,(,0,0,1
2:15.217,48678,N,0,0,0
2:15.275,48699,),0,0,1
2:15.422,48752,(,0,0,2
2:15.519,48787,t,0,0,0
2:15.625,48825,),0,0,2
2:16.253,49051,(,0,0,0
2:16.289,49064,p,0,0,0
2:16.342,49083,),0,0,0
2:16.400,49104,(,0,0,1
2:16.481,49133,N,0,0,0
2:16.514,49145,),0,0,1
2:16.664,49199,(,0,0,2
2:16.769,49237,t,0,0,0
2:16.881,49277,),0,0,2
2:17.469,49489,(,0,0,0
2:17.511,49504,p,0,0,0
2:17.561,49522,),0,0,0
2:17.631,49547,(,0,0,1
2:17.694,49570,N,0,0,0
2:17.722,49580,),0,0,1
2:17.869,49633,(,0,0,2
2:17.975,49671,t,0,0,0
2:18.086,49711,),0,0,2
2:18.683,49926,(,0,0,0
2:18.722,49940,p,0,0,0
2:18.772,49958,),0,0,0
2:18.836,49981,(,0,0,1
2:18.908,50007,N,0,0,0
2:18.942,50019,),0,0,1
2:19.083,50070,(,0,0,2
2:19.192,50109,t,0,0,0
2:19.300,50148,),0,0,2
2:19.867,50352,(,0,0,0
2:19.919,50371,p,0,0,0
2:19.969,50389,),0,0,0
2:20.006,50402,(,0,0,1
2:20.103,50437,N,0,0,0
2:20.142,50451,),0,0,1
2:20.275,50499,(,0,0,2
2:20.378,50536,t,0,0,0
2:20.478,50572,),0,0,2
2:21.056,50780,(,0,0,0
2:21.100,50796,p,0,0,0
2:21.156,50816,),0,0,0
2:21.203,50833,(,0,0,1
2:21.286,50863,N,0,0,0
2:21.317,50874,),0,0,1
2:21.456,50924,(,0,0,2
2:21.567,50964,t,0,0,0
2:21.672,51002,),0,0,2
2:22.272,51218,(,0,0,0
2:22.322,51236,p,0,0,0
2:22.372,51254,),0,0,0
2:22.428,51274,(,0,0,1
2:22.503,51301,N,0,0,0
2:22.531,51311,),0,0,1
2:22.672,51362,(,0,0,2
2:22.772,51398,t,0,0,0
2:22.869,51433,),0,0,2
2:23.436,51637,(,0,0,0
2:23.483,51654,p,0,0,0
2:23.533,51672,),0,0,0
2:23.569,51685,(,0,0,1
2:23.667,51720,N,0,0,0
2:23.697,51731,),0,0,1
2:23.833,51780,(,0,0,2
2:23.936,51817,t,0,0,0
2:24.056,51860,),0,0,2
2:24.636,52069,(,0,0,0
2:24.683,52086,p,0,0,0
2:24.736,52105,),0,0,0
2:24.772,52118,(,0,0,1
2:24.864,52151,N,0,0,0
2:24.892,52161,),0,0,1
2:25.033,52212,(,0,0,2
2:25.142,52251,t,0,0,0
2:25.242,52287,),0,0,2
2:25.803,52489,(,0,0,0
2:25.858,52509,p,0,0,0
2:25.906,52526,),0,0,0
2:25.967,52548,(,0,0,1
2:26.044,52576,N,0,0,0
2:26.075,52587,),0,0,1
2:26.206,52634,(,0,0,2
2:26.322,52676,t,0,0,0
2:26.425,52713,),0,0,2
2:26.942,52899,(,0,0,0
2:26.994,52918,p,0,0,0
2:27.050,52938,),0,0,0
2:27.103,52957,(,0,0,1
2:27.181,52985,N,0,0,0
2:27.211,52996,),0,0,1
2:27.364,53051,(,0,0,2
2:27.456,53084,t,0,0,0
2:27.561,53122,),0,0,2
2:28.144,53332,(,0,0,0
2:28.192,53349,p,0,0,0
2:28.244,53368,),0,0,0
2:28.303,53389,(,0,0,1
2:28.378,53416,N,0,0,0
2:28.408,53427,),0,0,1
2:28.561,53482,(,0,0,2
2:28.656,53516,t,0,0,0
2:28.764,53555,),0,0,2
2:29.322,53756,(,0,0,0
2:29.369,53773,p,0,0,0
2:29.417,53790,),0,0,0
2:29.469,53809,(,0,0,1
2:29.550,53838,N,0,0,0
2:29.586,53851,),0,0,1
2:29.725,53901,(,0,0,2
2:29.831,53939,t,0,0,0
2:29.936,53977,),0,0,2
2:30.517,54186,(,0,0,0
2:30.558,54201,p,0,0,0
2:30.611,54220,),0,0,0
2:30.672,54242,(,0,0,1
2:30.744,54268,N,0,0,0
2:30.778,54280,),0,0,1
2:30.908,54327,(,0,0,2
2:31.025,54369,t,0,0,0
2:31.125,54405,),0,0,2
2:31.706,54614,(,0,0,0
2:31.753,54631,p,0,0,0
2:31.806,54650,),0,0,0
2:31.867,54672,(,0,0,1
2:31.931,54695,N,0,0,0
2:31.961,54706,),0,0,1
2:32.106,54758,(,0,0,2
2:32.211,54796,t,0,0,0
2:32.314,54833,),0,0,2
2:32.892,55041,(,0,0,0
2:32.944,55060,p,0,0,0
2:32.992,55077,),0,0,0
2:33.039,55094,(,0,0,1
2:33.122,55124,N,0,0,0
2:33.153,55135,),0,0,1
2:33.303,55189,(,0,0,2
2:33.403,55225,t,0,0,0
2:33.506,55262,),0,0,2
2:34.100,55476,(,0,0,0
2:34.150,55494,p,0,0,0
2:34.200,55512,),0,0,0
2:34.244,55528,(,0,0,1
2:34.333,55560,N,0,0,0
2:34.358,55569,),0,0,1
2:34.508,55623,(,0,0,2
2:34.594,55654,t,0,0,0
2:34.697,55691,),0,0,2
2:35.281,55901,(,0,0,0
2:35.333,55920,p,0,0,0
2:35.383,55938,),0,0,0
2:35.442,55959,(,0,0,1
2:35.517,55986,N,0,0,0
2:35.550,55998,),0,0,1
2:35.703,56053,(,0,0,2
2:35.792,56085,t,0,0,0
2:35.900,56124,),0,0,2
2:36.442,56319,(,0,0,0
2:36.500,56340,p,0,0,0
2:36.558,56361,),0,0,0
2:36.578,56368,(,0,0,1
2:36.678,56404,N,0,0,0
2:36.706,56414,),0,0,1
2:36.856,56468,(,0,0,2
2:36.956,56504,t,0,0,0
2:37.056,56540,),0,0,2
2:37.611,56740,(,0,0,0
2:37.667,56760,p,0,0,0
2:37.719,56779,),0,0,0
2:37.772,56798,(,0,0,1
2:37.850,56826,N,0,0,0
2:37.881,56837,),0,0,1
2:38.033,56892,(,0,0,2
2:38.139,56930,t,0,0,0
2:38.242,56967,),0,0,2
2:38.783,57162,(,0,0,0
2:38.831,57179,p,0,0,0
2:38.878,57196,),0,0,0
2:38.936,57217,(,0,0,1
2:39.008,57243,N,0,0,0
2:39.039,57254,),0,0,1
2:39.172,57302,(,0,0,2
2:39.278,57340,t,0,0,0
2:39.397,57383,),0,0,2
2:39.944,57580,(,0,0,0
2:39.989,57596,p,0,0,0
2:40.047,57617,),0,0,0
2:40.078,57628,(,0,0,1
2:40.169,57661,N,0,0,0
2:40.194,57670,),0,0,1
2:40.356,57728,(,0,0,2
2:40.456,57764,t,0,0,0
2:40.567,57804,),0,0,2
2:41.164,58019,(,0,0,0
2:41.211,58036,p,0,0,0
2:41.256,58052,),0,0,0
2:41.311,58072,(,0,0,1
2:41.392,58101,N,0,0,0
2:41.422,58112,),0,0,1
2:41.567,58164,(,0,0,2
2:41.664,58199,t,0,0,0
2:41.772,58238,),0,0,2
2:42.372,58454,(,0,0,0
2:42.419,58471,p,0,0,0
2:42.472,58490,),0,0,0
2:42.514,58505,(,0,0,1
2:42.600,58536,N,0,0,0
2:42.628,58546,),0,0,1
2:42.772,58598,(,0,0,2
2:42.872,58634,t,0,0,0
2:42.978,58672,),0,0,2
2:43.664,58919,(,0,0,0
2:43.711,58936,p,0,0,0
2:43.758,58953,),0,0,0
2:43.811,58972,(,0,0,1
2:43.889,59000,N,0,0,0
2:43.917,59010,),0,0,1
2:44.069,59065,(,0,0,2
2:44.161,59098,t,0,0,0
2:44.267,59136,),0,0,2
2:44.892,59361,(,0,0,0
2:44.933,59376,p,0,0,0
2:44.983,59394,),0,0,0
2:45.042,59415,(,0,0,1
2:45.119,59443,N,0,0,0
2:45.153,59455,),0,0,1
2:45.292,59505,(,0,0,2
2:45.397,59543,t,0,0,0
2:45.506,59582,),0,0,2
2:46.150,59814,(,0,0,0
2:46.194,59830,p,0,0,0
2:46.256,59852,),0,0,0
2:46.281,59861,(,0,0,1
2:46.378,59896,N,0,0,0
2:46.406,59906,),0,0,1
2:46.547,59957,(,0,0,2
2:46.656,59996,t,0,0,0
2:46.758,60033,),0,0,2
2:47.375,60255,(,0,0,0
2:47.425,60273,p,0,0,0
2:47.475,60291,),0,0,0
2:47.544,60316,(,0,0,1
2:47.608,60339,N,0,0,0
2:47.647,60353,),0,0,1
2:47.781,60401,(,0,0,2
2:47.883,60438,t,0,0,0
2:47.981,60473,),0,0,2
2:48.608,60699,(,0,0,0
2:48.664,60719,p,0,0,0
2:48.719,60739,),0,0,0
2:48.750,60750,(,0,0,1
2:48.850,60786,N,0,0,0
2:48.881,60797,),0,0,1
2:49.031,60851,(,0,0,2
2:49.131,60887,t,0,0,0
2:49.231,60923,),0,0,2
2:49.858,61149,(,0,0,0
2:49.922,61172,p,0,0,0
2:49.972,61190,),0,0,0
2:50.014,61205,(,0,0,1
2:50.106,61238,N,0,0,0
2:50.136,61249,),0,0,1
2:50.292,61305,(,0,0,2
2:50.383,61338,t,0,0,0
2:50.481,61373,),0,0,2
2:51.100,61596,(,0,0,0
2:51.144,61612,p,0,0,0
2:51.194,61630,),0,0,0
2:51.247,61649,(,0,0,1
2:51.331,61679,N,0,0,0
2:51.361,61690,),0,0,1
2:51.511,61744,(,0,0,2
2:51.614,61781,t,0,0,0
2:51.717,61818,),0,0,2
2:52.353,62047,(,0,0,0
2:52.403,62065,p,0,0,0
2:52.450,62082,),0,0,0
2:52.486,62095,(,0,0,1
2:52.589,62132,N,0,0,0
2:52.619,62143,),0,0,1
2:52.775,62199,(,0,0,2
2:52.867,62232,t,0,0,0
2:52.972,62270,),0,0,2
2:53.558,62481,(,0,0,0
2:53.608,62499,p,0,0,0
2:53.658,62517,),0,0,0
2:53.717,62538,(,0,0,1
2:53.792,62565,N,0,0,0
2:53.825,62577,),0,0,1
2:53.981,62633,(,0,0,2
2:54.081,62669,t,0,0,0
2:54.194,62710,),0,0,2
2:54.800,62928,(,0,0,0
2:54.847,62945,p,0,0,0
2:54.903,62965,),0,0,0
2:54.953,62983,(,0,0,1
2:55.033,63012,N,0,0,0
2:55.061,63022,),0,0,1
2:55.211,63076,(,0,0,2
2:55.308,63111,t,0,0,0
2:55.411,63148,),0,0,2
2:55.986,63355,(,0,0,0
2:56.033,63372,p,0,0,0
2:56.086,63391,),0,0,0
2:56.117,63402,(,0,0,1
2:56.206,63434,N,0,0,0
2:56.239,63446,),0,0,1
2:56.392,63501,(,0,0,2
2:56.494,63538,t,0,0,0
2:56.600,63576,),0,0,2
2:57.181,63785,(,0,0,0
2:57.231,63803,p,0,0,0
2:57.286,63823,),0,0,0
2:57.322,63836,(,0,0,1
2:57.414,63869,N,0,0,0
2:57.439,63878,),0,0,1
2:57.586,63931,(,0,0,2
2:57.689,63968,t,0,0,0
2:57.794,64006,),0,0,2
2:58.383,64218,(,0,0,0
2:58.436,64237,p,0,0,0
2:58.483,64254,),0,0,0
2:58.544,64276,(,0,0,1
2:58.608,64299,N,0,0,0
2:58.636,64309,),0,0,1
2:58.781,64361,(,0,0,2
2:58.878,64396,t,0,0,0
2:58.986,64435,),0,0,2
2:59.542,64635,(,0,0,0
2:59.586,64651,p,0,0,0
2:59.633,64668,),0,0,0
2:59.686,64687,(,0,0,1
2:59.767,64716,N,0,0,0
2:59.797,64727,),0,0,1
2:59.933,64776,(,0,0,2
3:00.039,64814,t,0,0,0
3:00.150,64854,),0,0,2
3:00.717,65058,(,0,0,0
3:00.756,65072,p,0,0,0
3:00.808,65091,),0,0,0
3:00.856,65108,(,0,0,1
3:00.939,65138,N,0,0,0
3:00.969,65149,),0,0,1
3:01.119,65203,(,0,0,2
3:01.219,65239,t,0,0,0
3:01.322,65276,),0,0,2
3:01.894,65482,(,0,0,0
3:01.936,65497,p,0,0,0
3:01.983,65514,),0,0,0
3:02.050,65538,(,0,0,1
3:02.122,65564,N,0,0,0
3:02.156,65576,),0,0,1
3:02.292,65625,(,0,0,2
3:02.403,65665,t,0,0,0
3:02.511,65704,),0,0,2
3:03.039,65894,(,0,0,0
3:03.089,65912,p,0,0,0
3:03.147,65933,),0,0,0
3:03.189,65948,(,0,0,1
3:03.267,65976,N,0,0,0
3:03.297,65987,),0,0,1
3:03.444,66040,(,0,0,2
3:03.550,66078,t,0,0,0
3:03.650,66114,),0,0,2
3:04.206,66314,(,0,0,0
3:04.250,66330,p,0,0,0
3:04.311,66352,),0,0,0
3:04.358,66369,(,0,0,1
3:04.439,66398,N,0,0,0
3:04.472,66410,),0,0,1
3:04.617,66462,(,0,0,2
3:04.731,66503,t,0,0,0
3:04.839,66542,),0,0,2
3:05.378,66736,(,0,0,0
3:05.428,66754,p,0,0,0
3:05.478,66772,),0,0,0
3:05.525,66789,(,0,0,1
3:05.611,66820,N,0,0,0
3:05.639,66830,),0,0,1
3:05.781,66881,(,0,0,2
3:05.889,66920,t,0,0,0
3:05.997,66959,),0,0,2
3:06.578,67168,(,0,0,0
3:06.622,67184,p,0,0,0
3:06.681,67205,),0,0,0
3:06.725,67221,(,0,0,1
3:06.806,67250,N,0,0,0
3:06.833,67260,),0,0,1
3:06.978,67312,(,0,0,2
3:07.086,67351,t,0,0,0
3:07.183,67386,),0,0,2
3:07.747,67589,(,0,0,0
3:07.786,67603,p,0,0,0
3:07.839,67622,),0,0,0
3:07.889,67640,(,0,0,1
3:07.964,67667,N,0,0,0
3:07.997,67679,),0,0,1
3:08.136,67729,(,0,0,2
3:08.242,67767,t,0,0,0
3:08.344,67804,),0,0,2
3:08.906,68006,(,0,0,0
3:08.961,68026,p,0,0,0
3:09.011,68044,),0,0,0
3:09.056,68060,(,0,0,1
3:09.147,68093,N,0,0,0
3:09.175,68103,),0,0,1
3:09.325,68157,(,0,0,2
3:09.428,68194,t,0,0,0
3:09.525,68229,),0,0,2
3:10.117,68442,(,0,0,0
3:10.167,68460,p,0,0,0
3:10.219,68479,),0,0,0
3:10.283,68502,(,0,0,1
3:10.350,68526,N,0,0,0
3:10.381,68537,),0,0,1
3:10.511,68584,(,0,0,2
3:10.625,68625,t,0,0,0
3:10.731,68663,),0,0,2
3:11.258,68853,(,0,0,0
3:11.308,68871,p,0,0,0
3:11.358,68889,),0,0,0
3:11.422,68912,(,0,0,1
3:11.492,68937,N,0,0,0
3:11.519,68947,),0,0,1
3:11.664,68999,(,0,0,2
3:11.767,69036,t,0,0,0
3:11.869,69073,),0,0,2
3:12.439,69278,(,0,0,0
3:12.497,69299,p,0,0,0
3:12.547,69317,),0,0,0
3:12.617,69342,(,0,0,1
3:12.683,69366,N,0,0,0
3:12.711,69376,),0,0,1
3:12.864,69431,(,0,0,2
3:12.961,69466,t,0,0,0
3:13.061,69502,),0,0,2
3:13.631,69707,(,0,0,0
3:13.678,69724,p,0,0,0
3:13.733,69744,),0,0,0
3:13.792,69765,(,0,0,1
3:13.867,69792,N,0,0,0
3:13.903,69805,),0,0,1
3:14.039,69854,(,0,0,2
3:14.142,69891,t,0,0,0
3:14.258,69933,),0,0,2
3:14.817,70134,(,0,0,0
3:14.864,70151,p,0,0,0
3:14.917,70170,),0,0,0
3:14.961,70186,(,0,0,1
3:15.047,70217,N,0,0,0
3:15.078,70228,),0,0,1
3:15.222,70280,(,0,0,2
3:15.333,70320,t,0,0,0
3:15.428,70354,),0,0,2
3:16.036,70573,(,0,0,0
3:16.083,70590,p,0,0,0
3:16.131,70607,),0,0,0
3:16.192,70629,(,0,0,1
3:16.267,70656,N,0,0,0
3:16.300,70668,),0,0,1
3:16.433,70716,(,0,0,2
3:16.542,70755,t,0,0,0
3:16.647,70793,),0,0,2
3:17.192,70989,(,0,0,0
3:17.239,71006,p,0,0,0
3:17.292,71025,),0,0,0
3:17.356,71048,(,0,0,1
3:17.425,71073,N,0,0,0
3:17.453,71083,),0,0,1
3:17.597,71135,(,0,0,2
3:17.703,71173,t,0,0,0
3:17.819,71215,),0,0,2
3:18.417,71430,(,0,0,0
3:18.453,71443,p,0,0,0
3:18.506,71462,),0,0,0
3:18.558,71481,(,0,0,1
3:18.636,71509,N,0,0,0
3:18.664,71519,),0,0,1
3:18.819,71575,(,0,0,2
3:18.911,71608,t,0,0,0
3:19.025,71649,),0,0,2
3:19.564,71843,(,0,0,0
3:19.614,71861,p,0,0,0
3:19.658,71877,),0,0,0
3:19.722,71900,(,0,0,1
3:19.792,71925,N,0,0,0
3:19.822,71936,),0,0,1
3:19.961,71986,(,0,0,2
3:20.064,72023,t,0,0,0
3:20.169,72061,),0,0,2
3:20.769,72277,(,0,0,0
3:20.814,72293,p,0,0,0
3:20.878,72316,),0,0,0
3:20.900,72324,(,0,0,1
3:21.000,72360,N,0,0,0
3:21.031,72371,),0,0,1
3:21.172,72422,(,0,0,2
3:21.275,72459,t,0,0,0
3:21.381,72497,),0,0,2
3:21.975,72711,(,0,0,0
3:22.017,72726,p,0,0,0
3:22.069,72745,),0,0,0
3:22.100,72756,(,0,0,1
3:22.194,72790,N,0,0,0
3:22.228,72802,),0,0,1
3:22.361,72850,(,0,0,2
3:22.464,72887,t,0,0,0
3:22.561,72922,),0,0,2
3:23.142,73131,(,0,0,0
3:23.189,73148,p,0,0,0
3:23.253,73171,),0,0,0
3:23.294,73186,(,0,0,1
3:23.375,73215,N,0,0,0
3:23.406,73226,),0,0,1
3:23.556,73280,(,0,0,2
3:23.656,73316,t,0,0,0
3:23.756,73352,),0,0,2
3:24.361,73570,(,0,0,0
3:24.411,73588,p,0,0,0
3:24.458,73605,),0,0,0
3:24.522,73628,(,0,0,1
3:24.589,73652,N,0,0,0
3:24.617,73662,),0,0,1
3:24.758,73713,(,0,0,2
3:24.867,73752,t,0,0,0
3:24.967,73788,),0,0,2
3:25.533,73992,(,0,0,0
3:25.594,74014,p,0,0,0
3:25.639,74030,),0,0,0
3:25.700,74052,(,0,0,1
3:25.778,74080,N,0,0,0
3:25.811,74092,),0,0,1
3:25.953,74143,(,0,0,2
3:26.067,74184,t,0,0,0
3:26.169,74221,),0,0,2
3:26.761,74434,(,0,0,0
3:26.806,74450,p,0,0,0
3:26.864,74471,),0,0,0
3:26.894,74482,(,0,0,1
3:26.989,74516,N,0,0,0
3:27.017,74526,),0,0,1
3:27.158,74577,(,0,0,2
3:27.267,74616,t,0,0,0
3:27.369,74653,),0,0,2
3:27.969,74869,(,0,0,0
3:28.011,74884,p,0,0,0
3:28.069,74905,),0,0,0
3:28.097,74915,(,0,0,1
3:28.197,74951,N,0,0,0
3:28.231,74963,),0,0,1
3:28.369,75013,(,0,0,2
3:28.486,75055,t,0,0,0
3:28.589,75092,),0,0,2
3:29.153,75295,(,0,0,0
3:29.194,75310,p,0,0,0
3:29.244,75328,),0,0,0
3:29.300,75348,(,0,0,1
3:29.381,75377,N,0,0,0
3:29.411,75388,),0,0,1
3:29.553,75439,(,0,0,2
3:29.658,75477,t,0,0,0
3:29.767,75516,),0,0,2
3:30.325,75717,(,0,0,0
3:30.381,75737,p,0,0,0
3:30.433,75756,),0,0,0
3:30.469,75769,(,0,0,1
3:30.558,75801,N,0,0,0
3:30.586,75811,),0,0,1
3:30.733,75864,(,0,0,2
3:30.839,75902,t,0,0,0
3:30.942,75939,),0,0,2
3:31.492,76137,(,0,0,0
3:31.536,76153,p,0,0,0
3:31.592,76173,),0,0,0
3:31.633,76188,(,0,0,1
3:31.714,76217,N,0,0,0
3:31.747,76229,),0,0,1
3:31.886,76279,(,0,0,2
3:31.989,76316,t,0,0,0
3:32.092,76353,),0,0,2
3:32.650,76554,(,0,0,0
3:32.692,76569,p,0,0,0
3:32.753,76591,),0,0,0
3:32.800,76608,(,0,0,1
3:32.875,76635,N,0,0,0
3:32.906,76646,),0,0,1
3:33.056,76700,(,0,0,2
3:33.156,76736,t,0,0,0
3:33.264,76775,),0,0,2
3:33.842,76983,(,0,0,0
3:33.889,77000,p,0,0,0
3:33.939,77018,),0,0,0
3:34.000,77040,(,0,0,1
3:34.072,77066,N,0,0,0
3:34.106,77078,),0,0,1
3:34.256,77132,(,0,0,2
3:34.350,77166,t,0,0,0
3:34.447,77201,),0,0,2
3:34.986,77395,(,0,0,0
3:35.031,77411,p,0,0,0
3:35.083,77430,),0,0,0
3:35.133,77448,(,0,0,1
3:35.208,77475,N,0,0,0
3:35.242,77487,),0,0,1
3:35.389,77540,(,0,0,2
3:35.486,77575,t,0,0,0
3:35.597,77615,),0,0,2
3:36.144,77812,(,0,0,0
3:36.194,77830,p,0,0,0
3:36.244,77848,),0,0,0
3:36.303,77869,(,0,0,1
3:36.383,77898,N,0,0,0
3:36.411,77908,),0,0,1
3:36.553,77959,(,0,0,2
3:36.664,77999,t,0,0,0
3:36.769,78037,),0,0,2
3:37.311,78232,(,0,0,0
3:37.361,78250,p,0,0,0
3:37.419,78271,),0,0,0
3:37.478,78292,(,0,0,1
3:37.547,78317,N,0,0,0
3:37.583,78330,),0,0,1
3:37.728,78382,(,0,0,2
3:37.828,78418,t,0,0,0
3:37.931,78455,),0,0,2
3:38.453,78643,(,0,0,0
3:38.497,78659,p,0,0,0
3:38.547,78677,),0,0,0
3:38.597,78695,(,0,0,1
3:38.683,78726,N,0,0,0
3:38.714,78737,),0,0,1
3:38.861,78790,(,0,0,2
3:38.961,78826,t,0,0,0
3:39.069,78865,),0,0,2
3:39.608,79059,(,0,0,0
3:39.658,79077,p,0,0,0
3:39.708,79095,),0,0,0
3:39.772,79118,(,0,0,1
3:39.842,79143,N,0,0,0
3:39.875,79155,),0,0,1
3:40.019,79207,(,0,0,2
3:40.122,79244,t,0,0,0
3:40.222,79280,),0,0,2
3:40.742,79467,(,0,0,0
3:40.792,79485,p,0,0,0
3:40.839,79502,),0,0,0
3:40.900,79524,(,0,0,1
3:40.978,79552,N,0,0,0
3:41.008,79563,),0,0,1
3:41.142,79611,(,0,0,2
3:41.250,79650,t,0,0,0
3:41.364,79691,),0,0,2
3:41.903,79885,(,0,0,0
3:41.956,79904,p,0,0,0
3:42.006,79922,),0,0,0
3:42.067,79944,(,0,0,1
3:42.133,79968,N,0,0,0
3:42.164,79979,),0,0,1
3:42.308,80031,(,0,0,2
3:42.414,80069,t,0,0,0
3:42.514,80105,),0,0,2
3:43.058,80301,(,0,0,0
3:43.097,80315,p,0,0,0
3:43.147,80333,),0,0,0
3:43.228,80362,(,0,0,1
3:43.275,80379,N,0,0,0
3:43.311,80392,),0,0,1
3:43.442,80439,(,0,0,2
3:43.550,80478,t,0,0,0
3:43.661,80518,),0,0,2
3:44.194,80710,(,0,0,0
3:44.242,80727,p,0,0,0
3:44.294,80746,),0,0,0
3:44.364,80771,(,0,0,1
3:44.431,80795,N,0,0,0
3:44.458,80805,),0,0,1
3:44.611,80860,(,0,0,2
3:44.711,80896,t,0,0,0
3:44.811,80932,),0,0,2
3:45.394,81142,(,0,0,0
3:45.439,81158,p,0,0,0
3:45.500,81180,),0,0,0
3:45.569,81205,(,0,0,1
3:45.622,81224,N,0,0,0
3:45.658,81237,),0,0,1
3:45.800,81288,(,0,0,2
3:45.897,81323,t,0,0,0
3:46.003,81361,),0,0,2
3:46.539,81554,(,0,0,0
3:46.594,81574,p,0,0,0
3:46.656,81596,),0,0,0
3:46.703,81613,(,0,0,1
3:46.783,81642,N,0,0,0
3:46.814,81653,),0,0,1
3:46.958,81705,(,0,0,2
3:47.067,81744,t,0,0,0
3:47.169,81781,),0,0,2
3:47.744,81988,(,0,0,0
3:47.792,82005,p,0,0,0
3:47.847,82025,),0,0,0
3:47.925,82053,(,0,0,1
3:47.975,82071,N,0,0,0
3:48.011,82084,),0,0,1
3:48.142,82131,(,0,0,2
3:48.253,82171,t,0,0,0
3:48.358,82209,),0,0,2
3:48.925,82413,(,0,0,0
3:48.964,82427,p,0,0,0
3:49.008,82443,),0,0,0
3:49.097,82475,(,0,0,1
3:49.147,82493,N,0,0,0
3:49.186,82507,),0,0,1
3:49.328,82558,(,0,0,2
3:49.433,82596,t,0,0,0
3:49.536,82633,),0,0,2
3:50.125,82845,(,0,0,0
3:50.169,82861,p,0,0,0
3:50.219,82879,),0,0,0
3:50.303,82909,(,0,0,1
3:50.353,82927,N,0,0,0
3:50.383,82938,),0,0,1
3:50.533,82992,(,0,0,2
3:50.631,83027,t,0,0,0
3:50.736,83065,),0,0,2
3:51.294,83266,(,0,0,0
3:51.347,83285,p,0,0,0
3:51.392,83301,),0,0,0
3:51.472,83330,(,0,0,1
3:51.522,83348,N,0,0,0
3:51.558,83361,),0,0,1
3:51.708,83415,(,0,0,2
3:51.806,83450,t,0,0,0
3:51.911,83488,),0,0,2
3:52.475,83691,(,0,0,0
3:52.528,83710,p,0,0,0
3:52.581,83729,),0,0,0
3:52.658,83757,(,0,0,1
3:52.711,83776,N,0,0,0
3:52.744,83788,),0,0,1
3:52.889,83840,(,0,0,2
3:52.989,83876,t,0,0,0
3:53.092,83913,),0,0,2
3:53.669,84121,(,0,0,0
3:53.722,84140,p,0,0,0
3:53.772,84158,),0,0,0
3:53.847,84185,(,0,0,1
3:53.897,84203,N,0,0,0
3:53.931,84215,),0,0,1
3:54.067,84264,(,0,0,2
3:54.172,84302,t,0,0,0
3:54.275,84339,),0,0,2
3:54.836,84541,(,0,0,0
3:54.886,84559,p,0,0,0
3:54.942,84579,),0,0,0
3:55.019,84607,(,0,0,1
3:55.069,84625,N,0,0,0
3:55.100,84636,),0,0,1
3:55.239,84686,(,0,0,2
3:55.344,84724,t,0,0,0
3:55.442,84759,),0,0,2
3:56.003,84961,(,0,0,0
3:56.044,84976,p,0,0,0
3:56.100,84996,),0,0,0
3:56.178,85024,(,0,0,1
3:56.228,85042,N,0,0,0
3:56.261,85054,),0,0,1
3:56.403,85105,(,0,0,2
3:56.506,85142,t,0,0,0
3:56.606,85178,),0,0,2
3:57.169,85381,(,0,0,0
3:57.214,85397,p,0,0,0
3:57.269,85417,),0,0,0
3:57.353,85447,(,0,0,1
3:57.406,85466,N,0,0,0
3:57.442,85479,),0,0,1
3:57.578,85528,(,0,0,2
3:57.689,85568,t,0,0,0
3:57.792,85605,),0,0,2
3:58.328,85798,(,0,0,0
3:58.369,85813,p,0,0,0
3:58.428,85834,),0,0,0
3:58.503,85861,(,0,0,1
3:58.556,85880,N,0,0,0
3:58.589,85892,),0,0,1
3:58.722,85940,(,0,0,2
3:58.831,85979,t,0,0,0
3:58.936,86017,),0,0,2
3:59.500,86220,(,0,0,0
3:59.544,86236,p,0,0,0
3:59.600,86256,),0,0,0
3:59.681,86285,(,0,0,1
3:59.731,86303,N,0,0,0
3:59.764,86315,),0,0,1
3:59.911,86368,(,0,0,2
4:00.019,86407,t,0,0,0
4:00.119,86443,),0,0,2
4:00.675,86643,(,0,0,0
4:00.717,86658,p,0,0,0
4:00.769,86677,),0,0,0
4:00.844,86704,(,0,0,1
4:00.897,86723,N,0,0,0
4:00.931,86735,),0,0,1
4:01.075,86787,(,0,0,2
4:01.175,86823,t,0,0,0
4:01.278,86860,),0,0,2
4:01.875,87075,(,0,0,0
4:01.922,87092,p,0,0,0
4:01.969,87109,),0,0,0
4:02.047,87137,(,0,0,1
4:02.097,87155,N,0,0,0
4:02.128,87166,),0,0,1
4:02.267,87216,(,0,0,2
4:02.369,87253,t,0,0,0
4:02.481,87293,),0,0,2
4:03.078,87508,(,0,0,0
4:03.128,87526,p,0,0,0
4:03.178,87544,),0,0,0
4:03.253,87571,(,0,0,1
4:03.306,87590,N,0,0,0
4:03.339,87602,),0,0,1
4:03.478,87652,(,0,0,2
4:03.583,87690,t,0,0,0
4:03.686,87727,),0,0,2
4:04.267,87936,(,0,0,0
4:04.317,87954,p,0,0,0
4:04.367,87972,),0,0,0
4:04.450,88002,(,0,0,1
4:04.500,88020,N,0,0,0
4:04.531,88031,),0,0,1
4:04.681,88085,(,0,0,2
4:04.778,88120,t,0,0,0
4:04.886,88159,),0,0,2
4:05.506,88382,(,0,0,0
4:05.550,88398,p,0,0,0
4:05.603,88417,),0,0,0
4:05.686,88447,(,0,0,1
4:05.739,88466,N,0,0,0
4:05.769,88477,),0,0,1
4:05.917,88530,(,0,0,2
4:06.014,88565,t,0,0,0
4:06.114,88601,),0,0,2
4:06.706,88814,(,0,0,0
4:06.744,88828,p,0,0,0
4:06.794,88846,),0,0,0
4:06.872,88874,(,0,0,1
4:06.922,88892,N,0,0,0
4:06.961,88906,),0,0,1
4:07.086,88951,(,0,0,2
4:07.200,88992,t,0,0,0
4:07.308,89031,),0,0,2
4:07.911,89248,(,0,0,0
4:07.956,89264,p,0,0,0
4:08.011,89284,),0,0,0
4:08.094,89314,(,0,0,1
4:08.147,89333,N,0,0,0
4:08.183,89346,),0,0,1
4:08.331,89399,(,0,0,2
4:08.431,89435,t,0,0,0
4:08.531,89471,),0,0,2
4:09.111,89680,(,0,0,0
4:09.164,89699,p,0,0,0
4:09.219,89719,),0,0,0
4:09.294,89746,(,0,0,1
4:09.347,89765,N,0,0,0
4:09.389,89780,),0,0,1
4:09.522,89828,(,0,0,2
4:09.628,89866,t,0,0,0
4:09.736,89905,),0,0,2
4:10.297,90107,(,0,0,0
4:10.342,90123,p,0,0,0
4:10.403,90145,),0,0,0
4:10.481,90173,(,0,0,1
4:10.533,90192,N,0,0,0
4:10.567,90204,),0,0,1
4:10.714,90257,(,0,0,2
4:10.822,90296,t,0,0,0
4:10.917,90330,),0,0,2
4:11.536,90553,(,0,0,0
4:11.586,90571,p,0,0,0
4:11.644,90592,),0,0,0
4:11.717,90618,(,0,0,1
4:11.767,90636,N,0,0,0
4:11.803,90649,),0,0,1
4:11.931,90695,(,0,0,2
4:12.044,90736,t,0,0,0
4:12.144,90772,),0,0,2
4:12.719,90979,(,0,0,0
4:12.769,90997,p,0,0,0
4:12.833,91020,),0,0,0
4:12.906,91046,(,0,0,1
4:12.953,91063,N,0,0,0
4:12.989,91076,),0,0,1
4:13.142,91131,(,0,0,2
4:13.242,91167,t,0,0,0
4:13.347,91205,),0,0,2
4:13.950,91422,(,0,0,0
4:13.997,91439,p,0,0,0
4:14.058,91461,),0,0,0
4:14.128,91486,(,0,0,1
4:14.181,91505,N,0,0,0
4:14.211,91516,),0,0,1
4:14.356,91568,(,0,0,2
4:14.461,91606,t,0,0,0
4:14.564,91643,),0,0,2
4:15.144,91852,(,0,0,0
4:15.186,91867,p,0,0,0
4:15.239,91886,),0,0,0
4:15.317,91914,(,0,0,1
4:15.367,91932,N,0,0,0
4:15.400,91944,),0,0,1
4:15.536,91993,(,0,0,2
4:15.650,92034,t,0,0,0
4:15.750,92070,),0,0,2
4:16.381,92297,(,0,0,0
4:16.431,92315,p,0,0,0
4:16.478,92332,),0,0,0
4:16.558,92361,(,0,0,1
4:16.608,92379,N,0,0,0
4:16.639,92390,),0,0,1
4:16.786,92443,(,0,0,2
4:16.892,92481,t,0,0,0
4:16.989,92516,),0,0,2
4:17.594,92734,(,0,0,0
4:17.644,92752,p,0,0,0
4:17.708,92775,),0,0,0
4:17.778,92800,(,0,0,1
4:17.822,92816,N,0,0,0
4:17.858,92829,),0,0,1
4:17.997,92879,(,0,0,2
4:18.097,92915,t,0,0,0
4:18.194,92950,),0,0,2
4:18.839,93182,(,0,0,0
4:18.883,93198,p,0,0,0
4:18.933,93216,),0,0,0
4:19.017,93246,(,0,0,1
4:19.064,93263,N,0,0,0
4:19.094,93274,),0,0,1
4:19.239,93326,(,0,0,2
4:19.344,93364,t,0,0,0
4:19.436,93397,),0,0,2
4:20.036,93613,(,0,0,0
4:20.086,93631,p,0,0,0
4:20.139,93650,),0,0,0
4:20.217,93678,(,0,0,1
4:20.264,93695,N,0,0,0
4:20.303,93709,),0,0,1
4:20.447,93761,(,0,0,2
4:20.550,93798,t,0,0,0
4:20.650,93834,),0,0,2
4:21.261,94054,(,0,0,0
4:21.314,94073,p,0,0,0
4:21.383,94098,),0,0,0
4:21.453,94123,(,0,0,1
4:21.503,94141,N,0,0,0
4:21.533,94152,),0,0,1
4:21.678,94204,(,0,0,2
4:21.783,94242,t,0,0,0
4:21.881,94277,),0,0,2
4:22.478,94492,(,0,0,0
4:22.517,94506,p,0,0,0
4:22.567,94524,),0,0,0
4:22.650,94554,(,0,0,1
4:22.697,94571,N,0,0,0
4:22.733,94584,),0,0,1
4:22.872,94634,(,0,0,2
4:22.978,94672,t,0,0,0
4:23.081,94709,),0,0,2
4:23.650,94914,(,0,0,0
4:23.706,94934,p,0,0,0
4:23.758,94953,),0,0,0
4:23.842,94983,(,0,0,1
4:23.892,95001,N,0,0,0
4:23.925,95013,),0,0,1
4:24.069,95065,(,0,0,2
4:24.178,95104,t,0,0,0
4:24.283,95142,),0,0,2
4:24.861,95350,(,0,0,0
4:24.914,95369,p,0,0,0
4:24.958,95385,),0,0,0
4:25.050,95418,(,0,0,1
4:25.100,95436,N,0,0,0
4:25.133,95448,),0,0,1
4:25.278,95500,(,0,0,2
4:25.381,95537,t,0,0,0
4:25.478,95572,),0,0,2
4:26.028,95770,(,0,0,0
4:26.075,95787,p,0,0,0
4:26.122,95804,),0,0,0
4:26.200,95832,(,0,0,1
4:26.253,95851,N,0,0,0
4:26.286,95863,),0,0,1
4:26.447,95921,(,0,0,2
4:26.536,95953,t,0,0,0
4:26.647,95993,),0,0,2
4:27.219,96199,(,0,0,0
4:27.269,96217,p,0,0,0
4:27.322,96236,),0,0,0
4:27.397,96263,(,0,0,1
4:27.450,96282,N,0,0,0
4:27.483,96294,),0,0,1
4:27.622,96344,(,0,0,2
4:27.733,96384,t,0,0,0
4:27.828,96418,),0,0,2
4:28.386,96619,(,0,0,0
4:28.444,96640,p,0,0,0
4:28.492,96657,),0,0,0
4:28.572,96686,(,0,0,1
4:28.625,96705,N,0,0,0
4:28.661,96718,),0,0,1
4:28.803,96769,(,0,0,2
4:28.903,96805,t,0,0,0
4:29.000,96840,),0,0,2
4:29.583,97050,(,0,0,0
4:29.625,97065,p,0,0,0
4:29.683,97086,),0,0,0
4:29.758,97113,(,0,0,1
4:29.808,97131,N,0,0,0
4:29.839,97142,),0,0,1
4:29.986,97195,(,0,0,2
4:30.089,97232,t,0,0,0
4:30.186,97267,),0,0,2
4:30.756,97472,(,0,0,0
4:30.811,97492,p,0,0,0
4:30.861,97510,),0,0,0
4:30.942,97539,(,0,0,1
4:30.992,97557,N,0,0,0
4:31.025,97569,),0,0,1
4:31.175,97623,(,0,0,2
4:31.272,97658,t,0,0,0
4:31.372,97694,),0,0,2
4:31.911,97888,(,0,0,0
4:31.967,97908,p,0,0,0
4:32.014,97925,),0,0,0
4:32.100,97956,(,0,0,1
4:32.153,97975,N,0,0,0
4:32.183,97986,),0,0,1
4:32.328,98038,(,0,0,2
4:32.431,98075,t,0,0,0
4:32.531,98111,),0,0,2
4:33.108,98319,(,0,0,0
4:33.150,98334,p,0,0,0
4:33.203,98353,),0,0,0
4:33.281,98381,(,0,0,1
4:33.333,98400,N,0,0,0
4:33.369,98413,),0,0,1
4:33.503,98461,(,0,0,2
4:33.614,98501,t,0,0,0
4:33.714,98537,),0,0,2
4:34.258,98733,(,0,0,0
4:34.306,98750,p,0,0,0
4:34.358,98769,),0,0,0
4:34.439,98798,(,0,0,1
4:34.492,98817,N,0,0,0
4:34.525,98829,),0,0,1
4:34.664,98879,(,0,0,2
4:34.781,98921,t,0,0,0
4:34.883,98958,),0,0,2
4:36.622,99584,(,0,0,0
4:36.672,99602,p,0,0,0
4:36.722,99620,),0,0,0
4:36.797,99647,(,0,0,1
4:36.858,99669,N,0,0,0
4:36.886,99679,),0,0,1
4:37.033,99732,(,0,0,2
4:37.136,99769,t,0,0,0
4:37.244,99808,),0,0,2
4:37.997,100079,(,0,0,1
4:38.058,100101,N,0,0,0
4:38.086,100111,),0,0,1
4:38.225,100161,(,0,0,2
4:38.333,100200,t,0,0,0
4:38.436,100237,),0,0,2
4:39.033,100452,(,0,0,0
4:39.083,100470,p,0,0,0
4:39.133,100488,),0,0,0
4:39.203,100513,(,0,0,1
4:39.264,100535,N,0,0,0
4:39.292,100545,),0,0,1
4:39.453,100603,(,0,0,2
4:39.542,100635,t,0,0,0
4:39.658,100677,),0,0,2
4:40.264,100895,(,0,0,0
4:40.314,100913,p,0,0,0
4:40.361,100930,),0,0,0
4:40.433,100956,(,0,0,1
4:40.497,100979,N,0,0,0
4:40.528,100990,),0,0,1
4:40.675,101043,(,0,0,2
4:40.769,101077,t,0,0,0
4:40.878,101116,),0,0,2
4:41.344,101284,(,0,0,0
4:41.361,101290,p,0,0,0
4:41.511,101344,),0,0,0
4:41.647,101393,(,0,0,1
4:41.706,101414,N,0,0,0
4:41.733,101424,),0,0,1
4:41.875,101475,(,0,0,2
4:41.978,101512,t,0,0,0
4:42.078,101548,),0,0,2
4:42.706,101774,(,0,0,0
4:42.753,101791,p,0,0,0
4:42.811,101812,),0,0,0
4:42.883,101838,(,0,0,1
4:42.939,101858,N,0,0,0
4:42.972,101870,),0,0,1
4:43.125,101925,(,0,0,2
4:43.217,101958,t,0,0,0
4:43.325,101997,),0,0,2
4:43.750,102150,(,0,0,0
4:43.797,102167,p,0,0,0
4:43.914,102209,),0,0,0
4:44.047,102257,(,0,0,1
4:44.106,102278,N,0,0,0
4:44.139,102290,),0,0,1
4:44.264,102335,(,0,0,2
4:44.381,102377,t,0,0,0
4:44.486,102415,),0,0,2
4:45.058,102621,(,0,0,0
4:45.108,102639,p,0,0,0
4:45.167,102660,),0,0,0
4:45.233,102684,(,0,0,1
4:45.297,102707,N,0,0,0
4:45.325,102717,),0,0,1
4:45.469,102769,(,0,0,2
4:45.583,102810,t,0,0,0
4:45.686,102847,),0,0,2
4:46.253,103051,(,0,0,0
4:46.303,103069,p,0,0,0
4:46.361,103090,),0,0,0
4:46.428,103114,(,0,0,1
4:46.486,103135,N,0,0,0
4:46.517,103146,),0,0,1
4:46.661,103198,(,0,0,2
4:46.767,103236,t,0,0,0
4:46.864,103271,),0,0,2
4:47.589,103532,(,0,0,1
4:47.647,103553,N,0,0,0
4:47.681,103565,),0,0,1
4:47.817,103614,(,0,0,2
4:47.933,103656,t,0,0,0
4:48.047,103697,),0,0,2
4:48.614,103901,(,0,0,0
4:48.658,103917,p,0,0,0
4:48.717,103938,),0,0,0
4:48.783,103962,(,0,0,1
4:48.842,103983,N,0,0,0
4:48.869,103993,),0,0,1
4:49.025,104049,(,0,0,2
4:49.119,104083,t,0,0,0
4:49.228,104122,),0,0,2
4:49.794,104326,(,0,0,0
4:49.836,104341,p,0,0,0
4:49.881,104357,),0,0,0
4:49.944,104380,(,0,0,1
4:50.008,104403,N,0,0,0
4:50.042,104415,),0,0,1
4:50.169,104461,(,0,0,2
4:50.278,104500,t,0,0,0
4:50.381,104537,),0,0,2
4:51.136,104809,(,0,0,1
4:51.197,104831,N,0,0,0
4:51.225,104841,),0,0,1
4:51.369,104893,(,0,0,2
4:51.475,104931,t,0,0,0
4:51.572,104966,),0,0,2
4:52.189,105188,(,0,0,0
4:52.231,105203,p,0,0,0
4:52.278,105220,),0,0,0
4:52.350,105246,(,0,0,1
4:52.408,105267,N,0,0,0
4:52.442,105279,),0,0,1
4:52.592,105333,(,0,0,2
4:52.692,105369,t,0,0,0
4:52.794,105406,),0,0,2
4:53.361,105610,(,0,0,0
4:53.411,105628,p,0,0,0
4:53.467,105648,),0,0,0
4:53.539,105674,(,0,0,1
4:53.600,105696,N,0,0,0
4:53.631,105707,),0,0,1
4:53.786,105763,(,0,0,2
4:53.883,105798,t,0,0,0
4:53.986,105835,),0,0,2
4:54.439,105998,(,0,0,0
4:54.531,106031,p,0,0,0
4:54.617,106062,),0,0,0
4:54.750,106110,(,0,0,1
4:54.808,106131,N,0,0,0
4:54.836,106141,),0,0,1
4:54.983,106194,(,0,0,2
4:55.089,106232,t,0,0,0
4:55.192,106269,),0,0,2
4:55.744,106468,(,0,0,0
4:55.794,106486,p,0,0,0
4:55.844,106504,),0,0,0
4:55.922,106532,(,0,0,1
4:55.983,106554,N,0,0,0
4:56.017,106566,),0,0,1
4:56.158,106617,(,0,0,2
4:56.267,106656,t,0,0,0
4:56.389,106700,),0,0,2
4:56.956,106904,(,0,0,0
4:56.997,106919,p,0,0,0
4:57.058,106941,),0,0,0
4:57.128,106966,(,0,0,1
4:57.186,106987,N,0,0,0
4:57.217,106998,),0,0,1
4:57.367,107052,(,0,0,2
4:57.467,107088,t,0,0,0
4:57.569,107125,),0,0,2
4:58.133,107328,(,0,0,0
4:58.186,107347,p,0,0,0
4:58.233,107364,),0,0,0
4:58.308,107391,(,0,0,1
4:58.372,107414,N,0,0,0
4:58.403,107425,),0,0,1
4:58.553,107479,(,0,0,2
4:58.650,107514,t,0,0,0
4:58.761,107554,),0,0,2
4:59.492,107817,(,0,0,1
4:59.550,107838,N,0,0,0
4:59.583,107850,),0,0,1
4:59.728,107902,(,0,0,2
4:59.828,107938,t,0,0,0
4:59.928,107974,),0,0,2
5:00.503,108181,(,0,0,0
5:00.547,108197,p,0,0,0
5:00.600,108216,),0,0,0
5:00.672,108242,(,0,0,1
5:00.733,108264,N,0,0,0
5:00.764,108275,),0,0,1
5:00.906,108326,(,0,0,2
5:01.017,108366,t,0,0,0
5:01.111,108400,),0,0,2
5:01.697,108611,(,0,0,0
5:01.747,108629,p,0,0,0
5:01.794,108646,),0,0,0
5:01.869,108673,(,0,0,1
5:01.928,108694,N,0,0,0
5:01.958,108705,),0,0,1
5:02.094,108754,(,0,0,2
5:02.200,108792,t,0,0,0
5:02.306,108830,),0,0,2
5:02.872,109034,(,0,0,0
5:02.919,109051,p,0,0,0
5:02.967,109068,),0,0,0
5:03.042,109095,(,0,0,1
5:03.103,109117,N,0,0,0
5:03.128,109126,),0,0,1
5:03.281,109181,(,0,0,2
5:03.372,109214,t,0,0,0
5:03.478,109252,),0,0,2
5:04.247,109529,(,0,0,1
5:04.311,109552,N,0,0,0
5:04.342,109563,),0,0,1
5:04.486,109615,(,0,0,2
5:04.586,109651,t,0,0,0
5:04.692,109689,),0,0,2
5:05.244,109888,(,0,0,0
5:05.292,109905,p,0,0,0
5:05.342,109923,),0,0,0
5:05.414,109949,(,0,0,1
5:05.481,109973,N,0,0,0
5:05.511,109984,),0,0,1
5:05.658,110037,(,0,0,2
5:05.758,110073,t,0,0,0
5:05.858,110109,),0,0,2
5:06.322,110276,(,0,0,0
5:06.369,110293,p,0,0,0
5:06.478,110332,),0,0,0
5:06.611,110380,(,0,0,1
5:06.675,110403,N,0,0,0
5:06.708,110415,),0,0,1
5:06.861,110470,(,0,0,2
5:06.958,110505,t,0,0,0
5:07.061,110542,),0,0,2
5:07.606,110738,(,0,0,0
5:07.653,110755,p,0,0,0
5:07.703,110773,),0,0,0
5:07.772,110798,(,0,0,1
5:07.831,110819,N,0,0,0
5:07.861,110830,),0,0,1
5:08.003,110881,(,0,0,2
5:08.117,110922,t,0,0,0
5:08.214,110957,),0,0,2
5:08.958,111225,(,0,0,1
5:09.017,111246,N,0,0,0
5:09.044,111256,),0,0,1
5:09.200,111312,(,0,0,2
5:09.303,111349,t,0,0,0
5:09.408,111387,),0,0,2
5:09.972,111590,(,0,0,0
5:10.014,111605,p,0,0,0
5:10.067,111624,),0,0,0
5:10.136,111649,(,0,0,1
5:10.197,111671,N,0,0,0
5:10.228,111682,),0,0,1
5:10.372,111734,(,0,0,2
5:10.475,111771,t,0,0,0
5:10.586,111811,),0,0,2
5:11.122,112004,(,0,0,0
5:11.172,112022,p,0,0,0
5:11.225,112041,),0,0,0
5:11.289,112064,(,0,0,1
5:11.350,112086,N,0,0,0
5:11.378,112096,),0,0,1
5:11.508,112143,(,0,0,2
5:11.628,112186,t,0,0,0
5:11.733,112224,),0,0,2
5:12.308,112431,(,0,0,0
5:12.356,112448,p,0,0,0
5:12.411,112468,),0,0,0
5:12.472,112490,(,0,0,1
5:12.531,112511,N,0,0,0
5:12.558,112521,),0,0,1
5:12.697,112571,(,0,0,2
5:12.811,112612,t,0,0,0
5:12.906,112646,),0,0,2
5:13.469,112849,(,0,0,0
5:13.514,112865,p,0,0,0
5:13.556,112880,),0,0,0
5:13.633,112908,(,0,0,1
5:13.692,112929,N,0,0,0
5:13.722,112940,),0,0,1
5:13.853,112987,(,0,0,2
5:13.956,113024,t,0,0,0
5:14.067,113064,),0,0,2
5:14.628,113266,(,0,0,0
5:14.683,113286,p,0,0,0
5:14.744,113308,),0,0,0
5:14.806,113330,(,0,0,1
5:14.864,113351,N,0,0,0
5:14.889,113360,),0,0,1
5:15.033,113412,(,0,0,2
5:15.136,113449,t,0,0,0
5:15.239,113486,),0,0,2
5:15.811,113692,(,0,0,0
5:15.856,113708,p,0,0,0
5:15.903,113725,),0,0,0
5:15.972,113750,(,0,0,1
5:16.036,113773,N,0,0,0
5:16.067,113784,),0,0,1
5:16.211,113836,(,0,0,2
5:16.317,113874,t,0,0,0
5:16.417,113910,),0,0,2
5:16.861,114070,(,0,0,0
5:16.906,114086,p,0,0,0
5:17.014,114125,),0,0,0
5:17.150,114174,(,0,0,1
5:17.214,114197,N,0,0,0
5:17.242,114207,),0,0,1
5:17.403,114265,(,0,0,2
5:17.503,114301,t,0,0,0
5:17.606,114338,),0,0,2
5:18.189,114548,(,0,0,0
5:18.242,114567,p,0,0,0
5:18.292,114585,),0,0,0
5:18.367,114612,(,0,0,1
5:18.425,114633,N,0,0,0
5:18.458,114645,),0,0,1
5:18.606,114698,(,0,0,2
5:18.708,114735,t,0,0,0
5:18.808,114771,),0,0,2
5:19.347,114965,(,0,0,0
5:19.400,114984,p,0,0,0
5:19.447,115001,),0,0,0
5:19.528,115030,(,0,0,1
5:19.586,115051,N,0,0,0
5:19.619,115063,),0,0,1
5:19.753,115111,(,0,0,2
5:19.878,115156,t,0,0,0
5:19.983,115194,),0,0,2
5:20.542,115395,(,0,0,0
5:20.583,115410,p,0,0,0
5:20.636,115429,),0,0,0
5:20.708,115455,(,0,0,1
5:20.769,115477,N,0,0,0
5:20.797,115487,),0,0,1
5:20.944,115540,(,0,0,2
5:21.053,115579,t,0,0,0
5:21.158,115617,),0,0,2
5:21.711,115816,(,0,0,0
5:21.756,115832,p,0,0,0
5:21.803,115849,),0,0,0
5:21.872,115874,(,0,0,1
5:21.931,115895,N,0,0,0
5:21.961,115906,),0,0,1
5:22.100,115956,(,0,0,2
5:22.203,115993,t,0,0,0
5:22.314,116033,),0,0,2
5:22.853,116227,(,0,0,0
5:22.897,116243,p,0,0,0
5:22.947,116261,),0,0,0
5:23.017,116286,(,0,0,1
5:23.081,116309,N,0,0,0
5:23.108,116319,),0,0,1
5:23.247,116369,(,0,0,2
5:23.353,116407,t,0,0,0
5:23.453,116443,),0,0,2
5:24.011,116644,(,0,0,0
5:24.058,116661,p,0,0,0
5:24.111,116680,),0,0,0
5:24.181,116705,(,0,0,1
5:24.239,116726,N,0,0,0
5:24.264,116735,),0,0,1
5:24.411,116788,(,0,0,2
5:24.517,116826,t,0,0,0
5:24.617,116862,),0,0,2
5:25.364,117131,(,0,0,1
5:25.425,117153,N,0,0,0
5:25.458,117165,),0,0,1
5:25.600,117216,(,0,0,2
5:25.700,117252,t,0,0,0
5:25.800,117288,),0,0,2
5:26.347,117485,(,0,0,0
5:26.400,117504,p,0,0,0
5:26.453,117523,),0,0,0
5:26.517,117546,(,0,0,1
5:26.578,117568,N,0,0,0
5:26.608,117579,),0,0,1
5:26.750,117630,(,0,0,2
5:26.853,117667,t,0,0,0
5:26.958,117705,),0,0,2
5:27.514,117905,(,0,0,0
5:27.569,117925,p,0,0,0
5:27.617,117942,),0,0,0
5:27.692,117969,(,0,0,1
5:27.756,117992,N,0,0,0
5:27.792,118005,),0,0,1
5:27.942,118059,(,0,0,2
5:28.047,118097,t,0,0,0
5:28.147,118133,),0,0,2
5:28.686,118327,(,0,0,0
5:28.731,118343,p,0,0,0
5:28.789,118364,),0,0,0
5:28.853,118387,(,0,0,1
5:28.917,118410,N,0,0,0
5:28.944,118420,),0,0,1
5:29.089,118472,(,0,0,2
5:29.197,118511,t,0,0,0
5:29.300,118548,),0,0,2
5:29.728,118702,(,0,0,0
5:29.742,118707,p,0,0,0
5:29.900,118764,),0,0,0
5:30.036,118813,(,0,0,1
5:30.097,118835,N,0,0,0
5:30.128,118846,),0,0,1
5:30.278,118900,(,0,0,2
5:30.386,118939,t,0,0,0
5:30.489,118976,),0,0,2
5:31.042,119175,(,0,0,0
5:31.089,119192,p,0,0,0
5:31.142,119211,),0,0,0
5:31.208,119235,(,0,0,1
5:31.269,119257,N,0,0,0
5:31.300,119268,),0,0,1
5:31.442,119319,(,0,0,2
5:31.542,119355,t,0,0,0
5:31.644,119392,),0,0,2
5:32.214,119597,(,0,0,0
5:32.256,119612,p,0,0,0
5:32.311,119632,),0,0,0
5:32.381,119657,(,0,0,1
5:32.439,119678,N,0,0,0
5:32.467,119688,),0,0,1
5:32.617,119742,(,0,0,2
5:32.725,119781,t,0,0,0
5:32.825,119817,),0,0,2
5:33.406,120026,(,0,0,0
5:33.450,120042,p,0,0,0
5:33.500,120060,),0,0,0
5:33.567,120084,(,0,0,1
5:33.625,120105,N,0,0,0
5:33.658,120117,),0,0,1
5:33.803,120169,(,0,0,2
5:33.900,120204,t,0,0,0
5:34.000,120240,),0,0,2
5:34.547,120437,(,0,0,0
5:34.597,120455,p,0,0,0
5:34.647,120473,),0,0,0
5:34.722,120500,(,0,0,1
5:34.781,120521,N,0,0,0
5:34.806,120530,),0,0,1
5:34.950,120582,(,0,0,2
5:35.053,120619,t,0,0,0
5:35.153,120655,),0,0,2
5:35.747,120869,(,0,0,0
5:35.789,120884,p,0,0,0
5:35.847,120905,),0,0,0
5:35.914,120929,(,0,0,1
5:35.972,120950,N,0,0,0
5:36.003,120961,),0,0,1
5:36.147,121013,(,0,0,2
5:36.244,121048,t,0,0,0
5:36.342,121083,),0,0,2
5:36.869,121273,(,0,0,0
5:36.922,121292,p,0,0,0
5:36.981,121313,),0,0,0
5:37.047,121337,(,0,0,1
5:37.106,121358,N,0,0,0
5:37.139,121370,),0,0,1
5:37.281,121421,(,0,0,2
5:37.386,121459,t,0,0,0
5:37.486,121495,),0,0,2
5:37.900,121644,(,0,0,0
5:37.961,121666,p,0,0,0
5:38.064,121703,),0,0,0
5:38.200,121752,(,0,0,1
5:38.258,121773,N,0,0,0
5:38.289,121784,),0,0,1
5:38.447,121841,(,0,0,2
5:38.539,121874,t,0,0,0
5:38.644,121912,),0,0,2
5:39.061,122062,(,0,0,0
5:39.114,122081,p,0,0,0
5:39.222,122120,),0,0,0
5:39.353,122167,(,0,0,1
5:39.414,122189,N,0,0,0
5:39.444,122200,),0,0,1
5:39.583,122250,(,0,0,2
5:39.692,122289,t,0,0,0
5:39.797,122327,),0,0,2
5:40.331,122519,(,0,0,0
5:40.375,122535,p,0,0,0
5:40.428,122554,),0,0,0
5:40.494,122578,(,0,0,1
5:40.558,122601,N,0,0,0
5:40.586,122611,),0,0,1
5:40.719,122659,(,0,0,2
5:40.842,122703,t,0,0,0
5:40.944,122740,),0,0,2
5:41.517,122946,(,0,0,0
5:41.558,122961,p,0,0,0
5:41.617,122982,),0,0,0
5:41.683,123006,(,0,0,1
5:41.742,123027,N,0,0,0
5:41.772,123038,),0,0,1
5:41.919,123091,(,0,0,2
5:42.022,123128,t,0,0,0
5:42.125,123165,),0,0,2
5:42.675,123363,(,0,0,0
5:42.714,123377,p,0,0,0
5:42.775,123399,),0,0,0
5:42.831,123419,(,0,0,1
5:42.894,123442,N,0,0,0
5:42.928,123454,),0,0,1
5:43.069,123505,(,0,0,2
5:43.167,123540,t,0,0,0
5:43.286,123583,),0,0,2
5:43.864,123791,(,0,0,0
5:43.911,123808,p,0,0,0
5:43.964,123827,),0,0,0
5:44.031,123851,(,0,0,1
5:44.092,123873,N,0,0,0
5:44.122,123884,),0,0,1
5:44.267,123936,(,0,0,2
5:44.367,123972,t,0,0,0
5:44.467,124008,),0,0,2
5:45.033,124212,(,0,0,0
5:45.086,124231,p,0,0,0
5:45.142,124251,),0,0,0
5:45.206,124274,(,0,0,1
5:45.261,124294,N,0,0,0
5:45.294,124306,),0,0,1
5:45.428,124354,(,0,0,2
5:45.533,124392,t,0,0,0
5:45.625,124425,),0,0,2
5:46.181,124625,(,0,0,0
5:46.231,124643,p,0,0,0
5:46.283,124662,),0,0,0
5:46.356,124688,(,0,0,1
5:46.419,124711,N,0,0,0
5:46.444,124720,),0,0,1
5:46.589,124772,(,0,0,2
5:46.694,124810,t,0,0,0
5:46.792,124845,),0,0,2
5:47.356,125048,(,0,0,0
5:47.408,125067,p,0,0,0
5:47.461,125086,),0,0,0
5:47.528,125110,(,0,0,1
5:47.589,125132,N,0,0,0
5:47.617,125142,),0,0,1
5:47.764,125195,(,0,0,2
5:47.867,125232,t,0,0,0
5:47.964,125267,),0,0,2
5:48.694,125530,(,0,0,1
5:48.758,125553,N,0,0,0
5:48.789,125564,),0,0,1
5:48.944,125620,(,0,0,2
5:49.042,125655,t,0,0,0
5:49.150,125694,),0,0,2
5:49.686,125887,(,0,0,0
5:49.739,125906,p,0,0,0
5:49.794,125926,),0,0,0
5:49.858,125949,(,0,0,1
5:49.919,125971,N,0,0,0
5:49.947,125981,),0,0,1
5:50.103,126037,(,0,0,2
5:50.200,126072,t,0,0,0
5:50.297,126107,),0,0,2
5:50.744,126268,(,0,0,0
5:50.772,126278,p,0,0,0
5:50.908,126327,),0,0,0
5:51.044,126376,(,0,0,1
5:51.103,126397,N,0,0,0
5:51.136,126409,),0,0,1
5:51.289,126464,(,0,0,2
5:51.394,126502,t,0,0,0
5:51.494,126538,),0,0,2
5:52.050,126738,(,0,0,0
5:52.100,126756,p,0,0,0
5:52.150,126774,),0,0,0
5:52.222,126800,(,0,0,1
5:52.281,126821,N,0,0,0
5:52.308,126831,),0,0,1
5:52.453,126883,(,0,0,2
5:52.556,126920,t,0,0,0
5:52.664,126959,),0,0,2
5:53.225,127161,(,0,0,0
5:53.275,127179,p,0,0,0
5:53.325,127197,),0,0,0
5:53.392,127221,(,0,0,1
5:53.453,127243,N,0,0,0
5:53.481,127253,),0,0,1
5:53.622,127304,(,0,0,2
5:53.728,127342,t,0,0,0
5:53.831,127379,),0,0,2
5:54.558,127641,(,0,0,1
5:54.617,127662,N,0,0,0
5:54.650,127674,),0,0,1
5:54.789,127724,(,0,0,2
5:54.894,127762,t,0,0,0
5:54.997,127799,),0,0,2
5:55.703,128053,(,0,0,1
5:55.764,128075,N,0,0,0
5:55.792,128085,),0,0,1
5:55.933,128136,(,0,0,2
5:56.042,128175,t,0,0,0
5:56.147,128213,),0,0,2
5:56.706,128414,(,0,0,0
5:56.756,128432,p,0,0,0
5:56.811,128452,),0,0,0
5:56.886,128479,(,0,0,1
5:56.944,128500,N,0,0,0
5:56.975,128511,),0,0,1
5:57.131,128567,(,0,0,2
5:57.225,128601,t,0,0,0
5:57.328,128638,),0,0,2
5:57.850,128826,(,0,0,0
5:57.903,128845,p,0,0,0
5:57.953,128863,),0,0,0
5:58.022,128888,(,0,0,1
5:58.083,128910,N,0,0,0
5:58.114,128921,),0,0,1
5:58.250,128970,(,0,0,2
5:58.361,129010,t,0,0,0
5:58.472,129050,),0,0,2
5:59.006,129242,(,0,0,0
5:59.056,129260,p,0,0,0
5:59.111,129280,),0,0,0
5:59.181,129305,(,0,0,1
5:59.242,129327,N,0,0,0
5:59.272,129338,),0,0,1
5:59.422,129392,(,0,0,2
5:59.531,129431,t,0,0,0
5:59.631,129467,),0,0,2
6:00.161,129658,(,0,0,0
6:00.211,129676,p,0,0,0
6:00.261,129694,),0,0,0
6:00.328,129718,(,0,0,1
6:00.389,129740,N,0,0,0
6:00.419,129751,),0,0,1
6:00.564,129803,(,0,0,2
6:00.667,129840,t,0,0,0
6:00.767,129876,),0,0,2
6:01.300,130068,(,0,0,0
6:01.350,130086,p,0,0,0
6:01.400,130104,),0,0,0
6:01.464,130127,(,0,0,1
6:01.525,130149,N,0,0,0
6:01.553,130159,),0,0,1
6:01.700,130212,(,0,0,2
6:01.806,130250,t,0,0,0
6:01.900,130284,),0,0,2
6:02.469,130489,(,0,0,0
6:02.522,130508,p,0,0,0
6:02.572,130526,),0,0,0
6:02.642,130551,(,0,0,1
6:02.700,130572,N,0,0,0
6:02.728,130582,),0,0,1
6:02.878,130636,(,0,0,2
6:02.978,130672,t,0,0,0
6:03.078,130708,),0,0,2
6:03.797,130967,(,0,0,1
6:03.858,130989,N,0,0,0
6:03.886,130999,),0,0,1
6:04.028,131050,(,0,0,2
6:04.136,131089,t,0,0,0
6:04.236,131125,),0,0,2
6:04.828,131338,(,0,0,0
6:04.875,131355,p,0,0,0
6:04.931,131375,),0,0,0
6:05.000,131400,(,0,0,1
6:05.061,131422,N,0,0,0
6:05.089,131432,),0,0,1
6:05.233,131484,(,0,0,2
6:05.336,131521,t,0,0,0
6:05.439,131558,),0,0,2
6:06.019,131767,(,0,0,0
6:06.072,131786,p,0,0,0
6:06.122,131804,),0,0,0
6:06.192,131829,(,0,0,1
6:06.250,131850,N,0,0,0
6:06.283,131862,),0,0,1
6:06.428,131914,(,0,0,2
6:06.531,131951,t,0,0,0
6:06.631,131987,),0,0,2
6:07.189,132188,(,0,0,0
6:07.236,132205,p,0,0,0
6:07.292,132225,),0,0,0
6:07.364,132251,(,0,0,1
6:07.428,132274,N,0,0,0
6:07.456,132284,),0,0,1
6:07.608,132339,(,0,0,2
6:07.711,132376,t,0,0,0
6:07.811,132412,),0,0,2
6:08.383,132618,(,0,0,0
6:08.433,132636,p,0,0,0
6:08.489,132656,),0,0,0
6:08.558,132681,(,0,0,1
6:08.617,132702,N,0,0,0
6:08.650,132714,),0,0,1
6:08.794,132766,(,0,0,2
6:08.900,132804,t,0,0,0
6:08.997,132839,),0,0,2
6:09.694,133090,(,0,0,1
6:09.753,133111,N,0,0,0
6:09.783,133122,),0,0,1
6:09.928,133174,(,0,0,2
6:10.033,133212,t,0,0,0
6:10.136,133249,),0,0,2
6:10.694,133450,(,0,0,0
6:10.739,133466,p,0,0,0
6:10.797,133487,),0,0,0
6:10.861,133510,(,0,0,1
6:10.922,133532,N,0,0,0
6:10.950,133542,),0,0,1
6:11.103,133597,(,0,0,2
6:11.197,133631,t,0,0,0
6:11.294,133666,),0,0,2
6:11.828,133858,(,0,0,0
6:11.878,133876,p,0,0,0
6:11.928,133894,),0,0,0
6:11.994,133918,(,0,0,1
6:12.053,133939,N,0,0,0
6:12.086,133951,),0,0,1
6:12.228,134002,(,0,0,2
6:12.325,134037,t,0,0,0
6:12.433,134076,),0,0,2
6:13.153,134335,(,0,0,1
6:13.214,134357,N,0,0,0
6:13.242,134367,),0,0,1
6:13.383,134418,(,0,0,2
6:13.486,134455,t,0,0,0
6:13.589,134492,),0,0,2
6:14.164,134699,(,0,0,0
6:14.211,134716,p,0,0,0
6:14.264,134735,),0,0,0
6:14.331,134759,(,0,0,1
6:14.392,134781,N,0,0,0
6:14.422,134792,),0,0,1
6:14.569,134845,(,0,0,2
6:14.664,134879,t,0,0,0
6:14.769,134917,),0,0,2
6:15.322,135116,(,0,0,0
6:15.375,135135,p,0,0,0
6:15.433,135156,),0,0,0
6:15.497,135179,(,0,0,1
6:15.561,135202,N,0,0,0
6:15.592,135213,),0,0,1
6:15.744,135268,(,0,0,2
6:15.842,135303,t,0,0,0
6:15.953,135343,),0,0,2
6:16.536,135553,(,0,0,0
6:16.589,135572,p,0,0,0
6:16.642,135591,),0,0,0
6:16.708,135615,(,0,0,1
6:16.772,135638,N,0,0,0
6:16.800,135648,),0,0,1
6:16.944,135700,(,0,0,2
6:17.047,135737,t,0,0,0
6:17.147,135773,),0,0,2
6:17.725,135981,(,0,0,0
6:17.778,136000,p,0,0,0
6:17.828,136018,),0,0,0
6:17.897,136043,(,0,0,1
6:17.958,136065,N,0,0,0
6:17.992,136077,),0,0,1
6:18.139,136130,(,0,0,2
6:18.247,136169,t,0,0,0
6:18.347,136205,),0,0,2
6:18.942,136419,(,0,0,0
6:18.992,136437,p,0,0,0
6:19.044,136456,),0,0,0
6:19.114,136481,(,0,0,1
6:19.175,136503,N,0,0,0
6:19.203,136513,),0,0,1
6:19.347,136565,(,0,0,2
6:19.453,136603,t,0,0,0
6:19.556,136640,),0,0,2
6:20.164,136859,(,0,0,0
6:20.206,136874,p,0,0,0
6:20.258,136893,),0,0,0
6:20.331,136919,(,0,0,1
6:20.392,136941,N,0,0,0
6:20.425,136953,),0,0,1
6:20.558,137001,(,0,0,2
6:20.675,137043,t,0,0,0
6:20.778,137080,),0,0,2
6:21.494,137338,(,0,0,1
6:21.553,137359,N,0,0,0
6:21.581,137369,),0,0,1
6:21.728,137422,(,0,0,2
6:21.822,137456,t,0,0,0
6:21.928,137494,),0,0,2
6:22.517,137706,(,0,0,0
6:22.564,137723,p,0,0,0
6:22.622,137744,),0,0,0
6:22.683,137766,(,0,0,1
6:22.747,137789,N,0,0,0
6:22.778,137800,),0,0,1
6:22.922,137852,(,0,0,2
6:23.025,137889,t,0,0,0
6:23.133,137928,),0,0,2
6:23.753,138151,(,0,0,0
6:23.794,138166,p,0,0,0
6:23.844,138184,),0,0,0
6:23.914,138209,(,0,0,1
6:23.975,138231,N,0,0,0
6:24.003,138241,),0,0,1
6:24.150,138294,(,0,0,2
6:24.242,138327,t,0,0,0
6:24.344,138364,),0,0,2
6:24.933,138576,(,0,0,0
6:24.986,138595,p,0,0,0
6:25.042,138615,),0,0,0
6:25.106,138638,(,0,0,1
6:25.167,138660,N,0,0,0
6:25.194,138670,),0,0,1
6:25.342,138723,(,0,0,2
6:25.436,138757,t,0,0,0
6:25.539,138794,),0,0,2
6:26.167,139020,(,0,0,0
6:26.211,139036,p,0,0,0
6:26.261,139054,),0,0,0
6:26.336,139081,(,0,0,1
6:26.397,139103,N,0,0,0
6:26.425,139113,),0,0,1
6:26.567,139164,(,0,0,2
6:26.667,139200,t,0,0,0
6:26.772,139238,),0,0,2
6:27.350,139446,(,0,0,0
6:27.392,139461,p,0,0,0
6:27.442,139479,),0,0,0
6:27.517,139506,(,0,0,1
6:27.578,139528,N,0,0,0
6:27.611,139540,),0,0,1
6:27.747,139589,(,0,0,2
6:27.856,139628,t,0,0,0
6:27.956,139664,),0,0,2
6:28.569,139885,(,0,0,0
6:28.614,139901,p,0,0,0
6:28.669,139921,),0,0,0
6:28.736,139945,(,0,0,1
6:28.800,139968,N,0,0,0
6:28.828,139978,),0,0,1
6:28.969,140029,(,0,0,2
6:29.081,140069,t,0,0,0
6:29.189,140108,),0,0,2
6:29.961,140386,(,0,0,1
6:30.022,140408,N,0,0,0
6:30.056,140420,),0,0,1
6:30.200,140472,(,0,0,2
6:30.297,140507,t,0,0,0
6:30.403,140545,),0,0,2
6:30.961,140746,(,0,0,0
6:31.014,140765,p,0,0,0
6:31.064,140783,),0,0,0
6:31.139,140810,(,0,0,1
6:31.200,140832,N,0,0,0
6:31.228,140842,),0,0,1
6:31.378,140896,(,0,0,2
6:31.483,140934,t,0,0,0
6:31.597,140975,),0,0,2
6:32.206,141194,(,0,0,0
6:32.256,141212,p,0,0,0
6:32.308,141231,),0,0,0
6:32.375,141255,(,0,0,1
6:32.439,141278,N,0,0,0
6:32.469,141289,),0,0,1
6:32.617,141342,(,0,0,2
6:32.722,141380,t,0,0,0
6:32.819,141415,),0,0,2
6:33.408,141627,(,0,0,0
6:33.456,141644,p,0,0,0
6:33.508,141663,),0,0,0
6:33.569,141685,(,0,0,1
6:33.628,141706,N,0,0,0
6:33.658,141717,),0,0,1
6:33.803,141769,(,0,0,2
6:33.911,141808,t,0,0,0
6:34.011,141844,),0,0,2
6:34.592,142053,(,0,0,0
6:34.642,142071,p,0,0,0
6:34.703,142093,),0,0,0
6:34.767,142116,(,0,0,1
6:34.825,142137,N,0,0,0
6:34.856,142148,),0,0,1
6:34.997,142199,(,0,0,2
6:35.100,142236,t,0,0,0
6:35.200,142272,),0,0,2
6:35.761,142474,(,0,0,0
6:35.803,142489,p,0,0,0
6:35.847,142505,),0,0,0
6:35.919,142531,(,0,0,1
6:35.983,142554,N,0,0,0
6:36.014,142565,),0,0,1
6:36.150,142614,(,0,0,2
6:36.258,142653,t,0,0,0
6:36.364,142691,),0,0,2
6:36.914,142889,(,0,0,0
6:36.967,142908,p,0,0,0
6:37.019,142927,),0,0,0
6:37.089,142952,(,0,0,1
6:37.153,142975,N,0,0,0
6:37.183,142986,),0,0,1
6:37.333,143040,(,0,0,2
6:37.431,143075,t,0,0,0
6:37.533,143112,),0,0,2
6:38.103,143317,(,0,0,0
6:38.153,143335,p,0,0,0
6:38.206,143354,),0,0,0
6:38.272,143378,(,0,0,1
6:38.333,143400,N,0,0,0
6:38.364,143411,),0,0,1
6:38.508,143463,(,0,0,2
6:38.603,143497,t,0,0,0
6:38.706,143534,),0,0,2
6:39.136,143689,(,0,0,0
6:39.236,143725,p,0,0,0
6:39.297,143747,),0,0,0
6:39.431,143795,(,0,0,1
6:39.492,143817,N,0,0,0
6:39.528,143830,),0,0,1
6:39.672,143882,(,0,0,2
6:39.778,143920,t,0,0,0
6:39.881,143957,),0,0,2
6:40.450,144162,(,0,0,0
6:40.503,144181,p,0,0,0
6:40.550,144198,),0,0,0
6:40.622,144224,(,0,0,1
6:40.681,144245,N,0,0,0
6:40.711,144256,),0,0,1
6:40.858,144309,(,0,0,2
6:40.964,144347,t,0,0,0
6:41.064,144383,),0,0,2
6:41.639,144590,(,0,0,0
6:41.681,144605,p,0,0,0
6:41.728,144622,),0,0,0
6:41.806,144650,(,0,0,1
6:41.864,144671,N,0,0,0
6:41.897,144683,),0,0,1
6:42.044,144736,(,0,0,2
6:42.150,144774,t,0,0,0
6:42.253,144811,),0,0,2
6:43.028,145090,(,0,0,1
6:43.086,145111,N,0,0,0
6:43.114,145121,),0,0,1
6:43.264,145175,(,0,0,2
6:43.361,145210,t,0,0,0
6:43.475,145251,),0,0,2
6:44.239,145526,(,0,0,1
6:44.300,145548,N,0,0,0
6:44.331,145559,),0,0,1
6:44.481,145613,(,0,0,2
6:44.578,145648,t,0,0,0
6:44.686,145687,),0,0,2
6:45.314,145913,(,0,0,0
6:45.361,145930,p,0,0,0
6:45.417,145950,),0,0,0
6:45.483,145974,(,0,0,1
6:45.542,145995,N,0,0,0
6:45.567,146004,),0,0,1
6:45.711,146056,(,0,0,2
6:45.814,146093,t,0,0,0
6:45.917,146130,),0,0,2
6:50.147,147653,(,0,0,0
6:50.200,147672,p,0,0,0
6:50.253,147691,),0,0,0
6:50.319,147715,(,0,0,1
6:50.381,147737,N,0,0,0
6:50.411,147748,),0,0,1
6:50.550,147798,(,0,0,2
6:50.653,147835,t,0,0,0
6:50.767,147876,),0,0,2
6:51.314,148073,(,0,0,0
6:51.361,148090,p,0,0,0
6:51.417,148110,),0,0,0
6:51.483,148134,(,0,0,1
6:51.547,148157,N,0,0,0
6:51.575,148167,),0,0,1
6:51.736,148225,(,0,0,2
6:51.819,148255,t,0,0,0
6:51.919,148291,),0,0,2
6:53.539,148874,(,0,0,0
6:53.564,148883,p,0,0,0
6:53.700,148932,),0,0,0
6:53.833,148980,(,0,0,1
6:53.892,149001,N,0,0,0
6:53.922,149012,),0,0,1
6:54.075,149067,(,0,0,2
6:54.172,149102,t,0,0,0
6:54.281,149141,),0,0,2
6:55.036,149413,(,0,0,1
6:55.097,149435,N,0,0,0
6:55.125,149445,),0,0,1
6:55.272,149498,(,0,0,2
6:55.383,149538,t,0,0,0
6:55.489,149576,),0,0,2
6:56.086,149791,(,0,0,0
6:56.133,149808,p,0,0,0
6:56.183,149826,),0,0,0
6:56.253,149851,(,0,0,1
6:56.317,149874,N,0,0,0
6:56.344,149884,),0,0,1
6:56.486,149935,(,0,0,2
6:56.594,149974,t,0,0,0
6:56.706,150014,),0,0,2
6:57.289,150224,(,0,0,0
6:57.331,150239,p,0,0,0
6:57.383,150258,),0,0,0
6:57.450,150282,(,0,0,1
6:57.511,150304,N,0,0,0
6:57.536,150313,),0,0,1
6:57.681,150365,(,0,0,2
6:57.789,150404,t,0,0,0
6:57.892,150441,),0,0,2
6:59.717,151098,(,0,0,0
6:59.767,151116,p,0,0,0
6:59.817,151134,),0,0,0
6:59.886,151159,(,0,0,1
6:59.947,151181,N,0,0,0
6:59.975,151191,),0,0,1
7:00.117,151242,(,0,0,2
7:00.219,151279,t,0,0,0
7:00.325,151317,),0,0,2
7:00.939,151538,(,0,0,0
7:00.989,151556,p,0,0,0
7:01.039,151574,),0,0,0
7:01.117,151602,(,0,0,1
7:01.175,151623,N,0,0,0
7:01.203,151633,),0,0,1
7:01.347,151685,(,0,0,2
7:01.450,151722,t,0,0,0
7:01.556,151760,),0,0,2
7:02.147,151973,(,0,0,0
7:02.189,151988,p,0,0,0
7:02.236,152005,),0,0,0
7:02.311,152032,(,0,0,1
7:02.372,152054,N,0,0,0
7:02.403,152065,),0,0,1
7:02.536,152113,(,0,0,2
7:02.642,152151,t,0,0,0
7:02.747,152189,),0,0,2
7:03.236,152365,(,0,0,0
7:03.281,152381,p,0,0,0
7:03.378,152416,),0,0,0
7:03.514,152465,(,0,0,1
7:03.575,152487,N,0,0,0
7:03.603,152497,),0,0,1
7:03.750,152550,(,0,0,2
7:03.850,152586,t,0,0,0
7:03.950,152622,),0,0,2
7:05.753,153271,(,0,0,0
7:05.800,153288,p,0,0,0
7:05.858,153309,),0,0,0
7:05.928,153334,(,0,0,1
7:05.992,153357,N,0,0,0
7:06.025,153369,),0,0,1
7:06.172,153422,(,0,0,2
7:06.272,153458,t,0,0,0
7:06.378,153496,),0,0,2
7:06.950,153702,(,0,0,0
7:07.008,153723,p,0,0,0
7:07.061,153742,),0,0,0
7:07.131,153767,(,0,0,1
7:07.192,153789,N,0,0,0
7:07.217,153798,),0,0,1
7:07.378,153856,(,0,0,2
7:07.472,153890,t,0,0,0
7:07.578,153928,),0,0,2
7:08.192,154149,(,0,0,0
7:08.236,154165,p,0,0,0
7:08.289,154184,),0,0,0
7:08.358,154209,(,0,0,1
7:08.425,154233,N,0,0,0
7:08.458,154245,),0,0,1
7:08.614,154301,(,0,0,2
7:08.708,154335,t,0,0,0
7:08.817,154374,),0,0,2
7:09.369,154573,(,0,0,0
7:09.422,154592,p,0,0,0
7:09.475,154611,),0,0,0
7:09.547,154637,(,0,0,1
7:09.606,154658,N,0,0,0
7:09.636,154669,),0,0,1
7:09.781,154721,(,0,0,2
7:09.883,154758,t,0,0,0
7:09.986,154795,),0,0,2
7:10.733,155064,(,0,0,1
7:10.794,155086,N,0,0,0
7:10.825,155097,),0,0,1
7:10.981,155153,(,0,0,2
7:11.083,155190,t,0,0,0
7:11.186,155227,),0,0,2
7:11.756,155432,(,0,0,0
7:11.800,155448,p,0,0,0
7:11.847,155465,),0,0,0
7:11.917,155490,(,0,0,1
7:11.972,155510,N,0,0,0
7:12.006,155522,),0,0,1
7:12.147,155573,(,0,0,2
7:12.247,155609,t,0,0,0
7:12.353,155647,),0,0,2
7:12.919,155851,(,0,0,0
7:12.964,155867,p,0,0,0
7:13.022,155888,),0,0,0
7:13.086,155911,(,0,0,1
7:13.144,155932,N,0,0,0
7:13.172,155942,),0,0,1
7:13.322,155996,(,0,0,2
7:13.411,156028,t,0,0,0
7:13.517,156066,),0,0,2
7:14.122,156284,(,0,0,0
7:14.164,156299,p,0,0,0
7:14.214,156317,),0,0,0
7:14.281,156341,(,0,0,1
7:14.342,156363,N,0,0,0
7:14.372,156374,),0,0,1
7:14.519,156427,(,0,0,2
7:14.619,156463,t,0,0,0
7:14.719,156499,),0,0,2
7:15.125,156645,(,0,0,0
7:15.169,156661,p,0,0,0
7:15.300,156708,),0,0,0
7:15.431,156755,(,0,0,1
7:15.489,156776,N,0,0,0
7:15.519,156787,),0,0,1
7:15.675,156843,(,0,0,2
7:15.772,156878,t,0,0,0
7:15.883,156918,),0,0,2
7:17.486,157495,(,0,0,0
7:17.531,157511,p,0,0,0
7:17.656,157556,),0,0,0
7:17.789,157604,(,0,0,1
7:17.850,157626,N,0,0,0
7:17.881,157637,),0,0,1
7:18.022,157688,(,0,0,2
7:18.128,157726,t,0,0,0
7:18.233,157764,),0,0,2
7:20.194,158470,(,0,0,1
7:20.256,158492,N,0,0,0
7:20.286,158503,),0,0,1
7:20.439,158558,(,0,0,2
7:20.533,158592,t,0,0,0
7:20.642,158631,),0,0,2
7:23.728,159742,(,0,0,1
7:23.786,159763,N,0,0,0
7:23.819,159775,),0,0,1
7:23.956,159824,(,0,0,2
7:24.061,159862,t,0,0,0
7:24.164,159899,),0,0,2
7:25.850,160506,(,0,0,0
7:25.906,160526,p,0,0,0
7:25.983,160554,),0,0,0
7:26.114,160601,(,0,0,1
7:26.169,160621,N,0,0,0
7:26.203,160633,),0,0,1
7:26.339,160682,(,0,0,2
7:26.444,160720,t,0,0,0
7:26.550,160758,),0,0,2
7:31.972,162710,(,0,0,1
7:32.036,162733,N,0,0,0
7:32.069,162745,),0,0,1
7:32.211,162796,(,0,0,2
7:32.317,162834,t,0,0,0
7:32.428,162874,),0,0,2
7:35.333,163920,(,0,0,0
7:35.383,163938,p,0,0,0
7:35.431,163955,),0,0,0
7:35.500,163980,(,0,0,1
7:35.558,164001,N,0,0,0
7:35.586,164011,),0,0,1
7:35.731,164063,(,0,0,2
7:35.833,164100,t,0,0,0
7:35.936,164137,),0,0,2
7:37.656,164756,(,0,0,0
7:37.697,164771,p,0,0,0
7:37.747,164789,),0,0,0
7:37.817,164814,(,0,0,1
7:37.875,164835,N,0,0,0
7:37.908,164847,),0,0,1
7:38.036,164893,(,0,0,2
7:38.147,164933,t,0,0,0
7:38.244,164968,),0,0,2
7:38.792,165165,(,0,0,0
7:38.839,165182,p,0,0,0
7:38.894,165202,),0,0,0
7:38.958,165225,(,0,0,1
7:39.017,165246,N,0,0,0
7:39.044,165256,),0,0,1
7:39.197,165311,(,0,0,2
7:39.297,165347,t,0,0,0
7:39.400,165384,),0,0,2
7:41.025,165969,(,0,0,0
7:41.050,165978,p,0,0,0
7:41.186,166027,),0,0,0
7:41.319,166075,(,0,0,1
7:41.378,166096,N,0,0,0
7:41.408,166107,),0,0,1
7:41.556,166160,(,0,0,2
7:41.650,166194,t,0,0,0
7:41.764,166235,),0,0,2
7:42.333,166440,(,0,0,0
7:42.381,166457,p,0,0,0
7:42.431,166475,),0,0,0
7:42.508,166503,(,0,0,1
7:42.569,166525,N,0,0,0
7:42.597,166535,),0,0,1
7:42.761,166594,(,0,0,2
7:42.856,166628,t,0,0,0
7:42.961,166666,),0,0,2
7:43.531,166871,(,0,0,0
7:43.583,166890,p,0,0,0
7:43.639,166910,),0,0,0
7:43.706,166934,(,0,0,1
7:43.769,166957,N,0,0,0
7:43.800,166968,),0,0,1
7:43.958,167025,(,0,0,2
7:44.050,167058,t,0,0,0
7:44.164,167099,),0,0,2
7:44.736,167305,(,0,0,0
7:44.783,167322,p,0,0,0
7:44.839,167342,),0,0,0
7:44.903,167365,(,0,0,1
7:44.964,167387,N,0,0,0
7:44.992,167397,),0,0,1
7:45.142,167451,(,0,0,2
7:45.242,167487,t,0,0,0
7:45.344,167524,),0,0,2
7:45.925,167733,(,0,0,0
7:45.972,167750,p,0,0,0
7:46.017,167766,),0,0,0
7:46.092,167793,(,0,0,1
7:46.150,167814,N,0,0,0
7:46.183,167826,),0,0,1
7:46.325,167877,(,0,0,2
7:46.433,167916,t,0,0,0
7:46.542,167955,),0,0,2
7:47.114,168161,(,0,0,0
7:47.161,168178,p,0,0,0
7:47.214,168197,),0,0,0
7:47.281,168221,(,0,0,1
7:47.344,168244,N,0,0,0
7:47.372,168254,),0,0,1
7:47.511,168304,(,0,0,2
7:47.619,168343,t,0,0,0
7:47.717,168378,),0,0,2
7:49.467,169008,(,0,0,0
7:49.511,169024,p,0,0,0
7:49.564,169043,),0,0,0
7:49.631,169067,(,0,0,1
7:49.692,169089,N,0,0,0
7:49.719,169099,),0,0,1
7:49.867,169152,(,0,0,2
7:49.961,169186,t,0,0,0
7:50.061,169222,),0,0,2
7:51.961,169906,(,0,0,1
7:52.019,169927,N,0,0,0
7:52.053,169939,),0,0,1
7:52.200,169992,(,0,0,2
7:52.297,170027,t,0,0,0
7:52.403,170065,),0,0,2
7:53.106,170318,(,0,0,1
7:53.167,170340,N,0,0,0
7:53.194,170350,),0,0,1
7:53.361,170410,(,0,0,2
7:53.453,170443,t,0,0,0
7:53.567,170484,),0,0,2
7:55.292,171105,(,0,0,0
7:55.342,171123,p,0,0,0
7:55.397,171143,),0,0,0
7:55.461,171166,(,0,0,1
7:55.522,171188,N,0,0,0
7:55.556,171200,),0,0,1
7:55.711,171256,(,0,0,2
7:55.806,171290,t,0,0,0
7:55.911,171328,),0,0,2
7:57.644,171952,(,0,0,0
7:57.697,171971,p,0,0,0
7:57.747,171989,),0,0,0
7:57.817,172014,(,0,0,1
7:57.875,172035,N,0,0,0
7:57.903,172045,),0,0,1
7:58.053,172099,(,0,0,2
7:58.150,172134,t,0,0,0
7:58.261,172174,),0,0,2
7:58.861,172390,(,0,0,0
7:58.908,172407,p,0,0,0
7:58.961,172426,),0,0,0
7:59.033,172452,(,0,0,1
7:59.089,172472,N,0,0,0
7:59.119,172483,),0,0,1
7:59.275,172539,(,0,0,2
7:59.361,172570,t,0,0,0
7:59.467,172608,),0,0,2
7:59.894,172762,(,0,0,0
7:59.958,172785,p,0,0,0
8:00.069,172825,),0,0,0
8:00.200,172872,(,0,0,1
8:00.258,172893,N,0,0,0
8:00.289,172904,),0,0,1
8:00.439,172958,(,0,0,2
8:00.528,172990,t,0,0,0
8:00.622,173024,),0,0,2
8:01.167,173220,(,0,0,0
8:01.217,173238,p,0,0,0
8:01.275,173259,),0,0,0
8:01.342,173283,(,0,0,1
8:01.403,173305,N,0,0,0
8:01.431,173315,),0,0,1
8:01.572,173366,(,0,0,2
8:01.681,173405,t,0,0,0
8:01.775,173439,),0,0,2
8:02.339,173642,(,0,0,0
8:02.392,173661,p,0,0,0
8:02.444,173680,),0,0,0
8:02.514,173705,(,0,0,1
8:02.575,173727,N,0,0,0
8:02.600,173736,),0,0,1
8:02.747,173789,(,0,0,2
8:02.853,173827,t,0,0,0
8:02.956,173864,),0,0,2
8:03.686,174127,(,0,0,1
8:03.747,174149,N,0,0,0
8:03.781,174161,),0,0,1
8:03.928,174214,(,0,0,2
8:04.028,174250,t,0,0,0
8:04.136,174289,),0,0,2
8:06.081,174989,(,0,0,1
8:06.144,175012,N,0,0,0
8:06.175,175023,),0,0,1
8:06.322,175076,(,0,0,2
8:06.425,175113,t,0,0,0
8:06.536,175153,),0,0,2
8:07.136,175369,(,0,0,0
8:07.183,175386,p,0,0,0
8:07.233,175404,),0,0,0
8:07.306,175430,(,0,0,1
8:07.367,175452,N,0,0,0
8:07.394,175462,),0,0,1
8:07.550,175518,(,0,0,2
8:07.644,175552,t,0,0,0
8:07.744,175588,),0,0,2
8:08.344,175804,(,0,0,0
8:08.392,175821,p,0,0,0
8:08.444,175840,),0,0,0
8:08.508,175863,(,0,0,1
8:08.569,175885,N,0,0,0
8:08.597,175895,),0,0,1
8:08.731,175943,(,0,0,2
8:08.833,175980,t,0,0,0
8:08.936,176017,),0,0,2
8:09.503,176221,(,0,0,0
8:09.547,176237,p,0,0,0
8:09.603,176257,),0,0,0
8:09.669,176281,(,0,0,1
8:09.728,176302,N,0,0,0
8:09.758,176313,),0,0,1
8:09.903,176365,(,0,0,2
8:10.000,176400,t,0,0,0
8:10.106,176438,),0,0,2
8:10.561,176602,(,0,0,0
8:10.608,176619,p,0,0,0
8:10.706,176654,),0,0,0
8:10.836,176701,(,0,0,1
8:10.892,176721,N,0,0,0
8:10.925,176733,),0,0,1
8:11.064,176783,(,0,0,2
8:11.167,176820,t,0,0,0
8:11.272,176858,),0,0,2
8:11.806,177050,(,0,0,0
8:11.853,177067,p,0,0,0
8:11.906,177086,),0,0,0
8:11.975,177111,(,0,0,1
8:12.039,177134,N,0,0,0
8:12.067,177144,),0,0,1
8:12.217,177198,(,0,0,2
8:12.317,177234,t,0,0,0
8:12.419,177271,),0,0,2
8:12.964,177467,(,0,0,0
8:13.014,177485,p,0,0,0
8:13.067,177504,),0,0,0
8:13.136,177529,(,0,0,1
8:13.194,177550,N,0,0,0
8:13.225,177561,),0,0,1
8:13.364,177611,(,0,0,2
8:13.472,177650,t,0,0,0
8:13.569,177685,),0,0,2
8:14.108,177879,(,0,0,0
8:14.156,177896,p,0,0,0
8:14.208,177915,),0,0,0
8:14.275,177939,(,0,0,1
8:14.336,177961,N,0,0,0
8:14.367,177972,),0,0,1
8:14.514,178025,(,0,0,2
8:14.628,178066,t,0,0,0
8:14.733,178104,),0,0,2
8:15.267,178296,(,0,0,0
8:15.311,178312,p,0,0,0
8:15.369,178333,),0,0,0
8:15.433,178356,(,0,0,1
8:15.492,178377,N,0,0,0
8:15.522,178388,),0,0,1
8:15.675,178443,(,0,0,2
8:15.769,178477,t,0,0,0
8:15.875,178515,),0,0,2
8:16.444,178720,(,0,0,0
8:16.489,178736,p,0,0,0
8:16.544,178756,),0,0,0
8:16.603,178777,(,0,0,1
8:16.661,178798,N,0,0,0
8:16.694,178810,),0,0,1
8:16.831,178859,(,0,0,2
8:16.931,178895,t,0,0,0
8:17.028,178930,),0,0,2
8:20.172,180062,(,0,0,1
8:20.231,180083,N,0,0,0
8:20.261,180094,),0,0,1
8:20.408,180147,(,0,0,2
8:20.508,180183,t,0,0,0
8:20.611,180220,),0,0,2
8:21.358,180489,(,0,0,1
8:21.419,180511,N,0,0,0
8:21.447,180521,),0,0,1
8:21.594,180574,(,0,0,2
8:21.694,180610,t,0,0,0
8:21.794,180646,),0,0,2
8:22.372,180854,(,0,0,0
8:22.417,180870,p,0,0,0
8:22.472,180890,),0,0,0
8:22.542,180915,(,0,0,1
8:22.603,180937,N,0,0,0
8:22.636,180949,),0,0,1
8:22.789,181004,(,0,0,2
8:22.889,181040,t,0,0,0
8:22.994,181078,),0,0,2
8:23.600,181296,(,0,0,0
8:23.650,181314,p,0,0,0
8:23.703,181333,),0,0,0
8:23.772,181358,(,0,0,1
8:23.833,181380,N,0,0,0
8:23.861,181390,),0,0,1
8:24.011,181444,(,0,0,2
8:24.108,181479,t,0,0,0
8:24.217,181518,),0,0,2
8:24.800,181728,(,0,0,0
8:24.850,181746,p,0,0,0
8:24.894,181762,),0,0,0
8:24.961,181786,(,0,0,1
8:25.025,181809,N,0,0,0
8:25.058,181821,),0,0,1
8:25.203,181873,(,0,0,2
8:25.308,181911,t,0,0,0
8:25.417,181950,),0,0,2
8:27.247,182609,(,0,0,0
8:27.300,182628,p,0,0,0
8:27.347,182645,),0,0,0
8:27.419,182671,(,0,0,1
8:27.483,182694,N,0,0,0
8:27.514,182705,),0,0,1
8:27.661,182758,(,0,0,2
8:27.764,182795,t,0,0,0
8:27.881,182837,),0,0,2
8:28.506,183062,(,0,0,0
8:28.547,183077,p,0,0,0
8:28.594,183094,),0,0,0
8:28.661,183118,(,0,0,1
8:28.725,183141,N,0,0,0
8:28.753,183151,),0,0,1
8:28.903,183205,(,0,0,2
8:29.003,183241,t,0,0,0
8:29.100,183276,),0,0,2
8:29.728,183502,(,0,0,0
8:29.775,183519,p,0,0,0
8:29.822,183536,),0,0,0
8:29.906,183566,(,0,0,1
8:29.956,183584,N,0,0,0
8:29.989,183596,),0,0,1
8:30.128,183646,(,0,0,2
8:30.231,183683,t,0,0,0
8:30.339,183722,),0,0,2
8:30.953,183943,(,0,0,0
8:31.003,183961,p,0,0,0
8:31.056,183980,),0,0,0
8:31.125,184005,(,0,0,1
8:31.186,184027,N,0,0,0
8:31.211,184036,),0,0,1
8:31.358,184089,(,0,0,2
8:31.458,184125,t,0,0,0
8:31.564,184163,),0,0,2
8:33.361,184810,(,0,0,0
8:33.408,184827,p,0,0,0
8:33.461,184846,),0,0,0
8:33.544,184876,(,0,0,1
8:33.597,184895,N,0,0,0
8:33.631,184907,),0,0,1
8:33.767,184956,(,0,0,2
8:33.867,184992,t,0,0,0
8:33.975,185031,),0,0,2
8:35.633,185628,(,0,0,0
8:35.686,185647,p,0,0,0
8:35.808,185691,),0,0,0
8:35.947,185741,(,0,0,1
8:35.997,185759,N,0,0,0
8:36.036,185773,),0,0,1
8:36.189,185828,(,0,0,2
8:36.281,185861,t,0,0,0
8:36.389,185900,),0,0,2
8:38.158,186537,(,0,0,0
8:38.206,186554,p,0,0,0
8:38.258,186573,),0,0,0
8:38.339,186602,(,0,0,1
8:38.392,186621,N,0,0,0
8:38.428,186634,),0,0,1
8:38.581,186689,(,0,0,2
8:38.683,186726,t,0,0,0
8:38.789,186764,),0,0,2
8:39.358,186969,(,0,0,0
8:39.408,186987,p,0,0,0
8:39.461,187006,),0,0,0
8:39.542,187035,(,0,0,1
8:39.592,187053,N,0,0,0
8:39.625,187065,),0,0,1
8:39.778,187120,(,0,0,2
8:39.878,187156,t,0,0,0
8:39.978,187192,),0,0,2
8:40.447,187361,(,0,0,0
8:40.506,187382,p,0,0,0
8:40.581,187409,),0,0,0
8:40.722,187460,(,0,0,1
8:40.769,187477,N,0,0,0
8:40.803,187489,),0,0,1
8:40.939,187538,(,0,0,2
8:41.047,187577,t,0,0,0
8:41.153,187615,),0,0,2
8:41.583,187770,(,0,0,0
8:41.597,187775,p,0,0,0
8:41.744,187828,),0,0,0
8:41.881,187877,(,0,0,1
8:41.931,187895,N,0,0,0
8:41.964,187907,),0,0,1
8:42.103,187957,(,0,0,2
8:42.203,187993,t,0,0,0
8:42.314,188033,),0,0,2
8:42.872,188234,(,0,0,0
8:42.925,188253,p,0,0,0
8:42.972,188270,),0,0,0
8:43.053,188299,(,0,0,1
8:43.106,188318,N,0,0,0
8:43.142,188331,),0,0,1
8:43.283,188382,(,0,0,2
8:43.383,188418,t,0,0,0
8:43.486,188455,),0,0,2
8:44.058,188661,(,0,0,0
8:44.106,188678,p,0,0,0
8:44.161,188698,),0,0,0
8:44.236,188725,(,0,0,1
8:44.292,188745,N,0,0,0
8:44.328,188758,),0,0,1
8:44.469,188809,(,0,0,2
8:44.567,188844,t,0,0,0
8:44.661,188878,),0,0,2
8:45.189,189068,(,0,0,0
8:45.242,189087,p,0,0,0
8:45.292,189105,),0,0,0
8:45.369,189133,(,0,0,1
8:45.419,189151,N,0,0,0
8:45.450,189162,),0,0,1
8:45.594,189214,(,0,0,2
8:45.694,189250,t,0,0,0
8:45.800,189288,),0,0,2
8:46.356,189488,(,0,0,0
8:46.403,189505,p,0,0,0
8:46.458,189525,),0,0,0
8:46.536,189553,(,0,0,1
8:46.589,189572,N,0,0,0
8:46.622,189584,),0,0,1
8:46.772,189638,(,0,0,2
8:46.878,189676,t,0,0,0
8:46.978,189712,),0,0,2
8:47.492,189897,(,0,0,0
8:47.536,189913,p,0,0,0
8:47.581,189929,),0,0,0
8:47.664,189959,(,0,0,1
8:47.711,189976,N,0,0,0
8:47.747,189989,),0,0,1
8:47.889,190040,(,0,0,2
8:47.994,190078,t,0,0,0
8:48.103,190117,),0,0,2
8:49.953,190783,(,0,0,1
8:50.003,190801,N,0,0,0
8:50.042,190815,),0,0,1
8:50.167,190860,(,0,0,2
8:50.278,190900,t,0,0,0
8:50.378,190936,),0,0,2
8:53.414,192029,(,0,0,1
8:53.467,192048,N,0,0,0
8:53.506,192062,),0,0,1
8:53.633,192108,(,0,0,2
8:53.744,192148,t,0,0,0
8:53.836,192181,),0,0,2
8:54.414,192389,(,0,0,0
8:54.461,192406,p,0,0,0
8:54.519,192427,),0,0,0
8:54.600,192456,(,0,0,1
8:54.650,192474,N,0,0,0
8:54.683,192486,),0,0,1
8:54.828,192538,(,0,0,2
8:54.933,192576,t,0,0,0
8:55.039,192614,),0,0,2
8:55.594,192814,(,0,0,0
8:55.644,192832,p,0,0,0
8:55.694,192850,),0,0,0
8:55.778,192880,(,0,0,1
8:55.828,192898,N,0,0,0
8:55.864,192911,),0,0,1
8:56.000,192960,(,0,0,2
8:56.111,193000,t,0,0,0
8:56.211,193036,),0,0,2
8:56.742,193227,(,0,0,0
8:56.792,193245,p,0,0,0
8:56.839,193262,),0,0,0
8:56.922,193292,(,0,0,1
8:56.975,193311,N,0,0,0
8:57.008,193323,),0,0,1
8:57.158,193377,(,0,0,2
8:57.258,193413,t,0,0,0
8:57.364,193451,),0,0,2
8:57.928,193654,(,0,0,0
8:57.978,193672,p,0,0,0
8:58.025,193689,),0,0,0
8:58.108,193719,(,0,0,1
8:58.161,193738,N,0,0,0
8:58.194,193750,),0,0,1
8:58.336,193801,(,0,0,2
8:58.439,193838,t,0,0,0
8:58.556,193880,),0,0,2
8:59.097,194075,(,0,0,0
8:59.150,194094,p,0,0,0
8:59.206,194114,),0,0,0
8:59.278,194140,(,0,0,1
8:59.331,194159,N,0,0,0
8:59.361,194170,),0,0,1
8:59.506,194222,(,0,0,2
8:59.608,194259,t,0,0,0
8:59.714,194297,),0,0,2
9:00.294,194506,(,0,0,0
9:00.339,194522,p,0,0,0
9:00.397,194543,),0,0,0
9:00.469,194569,(,0,0,1
9:00.519,194587,N,0,0,0
9:00.553,194599,),0,0,1
9:00.692,194649,(,0,0,2
9:00.800,194688,t,0,0,0
9:00.897,194723,),0,0,2
9:01.628,194986,(,0,0,1
9:01.675,195003,N,0,0,0
9:01.711,195016,),0,0,1
9:01.842,195063,(,0,0,2
9:01.947,195101,t,0,0,0
9:02.050,195138,),0,0,2
9:02.653,195355,(,0,0,0
9:02.700,195372,p,0,0,0
9:02.769,195397,),0,0,0
9:02.836,195421,(,0,0,1
9:02.886,195439,N,0,0,0
9:02.919,195451,),0,0,1
9:03.061,195502,(,0,0,2
9:03.161,195538,t,0,0,0
9:03.267,195576,),0,0,2
9:12.264,198815,(,0,0,1
9:12.342,198843,N,0,0,0
9:12.372,198854,),0,0,1
9:12.506,198902,(,0,0,2
9:12.614,198941,t,0,0,0
9:12.711,198976,),0,0,2
9:13.494,199258,(,0,0,1
9:13.553,199279,N,0,0,0
9:13.581,199289,),0,0,1
9:13.719,199339,(,0,0,2
9:13.822,199376,t,0,0,0
9:13.928,199414,),0,0,2
9:14.672,199682,(,0,0,1
9:14.753,199711,N,0,0,0
9:14.786,199723,),0,0,1
9:14.928,199774,(,0,0,2
9:15.033,199812,t,0,0,0
9:15.136,199849,),0,0,2
9:15.864,200111,(,0,0,1
9:15.944,200140,N,0,0,0
9:15.975,200151,),0,0,1
9:16.117,200202,(,0,0,2
9:16.222,200240,t,0,0,0
9:16.314,200273,),0,0,2
9:17.069,200545,(,0,0,1
9:17.144,200572,N,0,0,0
9:17.172,200582,),0,0,1
9:17.317,200634,(,0,0,2
9:17.425,200673,t,0,0,0
9:17.528,200710,),0,0,2
9:18.269,200977,(,0,0,1
9:18.344,201004,N,0,0,0
9:18.372,201014,),0,0,1
9:18.525,201069,(,0,0,2
9:18.625,201105,t,0,0,0
9:18.733,201144,),0,0,2
9:19.467,201408,(,0,0,1
9:19.553,201439,N,0,0,0
9:19.578,201448,),0,0,1
9:19.736,201505,(,0,0,2
9:19.836,201541,t,0,0,0
9:19.939,201578,),0,0,2
9:20.669,201841,(,0,0,1
9:20.747,201869,N,0,0,0
9:20.778,201880,),0,0,1
9:20.922,201932,(,0,0,2
9:21.028,201970,t,0,0,0
9:21.128,202006,),0,0,2
9:21.869,202273,(,0,0,1
9:21.925,202293,N,0,0,0
9:21.956,202304,),0,0,1
9:22.108,202359,(,0,0,2
9:22.208,202395,t,0,0,0
9:22.308,202431,),0,0,2
9:23.036,202693,(,0,0,1
9:23.119,202723,N,0,0,0
9:23.150,202734,),0,0,1
9:23.297,202787,(,0,0,2
9:23.403,202825,t,0,0,0
9:23.503,202861,),0,0,2
9:24.236,203125,(,0,0,1
9:24.294,203146,N,0,0,0
9:24.328,203158,),0,0,1
9:24.453,203203,(,0,0,2
9:24.569,203245,t,0,0,0
9:24.672,203282,),0,0,2
9:25.406,203546,(,0,0,1
9:25.475,203571,N,0,0,0
9:25.500,203580,),0,0,1
9:25.647,203633,(,0,0,2
9:25.747,203669,t,0,0,0
9:25.850,203706,),0,0,2
9:26.567,203964,(,0,0,1
9:26.653,203995,N,0,0,0
9:26.683,204006,),0,0,1
9:26.825,204057,(,0,0,2
9:26.928,204094,t,0,0,0
9:27.031,204131,),0,0,2
9:27.736,204385,(,0,0,1
9:27.822,204416,N,0,0,0
9:27.850,204426,),0,0,1
9:27.986,204475,(,0,0,2
9:28.086,204511,t,0,0,0
9:28.183,204546,),0,0,2
9:28.717,204738,(,0,0,0
9:28.733,204744,p,0,0,0
9:28.769,204757,),0,0,0
9:28.906,204806,(,0,0,1
9:28.964,204827,N,0,0,0
9:28.997,204839,),0,0,1
9:29.142,204891,(,0,0,2
9:29.242,204927,t,0,0,0
9:29.347,204965,),0,0,2
9:30.075,205227,(,0,0,1
9:30.136,205249,N,0,0,0
9:30.164,205259,),0,0,1
9:30.308,205311,(,0,0,2
9:30.414,205349,t,0,0,0
9:30.519,205387,),0,0,2
9:31.208,205635,(,0,0,1
9:31.294,205666,N,0,0,0
9:31.328,205678,),0,0,1
9:31.486,205735,(,0,0,2
9:31.586,205771,t,0,0,0
9:31.686,205807,),0,0,2
9:32.375,206055,(,0,0,1
9:32.436,206077,N,0,0,0
9:32.469,206089,),0,0,1
9:32.614,206141,(,0,0,2
9:32.717,206178,t,0,0,0
9:32.825,206217,),0,0,2
9:33.506,206462,(,0,0,1
9:33.583,206490,N,0,0,0
9:33.611,206500,),0,0,1
9:33.758,206553,(,0,0,2
9:33.867,206592,t,0,0,0
9:33.978,206632,),0,0,2
9:34.683,206886,(,0,0,1
9:34.750,206910,N,0,0,0
9:34.781,206921,),0,0,1
9:34.922,206972,(,0,0,2
9:35.022,207008,t,0,0,0
9:35.122,207044,),0,0,2
9:35.842,207303,(,0,0,1
9:35.906,207326,N,0,0,0
9:35.933,207336,),0,0,1
9:36.056,207380,(,0,0,2
9:36.175,207423,t,0,0,0
9:36.275,207459,),0,0,2
9:37.008,207723,(,0,0,1
9:37.081,207749,N,0,0,0
9:37.111,207760,),0,0,1
9:37.253,207811,(,0,0,2
9:37.353,207847,t,0,0,0
9:37.450,207882,),0,0,2
9:38.178,208144,(,0,0,1
9:38.239,208166,N,0,0,0
9:38.267,208176,),0,0,1
9:38.419,208231,(,0,0,2
9:38.517,208266,t,0,0,0
9:38.619,208303,),0,0,2
9:39.383,208578,(,0,0,1
9:39.456,208604,N,0,0,0
9:39.486,208615,),0,0,1
9:39.642,208671,(,0,0,2
9:39.742,208707,t,0,0,0
9:39.842,208743,),0,0,2
9:40.553,208999,(,0,0,1
9:40.628,209026,N,0,0,0
9:40.658,209037,),0,0,1
9:40.806,209090,(,0,0,2
9:40.906,209126,t,0,0,0
9:41.006,209162,),0,0,2
9:41.747,209429,(,0,0,1
9:41.836,209461,N,0,0,0
9:41.869,209473,),0,0,1
9:42.014,209525,(,0,0,2
9:42.122,209564,t,0,0,0
9:42.222,209600,),0,0,2
9:42.983,209874,(,0,0,1
9:43.056,209900,N,0,0,0
9:43.089,209912,),0,0,1
9:43.231,209963,(,0,0,2
9:43.342,210003,t,0,0,0
9:43.436,210037,),0,0,2
9:44.175,210303,(,0,0,1
9:44.261,210334,N,0,0,0
9:44.286,210343,),0,0,1
9:44.442,210399,(,0,0,2
9:44.542,210435,t,0,0,0
9:44.642,210471,),0,0,2
9:45.381,210737,(,0,0,1
9:45.467,210768,N,0,0,0
9:45.500,210780,),0,0,1
9:45.647,210833,(,0,0,2
9:45.750,210870,t,0,0,0
9:45.850,210906,),0,0,2
9:46.583,211170,(,0,0,1
9:46.639,211190,N,0,0,0
9:46.669,211201,),0,0,1
9:46.814,211253,(,0,0,2
9:46.922,211292,t,0,0,0
9:47.019,211327,),0,0,2
9:47.781,211601,(,0,0,1
9:47.842,211623,N,0,0,0
9:47.872,211634,),0,0,1
9:48.014,211685,(,0,0,2
9:48.114,211721,t,0,0,0
9:48.222,211760,),0,0,2
9:48.950,212022,(,0,0,1
9:49.036,212053,N,0,0,0
9:49.067,212064,),0,0,1
9:49.214,212117,(,0,0,2
9:49.311,212152,t,0,0,0
9:49.414,212189,),0,0,2
9:50.186,212467,(,0,0,1
9:50.250,212490,N,0,0,0
9:50.278,212500,),0,0,1
9:50.425,212553,(,0,0,2
9:50.528,212590,t,0,0,0
9:50.628,212626,),0,0,2
9:51.422,212912,(,0,0,1
9:51.483,212934,N,0,0,0
9:51.514,212945,),0,0,1
9:51.656,212996,(,0,0,2
9:51.761,213034,t,0,0,0
9:51.861,213070,),0,0,2
9:52.586,213331,(,0,0,1
9:52.664,213359,N,0,0,0
9:52.692,213369,),0,0,1
9:52.853,213427,(,0,0,2
9:52.950,213462,t,0,0,0
9:53.053,213499,),0,0,2
9:53.825,213777,(,0,0,1
9:53.886,213799,N,0,0,0
9:53.914,213809,),0,0,1
9:54.067,213864,(,0,0,2
9:54.164,213899,t,0,0,0
9:54.267,213936,),0,0,2
9:55.028,214210,(,0,0,1
9:55.092,214233,N,0,0,0
9:55.122,214244,),0,0,1
9:55.269,214297,(,0,0,2
9:55.375,214335,t,0,0,0
9:55.489,214376,),0,0,2
9:56.253,214651,(,0,0,1
9:56.331,214679,N,0,0,0
9:56.358,214689,),0,0,1
9:56.519,214747,(,0,0,2
9:56.611,214780,t,0,0,0
9:56.719,214819,),0,0,2
9:57.450,215082,(,0,0,1
9:57.539,215114,N,0,0,0
9:57.569,215125,),0,0,1
9:57.722,215180,(,0,0,2
9:57.825,215217,t,0,0,0
9:57.931,215255,),0,0,2
9:58.692,215529,(,0,0,1
9:58.747,215549,N,0,0,0
9:58.775,215559,),0,0,1
9:58.925,215613,(,0,0,2
9:59.022,215648,t,0,0,0
9:59.125,215685,),0,0,2
9:59.853,215947,(,0,0,1
9:59.942,215979,N,0,0,0
9:59.972,215990,),0,0,1
10:00.106,216038,(,0,0,2
10:00.211,216076,t,0,0,0
10:00.308,216111,),0,0,2
10:01.022,216368,(,0,0,1
10:01.108,216399,N,0,0,0
10:01.142,216411,),0,0,1
10:01.286,216463,(,0,0,2
10:01.383,216498,t,0,0,0
10:01.478,216532,),0,0,2
10:02.219,216799,(,0,0,1
10:02.300,216828,N,0,0,0
10:02.328,216838,),0,0,1
10:02.481,216893,(,0,0,2
10:02.583,216930,t,0,0,0
10:02.678,216964,),0,0,2
10:03.425,217233,(,0,0,1
10:03.483,217254,N,0,0,0
10:03.517,217266,),0,0,1
10:03.661,217318,(,0,0,2
10:03.767,217356,t,0,0,0
10:03.869,217393,),0,0,2
10:04.589,217652,(,0,0,1
10:04.658,217677,N,0,0,0
10:04.686,217687,),0,0,1
10:04.839,217742,(,0,0,2
10:04.939,217778,t,0,0,0
10:05.036,217813,),0,0,2
10:05.794,218086,(,0,0,1
10:05.864,218111,N,0,0,0
10:05.894,218122,),0,0,1
10:06.044,218176,(,0,0,2
10:06.150,218214,t,0,0,0
10:06.256,218252,),0,0,2
10:06.989,218516,(,0,0,1
10:07.047,218537,N,0,0,0
10:07.081,218549,),0,0,1
10:07.236,218605,(,0,0,2
10:07.333,218640,t,0,0,0
10:07.433,218676,),0,0,2
10:08.158,218937,(,0,0,1
10:08.244,218968,N,0,0,0
10:08.278,218980,),0,0,1
10:08.436,219037,(,0,0,2
10:08.525,219069,t,0,0,0
10:08.625,219105,),0,0,2
10:09.364,219371,(,0,0,1
10:09.422,219392,N,0,0,0
10:09.456,219404,),0,0,1
10:09.603,219457,(,0,0,2
10:09.703,219493,t,0,0,0
10:09.811,219532,),0,0,2
10:10.561,219802,(,0,0,1
10:10.622,219824,N,0,0,0
10:10.650,219834,),0,0,1
10:10.800,219888,(,0,0,2
10:10.906,219926,t,0,0,0
10:11.006,219962,),0,0,2
10:11.761,220234,(,0,0,1
10:11.828,220258,N,0,0,0
10:11.858,220269,),0,0,1
10:11.997,220319,(,0,0,2
10:12.106,220358,t,0,0,0
10:12.203,220393,),0,0,2
10:12.928,220654,(,0,0,1
10:12.986,220675,N,0,0,0
10:13.014,220685,),0,0,1
10:13.164,220739,(,0,0,2
10:13.258,220773,t,0,0,0
10:13.358,220809,),0,0,2
10:14.092,221073,(,0,0,1
10:14.183,221106,N,0,0,0
10:14.217,221118,),0,0,1
10:14.361,221170,(,0,0,2
10:14.467,221208,t,0,0,0
10:14.569,221245,),0,0,2
10:15.261,221494,(,0,0,1
10:15.350,221526,N,0,0,0
10:15.383,221538,),0,0,1
10:15.519,221587,(,0,0,2
10:15.631,221627,t,0,0,0
10:15.739,221666,),0,0,2
10:16.464,221927,(,0,0,1
10:16.525,221949,N,0,0,0
10:16.556,221960,),0,0,1
10:16.703,222013,(,0,0,2
10:16.811,222052,t,0,0,0
10:16.911,222088,),0,0,2
10:17.631,222347,(,0,0,1
10:17.706,222374,N,0,0,0
10:17.733,222384,),0,0,1
10:17.872,222434,(,0,0,2
10:17.983,222474,t,0,0,0
10:18.083,222510,),0,0,2
10:18.831,222779,(,0,0,1
10:18.892,222801,N,0,0,0
10:18.919,222811,),0,0,1
10:19.072,222866,(,0,0,2
10:19.175,222903,t,0,0,0
10:19.278,222940,),0,0,2
10:20.028,223210,(,0,0,1
10:20.103,223237,N,0,0,0
10:20.133,223248,),0,0,1
10:20.275,223299,(,0,0,2
10:20.378,223336,t,0,0,0
10:20.478,223372,),0,0,2
10:21.164,223619,(,0,0,1
10:21.250,223650,N,0,0,0
10:21.281,223661,),0,0,1
10:21.414,223709,(,0,0,2
10:21.531,223751,t,0,0,0
10:21.631,223787,),0,0,2
10:22.397,224063,(,0,0,1
10:22.472,224090,N,0,0,0
10:22.500,224100,),0,0,1
10:22.644,224152,(,0,0,2
10:22.753,224191,t,0,0,0
10:22.847,224225,),0,0,2
10:23.567,224484,(,0,0,1
10:23.636,224509,N,0,0,0
10:23.664,224519,),0,0,1
10:23.806,224570,(,0,0,2
10:23.906,224606,t,0,0,0
10:24.008,224643,),0,0,2
10:24.731,224903,(,0,0,1
10:24.803,224929,N,0,0,0
10:24.831,224939,),0,0,1
10:24.981,224993,(,0,0,2
10:25.078,225028,t,0,0,0
10:25.178,225064,),0,0,2
10:25.933,225336,(,0,0,1
10:25.994,225358,N,0,0,0
10:26.025,225369,),0,0,1
10:26.172,225422,(,0,0,2
10:26.275,225459,t,0,0,0
10:26.375,225495,),0,0,2
10:27.133,225768,(,0,0,1
10:27.194,225790,N,0,0,0
10:27.225,225801,),0,0,1
10:27.369,225853,(,0,0,2
10:27.478,225892,t,0,0,0
10:27.583,225930,),0,0,2
10:28.336,226201,(,0,0,1
10:28.400,226224,N,0,0,0
10:28.431,226235,),0,0,1
10:28.586,226291,(,0,0,2
10:28.675,226323,t,0,0,0
10:28.781,226361,),0,0,2
10:29.506,226622,(,0,0,1
10:29.575,226647,N,0,0,0
10:29.606,226658,),0,0,1
10:29.744,226708,(,0,0,2
10:29.861,226750,t,0,0,0
10:29.972,226790,),0,0,2
10:30.700,227052,(,0,0,1
10:30.786,227083,N,0,0,0
10:30.817,227094,),0,0,1
10:30.958,227145,(,0,0,2
10:31.067,227184,t,0,0,0
10:31.172,227222,),0,0,2
10:31.939,227498,(,0,0,1
10:32.014,227525,N,0,0,0
10:32.044,227536,),0,0,1
10:32.178,227584,(,0,0,2
10:32.289,227624,t,0,0,0
10:32.397,227663,),0,0,2
10:33.108,227919,(,0,0,1
10:33.175,227943,N,0,0,0
10:33.203,227953,),0,0,1
10:33.358,228009,(,0,0,2
10:33.456,228044,t,0,0,0
10:33.564,228083,),0,0,2
10:34.306,228350,(,0,0,1
10:34.364,228371,N,0,0,0
10:34.392,228381,),0,0,1
10:34.553,228439,(,0,0,2
10:34.642,228471,t,0,0,0
10:34.750,228510,),0,0,2
10:35.478,228772,(,0,0,1
10:35.558,228801,N,0,0,0
10:35.589,228812,),0,0,1
10:35.733,228864,(,0,0,2
10:35.831,228899,t,0,0,0
10:35.939,228938,),0,0,2
10:36.669,229201,(,0,0,1
10:36.731,229223,N,0,0,0
10:36.758,229233,),0,0,1
10:36.908,229287,(,0,0,2
10:37.006,229322,t,0,0,0
10:37.106,229358,),0,0,2
10:37.839,229622,(,0,0,1
10:37.928,229654,N,0,0,0
10:37.961,229666,),0,0,1
10:38.114,229721,(,0,0,2
10:38.217,229758,t,0,0,0
10:38.319,229795,),0,0,2
10:39.044,230056,(,0,0,1
10:39.122,230084,N,0,0,0
10:39.153,230095,),0,0,1
10:39.308,230151,(,0,0,2
10:39.397,230183,t,0,0,0
10:39.508,230223,),0,0,2
10:40.242,230487,(,0,0,1
10:40.319,230515,N,0,0,0
10:40.347,230525,),0,0,1
10:40.503,230581,(,0,0,2
10:40.606,230618,t,0,0,0
10:40.711,230656,),0,0,2
10:41.475,230931,(,0,0,1
10:41.536,230953,N,0,0,0
10:41.569,230965,),0,0,1
10:41.708,231015,(,0,0,2
10:41.817,231054,t,0,0,0
10:41.919,231091,),0,0,2
10:42.636,231349,(,0,0,1
10:42.694,231370,N,0,0,0
10:42.725,231381,),0,0,1
10:42.872,231434,(,0,0,2
10:42.978,231472,t,0,0,0
10:43.086,231511,),0,0,2
10:43.772,231758,(,0,0,1
10:43.861,231790,N,0,0,0
10:43.892,231801,),0,0,1
10:44.039,231854,(,0,0,2
10:44.131,231887,t,0,0,0
10:44.242,231927,),0,0,2
10:44.878,232156,(,0,0,1
10:44.947,232181,N,0,0,0
10:44.975,232191,),0,0,1
10:45.114,232241,(,0,0,2
10:45.222,232280,t,0,0,0
10:45.328,232318,),0,0,2
10:46.008,232563,(,0,0,1
10:46.069,232585,N,0,0,0
10:46.100,232596,),0,0,1
10:46.253,232651,(,0,0,2
10:46.347,232685,t,0,0,0
10:46.450,232722,),0,0,2
10:47.078,232948,(,0,0,1
10:47.156,232976,N,0,0,0
10:47.186,232987,),0,0,1
10:47.328,233038,(,0,0,2
10:47.428,233074,t,0,0,0
10:47.539,233114,),0,0,2
10:48.183,233346,(,0,0,1
10:48.247,233369,N,0,0,0
10:48.278,233380,),0,0,1
10:48.419,233431,(,0,0,2
10:48.531,233471,t,0,0,0
10:48.628,233506,),0,0,2
10:49.281,233741,(,0,0,1
10:49.361,233770,N,0,0,0
10:49.392,233781,),0,0,1
10:49.539,233834,(,0,0,2
10:49.633,233868,t,0,0,0
10:49.731,233903,),0,0,2
10:50.411,234148,(,0,0,1
10:50.467,234168,N,0,0,0
10:50.497,234179,),0,0,1
10:50.642,234231,(,0,0,2
10:50.750,234270,t,0,0,0
10:50.856,234308,),0,0,2
10:51.547,234557,(,0,0,1
10:51.619,234583,N,0,0,0
10:51.647,234593,),0,0,1
10:51.789,234644,(,0,0,2
10:51.889,234680,t,0,0,0
10:51.994,234718,),0,0,2
10:52.647,234953,(,0,0,1
10:52.725,234981,N,0,0,0
10:52.756,234992,),0,0,1
10:52.892,235041,(,0,0,2
10:53.003,235081,t,0,0,0
10:53.106,235118,),0,0,2
10:53.850,235386,(,0,0,1
10:53.908,235407,N,0,0,0
10:53.939,235418,),0,0,1
10:54.092,235473,(,0,0,2
10:54.192,235509,t,0,0,0
10:54.294,235546,),0,0,2
10:55.011,235804,(,0,0,1
10:55.081,235829,N,0,0,0
10:55.111,235840,),0,0,1
10:55.256,235892,(,0,0,2
10:55.356,235928,t,0,0,0
10:55.467,235968,),0,0,2
10:56.183,236226,(,0,0,1
10:56.258,236253,N,0,0,0
10:56.286,236263,),0,0,1
10:56.439,236318,(,0,0,2
10:56.539,236354,t,0,0,0
10:56.642,236391,),0,0,2
10:57.383,236658,(,0,0,1
10:57.442,236679,N,0,0,0
10:57.478,236692,),0,0,1
10:57.622,236744,(,0,0,2
10:57.719,236779,t,0,0,0
10:57.822,236816,),0,0,2
10:58.553,237079,(,0,0,1
10:58.617,237102,N,0,0,0
10:58.647,237113,),0,0,1
10:58.794,237166,(,0,0,2
10:58.897,237203,t,0,0,0
10:58.992,237237,),0,0,2
10:59.750,237510,(,0,0,1
10:59.811,237532,N,0,0,0
10:59.842,237543,),0,0,1
10:59.983,237594,(,0,0,2
11:00.092,237633,t,0,0,0
11:00.192,237669,),0,0,2
11:00.914,237929,(,0,0,1
11:00.972,237950,N,0,0,0
11:01.003,237961,),0,0,1
11:01.153,238015,(,0,0,2
11:01.250,238050,t,0,0,0
11:01.356,238088,),0,0,2
11:02.119,238363,(,0,0,1
11:02.181,238385,N,0,0,0
11:02.211,238396,),0,0,1
11:02.358,238449,(,0,0,2
11:02.456,238484,t,0,0,0
11:02.561,238522,),0,0,2
11:03.283,238782,(,0,0,1
11:03.358,238809,N,0,0,0
11:03.389,238820,),0,0,1
11:03.525,238869,(,0,0,2
11:03.625,238905,t,0,0,0
11:03.722,238940,),0,0,2
11:04.453,239203,(,0,0,1
11:04.542,239235,N,0,0,0
11:04.575,239247,),0,0,1
11:04.708,239295,(,0,0,2
11:04.819,239335,t,0,0,0
11:04.919,239371,),0,0,2
11:05.661,239638,(,0,0,1
11:05.719,239659,N,0,0,0
11:05.750,239670,),0,0,1
11:05.889,239720,(,0,0,2
11:05.997,239759,t,0,0,0
11:06.097,239795,),0,0,2
11:06.819,240055,(,0,0,1
11:06.906,240086,N,0,0,0
11:06.936,240097,),0,0,1
11:07.078,240148,(,0,0,2
11:07.189,240188,t,0,0,0
11:07.292,240225,),0,0,2
11:08.022,240488,(,0,0,1
11:08.083,240510,N,0,0,0
11:08.111,240520,),0,0,1
11:08.253,240571,(,0,0,2
11:08.356,240608,t,0,0,0
11:08.458,240645,),0,0,2
11:09.156,240896,(,0,0,1
11:09.231,240923,N,0,0,0
11:09.264,240935,),0,0,1
11:09.419,240991,(,0,0,2
11:09.525,241029,t,0,0,0
11:09.628,241066,),0,0,2
11:10.350,241326,(,0,0,1
11:10.417,241350,N,0,0,0
11:10.450,241362,),0,0,1
11:10.597,241415,(,0,0,2
11:10.700,241452,t,0,0,0
11:10.797,241487,),0,0,2
11:11.483,241734,(,0,0,1
11:11.553,241759,N,0,0,0
11:11.581,241769,),0,0,1
11:11.728,241822,(,0,0,2
11:11.828,241858,t,0,0,0
11:11.936,241897,),0,0,2
11:12.658,242157,(,0,0,1
11:12.733,242184,N,0,0,0
11:12.758,242193,),0,0,1
11:12.914,242249,(,0,0,2
11:13.011,242284,t,0,0,0
11:13.117,242322,),0,0,2
11:13.819,242575,(,0,0,1
11:13.889,242600,N,0,0,0
11:13.922,242612,),0,0,1
11:14.064,242663,(,0,0,2
11:14.167,242700,t,0,0,0
11:14.269,242737,),0,0,2
11:15.047,243017,(,0,0,1
11:15.114,243041,N,0,0,0
11:15.144,243052,),0,0,1
11:15.278,243100,(,0,0,2
11:15.386,243139,t,0,0,0
11:15.483,243174,),0,0,2
11:16.225,243441,(,0,0,1
11:16.294,243466,N,0,0,0
11:16.325,243477,),0,0,1
11:16.467,243528,(,0,0,2
11:16.572,243566,t,0,0,0
11:16.669,243601,),0,0,2
11:17.422,243872,(,0,0,1
11:17.503,243901,N,0,0,0
11:17.536,243913,),0,0,1
11:17.681,243965,(,0,0,2
11:17.786,244003,t,0,0,0
11:17.883,244038,),0,0,2
11:18.658,244317,(,0,0,1
11:18.722,244340,N,0,0,0
11:18.753,244351,),0,0,1
11:18.897,244403,(,0,0,2
11:19.006,244442,t,0,0,0
11:19.100,244476,),0,0,2
11:19.825,244737,(,0,0,1
11:19.883,244758,N,0,0,0
11:19.914,244769,),0,0,1
11:20.064,244823,(,0,0,2
11:20.169,244861,t,0,0,0
11:20.275,244899,),0,0,2
11:21.028,245170,(,0,0,1
11:21.092,245193,N,0,0,0
11:21.117,245202,),0,0,1
11:21.267,245256,(,0,0,2
11:21.369,245293,t,0,0,0
11:21.469,245329,),0,0,2
11:22.219,245599,(,0,0,1
11:22.292,245625,N,0,0,0
11:22.322,245636,),0,0,1
11:22.456,245684,(,0,0,2
11:22.572,245726,t,0,0,0
11:22.675,245763,),0,0,2
11:23.394,246022,(,0,0,1
11:23.478,246052,N,0,0,0
11:23.511,246064,),0,0,1
11:23.656,246116,(,0,0,2
11:23.756,246152,t,0,0,0
11:23.861,246190,),0,0,2
11:24.592,246453,(,0,0,1
11:24.667,246480,N,0,0,0
11:24.697,246491,),0,0,1
11:24.853,246547,(,0,0,2
11:24.944,246580,t,0,0,0
11:25.042,246615,),0,0,2
11:25.792,246885,(,0,0,1
11:25.847,246905,N,0,0,0
11:25.875,246915,),0,0,1
11:26.011,246964,(,0,0,2
11:26.122,247004,t,0,0,0
11:26.225,247041,),0,0,2
11:26.994,247318,(,0,0,1
11:27.058,247341,N,0,0,0
11:27.089,247352,),0,0,1
11:27.228,247402,(,0,0,2
11:27.331,247439,t,0,0,0
11:27.425,247473,),0,0,2
11:28.164,247739,(,0,0,1
11:28.225,247761,N,0,0,0
11:28.253,247771,),0,0,1
11:28.394,247822,(,0,0,2
11:28.494,247858,t,0,0,0
11:28.600,247896,),0,0,2
11:30.531,248591,(,0,0,1
11:30.614,248621,N,0,0,0
11:30.647,248633,),0,0,1
11:30.800,248688,(,0,0,2
11:30.897,248723,t,0,0,0
11:31.006,248762,),0,0,2
11:34.100,249876,(,0,0,1
11:34.167,249900,N,0,0,0
11:34.197,249911,),0,0,1
11:34.344,249964,(,0,0,2
11:34.450,250002,t,0,0,0
11:34.553,250039,),0,0,2
11:36.467,250728,(,0,0,1
11:36.539,250754,N,0,0,0
11:36.567,250764,),0,0,1
11:36.708,250815,(,0,0,2
11:36.808,250851,t,0,0,0
11:36.917,250890,),0,0,2
11:38.836,251581,(,0,0,1
11:38.919,251611,N,0,0,0
11:38.953,251623,),0,0,1
11:39.092,251673,(,0,0,2
11:39.189,251708,t,0,0,0
11:39.294,251746,),0,0,2
11:40.036,252013,(,0,0,1
11:40.097,252035,N,0,0,0
11:40.128,252046,),0,0,1
11:40.269,252097,(,0,0,2
11:40.372,252134,t,0,0,0
11:40.469,252169,),0,0,2
11:41.233,252444,(,0,0,1
11:41.317,252474,N,0,0,0
11:41.350,252486,),0,0,1
11:41.489,252536,(,0,0,2
11:41.600,252576,t,0,0,0
11:41.706,252614,),0,0,2
11:42.436,252877,(,0,0,1
11:42.494,252898,N,0,0,0
11:42.525,252909,),0,0,1
11:42.669,252961,(,0,0,2
11:42.781,253001,t,0,0,0
11:42.881,253037,),0,0,2
11:43.633,253308,(,0,0,1
11:43.711,253336,N,0,0,0
11:43.742,253347,),0,0,1
11:43.892,253401,(,0,0,2
11:44.000,253440,t,0,0,0
11:44.106,253478,),0,0,2
11:44.806,253730,(,0,0,1
11:44.872,253754,N,0,0,0
11:44.900,253764,),0,0,1
11:45.047,253817,(,0,0,2
11:45.147,253853,t,0,0,0
11:45.256,253892,),0,0,2
11:45.969,254149,(,0,0,1
11:46.058,254181,N,0,0,0
11:46.089,254192,),0,0,1
11:46.244,254248,(,0,0,2
11:46.339,254282,t,0,0,0
11:46.444,254320,),0,0,2
11:47.131,254567,(,0,0,1
11:47.219,254599,N,0,0,0
11:47.253,254611,),0,0,1
11:47.383,254658,(,0,0,2
11:47.494,254698,t,0,0,0
11:47.594,254734,),0,0,2
11:48.306,254990,(,0,0,1
11:48.372,255014,N,0,0,0
11:48.400,255024,),0,0,1
11:48.547,255077,(,0,0,2
11:48.647,255113,t,0,0,0
11:48.747,255149,),0,0,2
11:49.508,255423,(,0,0,1
11:49.564,255443,N,0,0,0
11:49.594,255454,),0,0,1
11:49.736,255505,(,0,0,2
11:49.842,255543,t,0,0,0
11:49.944,255580,),0,0,2
11:50.636,255829,(,0,0,1
11:50.714,255857,N,0,0,0
11:50.742,255867,),0,0,1
11:50.892,255921,(,0,0,2
11:50.989,255956,t,0,0,0
11:51.083,255990,),0,0,2
11:51.808,256251,(,0,0,1
11:51.878,256276,N,0,0,0
11:51.906,256286,),0,0,1
11:52.058,256341,(,0,0,2
11:52.161,256378,t,0,0,0
11:52.261,256414,),0,0,2
11:52.939,256658,(,0,0,1
11:53.019,256687,N,0,0,0
11:53.047,256697,),0,0,1
11:53.192,256749,(,0,0,2
11:53.297,256787,t,0,0,0
11:53.400,256824,),0,0,2
11:54.078,257068,(,0,0,1
11:54.142,257091,N,0,0,0
11:54.169,257101,),0,0,1
11:54.317,257154,(,0,0,2
11:54.425,257193,t,0,0,0
11:54.531,257231,),0,0,2
11:55.178,257464,(,0,0,1
11:55.261,257494,N,0,0,0
11:55.289,257504,),0,0,1
11:55.433,257556,(,0,0,2
11:55.536,257593,t,0,0,0
11:55.644,257632,),0,0,2
11:56.272,257858,(,0,0,1
11:56.331,257879,N,0,0,0
11:56.361,257890,),0,0,1
11:56.514,257945,(,0,0,2
11:56.606,257978,t,0,0,0
11:56.697,258011,),0,0,2
11:57.314,258233,(,0,0,1
11:57.389,258260,N,0,0,0
11:57.422,258272,),0,0,1
11:57.581,258329,(,0,0,2
11:57.664,258359,t,0,0,5
11:57.883,258438,t,0,0,5
11:57.906,258446,),0,0,2
12:03.144,260332,(,0,0,1
12:03.222,260360,N,0,0,0
12:03.253,260371,),0,0,1
12:03.389,260420,(,0,0,2
12:03.469,260449,t,0,0,5
12:03.928,260614,t,0,0,5
12:03.969,260629,),0,0,2
12:05.844,261304,(,0,0,1
12:05.917,261330,N,0,0,0
12:05.947,261341,),0,0,1
12:06.008,261363,t,0,0,2
12:06.175,261423,),0,0,2
12:06.442,261519,(,0,0,1
12:06.511,261544,N,0,0,0
12:06.536,261553,),0,0,1
12:06.678,261604,(,0,0,2
12:06.772,261638,t,0,0,5
12:07.156,261776,t,0,0,5
12:07.319,261835,),0,0,2
12:12.206,263594,(,0,0,1
12:12.267,263616,N,0,0,0
12:12.292,263625,),0,0,1
12:12.422,263672,(,0,0,2
12:12.533,263712,t,0,0,5
12:12.964,263867,t,0,0,5
12:13.072,263906,),0,0,2
12:16.256,265052,(,0,0,1
12:16.328,265078,N,0,0,0
12:16.350,265086,),0,0,1
12:16.497,265139,(,0,0,2
12:16.594,265174,t,0,0,0
12:16.692,265209,),0,0,2
12:33.511,271264,(,0,0,0
12:33.525,271269,p,0,0,0
12:33.561,271282,),0,0,0
12:33.658,271317,(,0,0,1
12:33.744,271348,N,0,0,0
12:33.767,271356,),0,0,1
12:33.919,271411,(,0,0,2
12:34.019,271447,t,0,0,0
12:34.122,271484,),0,0,2
12:36.872,272474,(,0,0,1
12:36.939,272498,N,0,0,0
12:36.961,272506,),0,0,1
12:37.108,272559,(,0,0,2
12:37.211,272596,t,0,0,0
12:37.308,272631,),0,0,2
12:38.933,273216,(,0,0,1
12:38.997,273239,N,0,0,0
12:39.022,273248,),0,0,1
12:39.156,273296,(,0,0,2
12:39.256,273332,t,0,0,0
12:39.367,273372,),0,0,2
12:39.994,273598,(,0,0,1
12:40.064,273623,N,0,0,0
12:40.089,273632,),0,0,1
12:40.233,273684,(,0,0,2
12:40.331,273719,t,0,0,0
12:40.436,273757,),0,0,2
12:42.131,274367,(,0,0,1
12:42.217,274398,N,0,0,0
12:42.239,274406,),0,0,1
12:42.394,274462,(,0,0,2
12:42.494,274498,t,0,0,0
12:42.606,274538,),0,0,2
12:44.428,275194,(,0,0,1
12:44.503,275221,N,0,0,0
12:44.528,275230,),0,0,1
12:44.689,275288,(,0,0,2
12:44.783,275322,t,0,0,0
12:44.881,275357,),0,0,2
12:46.833,276060,(,0,0,1
12:46.906,276086,N,0,0,0
12:46.928,276094,),0,0,1
12:47.067,276144,(,0,0,2
12:47.169,276181,t,0,0,0
12:47.272,276218,),0,0,2
12:49.269,276937,(,0,0,1
12:49.336,276961,N,0,0,0
12:49.358,276969,),0,0,1
12:49.506,277022,(,0,0,2
12:49.606,277058,t,0,0,0
12:49.711,277096,),0,0,2
13:21.681,288605,(,0,0,1
13:21.733,288624,N,0,0,0
13:21.767,288636,),0,0,1
13:21.914,288689,(,0,0,2
13:22.008,288723,t,0,0,0
13:22.106,288758,),0,0,2
13:23.989,289436,(,0,0,1
13:24.042,289455,N,0,0,0
13:24.072,289466,),0,0,1
13:24.219,289519,(,0,0,2
13:24.319,289555,t,0,0,0
13:24.425,289593,),0,0,2
13:26.344,290284,(,0,0,1
13:26.394,290302,N,0,0,0
13:26.419,290311,),0,0,1
13:26.558,290361,(,0,0,2
13:26.667,290400,t,0,0,0
13:26.772,290438,),0,0,2
13:27.553,290719,(,0,0,1
13:27.606,290738,N,0,0,0
13:27.639,290750,),0,0,1
13:27.775,290799,(,0,0,2
13:27.881,290837,t,0,0,0
13:27.981,290873,),0,0,2
13:29.911,291568,(,0,0,1
13:29.964,291587,N,0,0,0
13:29.989,291596,),0,0,1
13:30.133,291648,(,0,0,2
13:30.233,291684,t,0,0,0
13:30.336,291721,),0,0,2
13:32.283,292422,(,0,0,1
13:32.339,292442,N,0,0,0
13:32.369,292453,),0,0,1
13:32.522,292508,(,0,0,2
13:32.619,292543,t,0,0,0
13:32.711,292576,),0,0,2
13:34.692,293289,(,0,0,1
13:34.744,293308,N,0,0,0
13:34.778,293320,),0,0,1
13:34.925,293373,(,0,0,2
13:35.028,293410,t,0,0,0
13:35.125,293445,),0,0,2
13:37.078,294148,(,0,0,1
13:37.131,294167,N,0,0,0
13:37.156,294176,),0,0,1
13:37.300,294228,(,0,0,2
13:37.411,294268,t,0,0,0
13:37.514,294305,),0,0,2
13:38.306,294590,(,0,0,1
13:38.356,294608,N,0,0,0
13:38.383,294618,),0,0,1
13:38.531,294671,(,0,0,2
13:38.631,294707,t,0,0,0
13:38.731,294743,),0,0,2
13:40.708,295455,(,0,0,1
13:40.758,295473,N,0,0,0
13:40.783,295482,),0,0,1
13:40.936,295537,(,0,0,2
13:41.033,295572,t,0,0,0
13:41.133,295608,),0,0,2
13:43.136,296329,(,0,0,1
13:43.186,296347,N,0,0,0
13:43.214,296357,),0,0,1
13:43.350,296406,(,0,0,2
13:43.458,296445,t,0,0,0
13:43.558,296481,),0,0,2
13:45.506,297182,(,0,0,1
13:45.558,297201,N,0,0,0
13:45.589,297212,),0,0,1
13:45.739,297266,(,0,0,2
13:45.839,297302,t,0,0,0
13:45.942,297339,),0,0,2
13:48.069,298105,(,0,0,1
13:48.192,298149,N,0,0,0
13:48.336,298201,),0,0,1
13:48.969,298429,),0,0,2
13:48.997,298439,t,0,0,0
13:49.025,298449,(,0,0,2
13:49.239,298526,(,0,0,1
13:49.367,298572,N,0,0,0
13:49.506,298622,),0,0,1
13:50.056,298820,(,0,0,2
13:50.106,298838,t,0,0,0
13:50.167,298860,),0,0,2
13:50.397,298943,(,0,0,1
13:50.553,298999,N,0,0,0
13:50.650,299034,),0,0,1
13:51.211,299236,(,0,0,2
13:51.269,299257,t,0,0,0
13:51.333,299280,),0,0,2
13:51.600,299376,(,0,0,1
13:51.719,299419,N,0,0,0
13:51.842,299463,),0,0,1
13:52.400,299664,(,0,0,2
13:52.453,299683,t,0,0,0
13:52.519,299707,),0,0,2
13:52.903,299845,(,0,0,1
13:52.917,299850,N,0,0,0
13:53.039,299894,),0,0,1
13:53.733,300144,(,0,0,2
13:53.761,300154,t,0,0,0
13:53.794,300166,),0,0,2
13:54.069,300265,(,0,0,1
13:54.083,300270,N,0,0,0
13:54.208,300315,),0,0,1
13:54.817,300534,(,0,0,2
13:54.897,300563,t,0,0,1
13:54.958,300585,),0,0,2
13:55.142,300651,(,0,0,1
13:55.261,300694,N,0,0,0
13:55.442,300759,),0,0,1
13:55.936,300937,(,0,0,2
13:55.989,300956,t,0,0,0
13:56.042,300975,),0,0,2
13:56.303,301069,(,0,0,1
13:56.456,301124,N,0,0,0
13:56.611,301180,),0,0,1
13:57.114,301361,(,0,0,2
13:57.167,301380,t,0,0,0
13:57.219,301399,),0,0,2
13:57.506,301502,(,0,0,1
13:57.628,301546,N,0,0,0
13:57.725,301581,),0,0,1
13:58.700,301932,(,0,0,1
13:58.797,301967,N,0,0,0
13:58.944,302020,),0,0,1
13:59.497,302219,(,0,0,2
13:59.586,302251,t,0,0,1
13:59.642,302271,),0,0,2
13:59.939,302378,(,0,0,1
13:59.956,302384,N,0,0,0
14:00.142,302451,),0,0,1
14:00.661,302638,(,0,0,2
14:00.742,302667,t,0,0,1
14:00.797,302687,),0,0,2
14:00.969,302749,(,0,0,1
14:01.103,302797,N,0,0,0
14:01.242,302847,),0,0,1
14:01.853,303067,),0,0,2
14:01.889,303080,t,0,0,0
14:01.925,303093,(,0,0,2
14:02.100,303156,(,0,0,1
14:02.264,303215,N,0,0,0
14:02.353,303247,),0,0,1
14:02.908,303447,(,0,0,2
14:02.967,303468,t,0,0,0
14:03.033,303492,),0,0,2
14:03.269,303577,(,0,0,1
14:03.419,303631,N,0,0,0
14:03.544,303676,),0,0,1
14:04.067,303864,(,0,0,2
14:04.119,303883,t,0,0,0
14:04.172,303902,),0,0,2
14:05.608,304419,(,0,0,1
14:05.733,304464,N,0,0,0
14:05.911,304528,),0,0,1
14:06.489,304736,),0,0,2
14:06.519,304747,t,0,0,0
14:06.550,304758,(,0,0,2
14:06.772,304838,(,0,0,1
14:06.903,304885,N,0,0,0
14:07.031,304931,),0,0,1
14:07.533,305112,(,0,0,2
14:07.592,305133,t,0,0,0
14:07.647,305153,),0,0,2
14:07.911,305248,(,0,0,1
14:08.033,305292,N,0,0,0
14:08.167,305340,),0,0,1
14:08.708,305535,(,0,0,2
14:08.761,305554,t,0,0,0
14:08.811,305572,),0,0,2
14:10.247,306089,(,0,0,1
14:10.372,306134,N,0,0,0
14:10.500,306180,),0,0,1
14:10.689,306248,(,0,0,2
14:10.722,306260,t,0,0,4
14:11.092,306393,t,0,0,4
14:11.158,306417,),0,0,2
14:11.475,306531,(,0,0,1
14:11.539,306554,N,0,0,0
14:11.717,306618,),0,0,1
14:12.208,306795,(,0,0,2
14:12.261,306814,t,0,0,5
14:12.358,306849,t,0,0,5
14:12.411,306868,),0,0,2
14:12.614,306941,(,0,0,1
14:12.722,306980,N,0,0,0
14:12.850,307026,),0,0,1
14:13.478,307252,),0,0,2
14:13.508,307263,t,0,0,0
14:13.536,307273,(,0,0,2
14:13.772,307358,(,0,0,1
14:13.875,307395,N,0,0,0
14:14.017,307446,),0,0,1
14:14.642,307671,),0,0,2
14:14.672,307682,t,0,0,0
14:14.700,307692,(,0,0,2
14:14.942,307779,(,0,0,1
14:15.042,307815,N,0,0,0
14:15.217,307878,),0,0,1
14:15.703,308053,(,0,0,2
14:15.797,308087,t,0,0,1
14:15.847,308105,),0,0,2
14:16.142,308211,(,0,0,1
14:16.161,308218,N,0,0,0
14:16.283,308262,),0,0,1
14:16.978,308512,(,0,0,2
14:17.008,308523,t,0,0,0
14:17.042,308535,),0,0,2
14:17.214,308597,(,0,0,1
14:17.328,308638,N,0,0,0
14:17.450,308682,),0,0,1
14:18.022,308888,(,0,0,2
14:18.097,308915,t,0,0,1
14:18.153,308935,),0,0,2
14:19.508,309423,(,0,0,1
14:19.667,309480,N,0,0,0
14:19.769,309517,),0,0,1
14:20.747,309869,(,0,0,1
14:20.858,309909,N,0,0,0
14:20.986,309955,),0,0,1
14:21.911,310288,(,0,0,1
14:22.047,310337,N,0,0,0
14:22.169,310381,),0,0,1
14:22.286,310423,(,0,0,2
14:22.531,310511,t,0,0,1
14:22.803,310609,),0,0,2
14:24.419,311191,(,0,0,1
14:24.436,311197,N,0,0,0
14:24.553,311239,),0,0,1
14:25.186,311467,(,0,0,2
14:25.267,311496,t,0,0,1
14:25.331,311519,),0,0,2
14:25.550,311598,(,0,0,1
14:25.647,311633,N,0,0,0
14:25.789,311684,),0,0,1
14:26.417,311910,),0,0,2
14:26.444,311920,t,0,0,0
14:26.472,311930,(,0,0,2
14:26.689,312008,(,0,0,1
14:26.811,312052,N,0,0,0
14:26.906,312086,),0,0,1
14:27.500,312300,(,0,0,2
14:27.553,312319,t,0,0,0
14:27.625,312345,),0,0,2
14:30.281,313301,(,0,0,1
14:30.411,313348,N,0,0,0
14:30.506,313382,),0,0,1
14:31.103,313597,(,0,0,2
14:31.167,313620,t,0,0,0
14:31.228,313642,),0,0,2
14:31.556,313760,(,0,0,1
14:31.614,313781,N,0,0,0
14:31.756,313832,),0,0,1
14:32.267,314016,(,0,0,2
14:32.322,314036,t,0,0,0
14:32.392,314061,),0,0,2
14:32.656,314156,(,0,0,1
14:32.778,314200,N,0,0,0
14:32.922,314252,),0,0,1
14:33.814,314573,(,0,0,1
14:34.003,314641,N,0,0,0
14:34.106,314678,),0,0,1
14:34.208,314715,(,0,0,2
14:34.439,314798,t,0,0,1
14:34.708,314895,),0,0,2
14:35.022,315008,(,0,0,1
14:35.172,315062,N,0,0,0
14:35.294,315106,),0,0,1
14:35.389,315140,(,0,0,2
14:35.522,315188,t,0,0,4
14:35.894,315322,t,0,0,4
14:35.967,315348,),0,0,2
14:36.353,315487,(,0,0,1
14:36.372,315494,N,0,0,0
14:36.492,315537,),0,0,1
14:37.106,315758,(,0,0,2
14:37.178,315784,t,0,0,1
14:37.244,315808,),0,0,2
14:37.456,315884,(,0,0,1
14:37.564,315923,N,0,0,0
14:37.692,315969,),0,0,1
14:38.253,316171,(,0,0,2
14:38.333,316200,t,0,0,1
14:38.397,316223,),0,0,2
14:38.592,316293,(,0,0,1
14:38.714,316337,N,0,0,0
14:38.858,316389,),0,0,1
14:39.400,316584,(,0,0,2
14:39.458,316605,t,0,0,0
14:39.525,316629,),0,0,2
14:39.789,316724,(,0,0,1
14:39.917,316770,N,0,0,0
14:40.067,316824,),0,0,1
14:40.694,317050,),0,0,2
14:40.725,317061,t,0,0,0
14:40.756,317072,(,0,0,2
14:40.919,317131,(,0,0,1
14:41.106,317198,N,0,0,0
14:41.294,317266,),0,0,1
14:41.389,317300,(,0,0,2
14:41.633,317388,t,0,0,1
14:41.847,317465,),0,0,2
14:42.189,317588,(,0,0,1
14:42.314,317633,N,0,0,0
14:42.494,317698,),0,0,1
14:42.997,317879,(,0,0,2
14:43.053,317899,t,0,0,0
14:43.125,317925,),0,0,2
14:43.392,318021,(,0,0,1
14:43.511,318064,N,0,0,0
14:43.661,318118,),0,0,1
14:44.158,318297,(,0,0,2
14:44.219,318319,t,0,0,0
14:44.272,318338,),0,0,2
14:45.822,318896,(,0,0,1
14:45.850,318906,N,0,0,0
14:45.994,318958,),0,0,1
14:46.072,318986,(,0,0,2
14:46.169,319021,t,0,0,4
14:46.531,319151,t,0,0,4
14:46.597,319175,),0,0,2
14:46.861,319270,(,0,0,1
14:46.986,319315,N,0,0,0
14:47.078,319348,),0,0,1
14:48.089,319712,(,0,0,1
14:48.153,319735,N,0,0,0
14:48.239,319766,),0,0,1
14:48.939,320018,(,0,0,2
14:48.969,320029,t,0,0,0
14:49.003,320041,),0,0,2
14:49.158,320097,(,0,0,1
14:49.286,320143,N,0,0,0
14:49.431,320195,),0,0,1
14:49.931,320375,(,0,0,2
14:49.986,320395,t,0,0,0
14:50.050,320418,),0,0,2
14:50.433,320556,(,0,0,1
14:50.447,320561,N,0,0,0
14:50.550,320598,),0,0,1
14:51.233,320844,(,0,0,2
14:51.261,320854,t,0,0,0
14:51.294,320866,),0,0,2
14:52.633,321348,(,0,0,1
14:52.758,321393,N,0,0,0
14:52.933,321456,),0,0,1
14:53.436,321637,(,0,0,2
14:53.492,321657,t,0,0,0
14:53.542,321675,),0,0,2
14:53.864,321791,(,0,0,1
14:53.928,321814,N,0,0,0
14:54.100,321876,),0,0,1
14:54.150,321894,(,0,0,2
14:54.239,321926,t,0,0,4
14:54.639,322070,t,0,0,4
14:54.708,322095,),0,0,2
14:54.928,322174,(,0,0,1
14:55.089,322232,N,0,0,0
14:55.231,322283,),0,0,1
14:55.292,322305,(,0,0,2
14:55.572,322406,t,0,0,1
14:55.819,322495,),0,0,2
14:55.936,322537,(,0,0,0
14:55.942,322539,p,0,0,0
14:55.969,322549,),0,0,0
14:56.125,322605,(,0,0,1
14:56.289,322664,N,0,0,0
14:56.383,322698,),0,0,1
14:56.508,322743,(,0,0,2
14:56.767,322836,t,0,0,1
14:57.022,322928,),0,0,2
14:57.400,323064,(,0,0,1
14:57.492,323097,N,0,0,0
14:57.633,323148,),0,0,1
14:58.272,323378,),0,0,2
14:58.297,323387,t,0,0,0
14:58.322,323396,(,0,0,2
14:58.669,323521,(,0,0,1
14:58.681,323525,N,0,0,0
14:58.806,323570,),0,0,1
14:59.414,323789,(,0,0,2
14:59.500,323820,t,0,0,1
14:59.558,323841,),0,0,2
15:02.167,324780,(,0,0,1
15:02.194,324790,N,0,0,0
15:02.339,324842,),0,0,1
15:02.906,325046,(,0,0,2
15:02.983,325074,t,0,0,1
15:03.039,325094,),0,0,2
15:04.403,325585,(,0,0,1
15:04.525,325629,N,0,0,0
15:04.672,325682,),0,0,1
15:05.608,326019,(,0,0,1
15:05.725,326061,N,0,0,0
15:05.872,326114,),0,0,1
15:06.364,326291,(,0,0,2
15:06.422,326312,t,0,0,0
15:06.497,326339,),0,0,2
15:06.872,326474,(,0,0,1
15:06.889,326480,N,0,0,0
15:06.989,326516,),0,0,1
15:07.939,326858,(,0,0,1
15:08.061,326902,N,0,0,0
15:08.242,326967,),0,0,1
15:08.794,327166,),0,0,2
15:08.833,327180,t,0,0,0
15:08.872,327194,(,0,0,2
15:10.375,327735,(,0,0,1
15:10.397,327743,N,0,0,0
15:10.492,327777,),0,0,1
15:11.472,328130,(,0,0,1
15:11.586,328171,N,0,0,0
15:11.739,328226,),0,0,1
15:12.375,328455,),0,0,2
15:12.403,328465,t,0,0,0
15:12.428,328474,(,0,0,2
15:12.672,328562,(,0,0,1
15:12.767,328596,N,0,0,0
15:12.908,328647,),0,0,1
15:13.536,328873,),0,0,2
15:13.567,328884,t,0,0,0
15:13.594,328894,(,0,0,2
15:13.808,328971,(,0,0,1
15:13.933,329016,N,0,0,0
15:14.075,329067,),0,0,1
15:15.108,329439,(,0,0,1
15:15.131,329447,N,0,0,0
15:15.311,329512,),0,0,1
15:15.953,329743,),0,0,2
15:15.978,329752,t,0,0,0
15:16.003,329761,(,0,0,2
15:17.375,330255,(,0,0,1
