Elapsedtime,sample,Type,Sub,Chan,Num
0:00.775,279,(,0,0,0
0:00.828,298,p,0,0,0
0:00.889,320,),0,0,0
0:00.981,353,(,0,0,1
0:01.025,369,N,0,0,0
0:01.117,402,),0,0,1
0:01.178,424,(,0,0,2
0:01.264,455,t,0,0,4
0:01.408,507,t,0,0,4
0:01.453,523,),0,0,2
0:01.625,585,(,0,0,0
0:01.683,606,p,0,0,0
0:01.744,628,),0,0,0
0:01.797,647,(,0,0,1
0:01.872,674,N,0,0,0
0:01.964,707,),0,0,1
0:02.022,728,(,0,0,2
0:02.103,757,t,0,0,4
0:02.272,818,t,0,0,4
0:02.297,827,),0,0,2
0:02.467,888,(,0,0,0
0:02.531,911,p,0,0,0
0:02.594,934,),0,0,0
0:02.672,962,(,0,0,1
0:02.719,979,N,0,0,0
0:02.811,1012,),0,0,1
0:02.856,1028,(,0,0,2
0:02.947,1061,t,0,0,4
0:03.225,1161,t,0,0,4
0:03.256,1172,),0,0,2
0:03.328,1198,(,0,0,0
0:03.372,1214,p,0,0,0
0:03.456,1244,),0,0,0
0:03.503,1261,(,0,0,1
0:03.564,1283,N,0,0,0
0:03.658,1317,),0,0,1
0:03.703,1333,(,0,0,2
0:03.806,1370,t,0,0,1
0:03.911,1408,),0,0,2
0:04.161,1498,(,0,0,0
0:04.222,1520,p,0,0,0
0:04.278,1540,),0,0,0
0:04.361,1570,(,0,0,1
0:04.408,1587,N,0,0,0
0:04.506,1622,),0,0,1
0:04.553,1639,(,0,0,2
0:04.633,1668,t,0,0,1
0:04.733,1704,),0,0,2
0:04.967,1788,(,0,0,0
0:05.014,1805,p,0,0,0
0:05.083,1830,),0,0,0
0:05.169,1861,(,0,0,1
0:05.267,1896,N,0,0,0
0:05.311,1912,),0,0,1
0:05.356,1928,(,0,0,2
0:05.450,1962,t,0,0,1
0:05.547,1997,),0,0,2
0:05.789,2084,(,0,0,0
0:05.836,2101,p,0,0,0
0:05.911,2128,),0,0,0
0:05.967,2148,(,0,0,1
0:06.042,2175,N,0,0,0
0:06.131,2207,),0,0,1
0:06.181,2225,(,0,0,2
0:06.275,2259,t,0,0,4
0:06.414,2309,t,0,0,4
0:06.506,2342,),0,0,2
0:06.611,2380,(,0,0,0
0:06.678,2404,p,0,0,0
0:06.731,2423,),0,0,0
0:06.825,2457,(,0,0,1
0:06.922,2492,N,0,0,0
0:06.967,2508,),0,0,1
0:07.011,2524,(,0,0,2
0:07.097,2555,t,0,0,1
0:07.186,2587,),0,0,2
0:07.433,2676,(,0,0,0
0:07.481,2693,p,0,0,0
0:07.547,2717,),0,0,0
0:07.636,2749,(,0,0,1
0:07.683,2766,N,0,0,0
0:07.769,2797,),0,0,1
0:07.828,2818,(,0,0,2
0:07.911,2848,t,0,0,4
0:08.119,2923,t,0,0,4
0:08.161,2938,),0,0,2
0:08.222,2960,(,0,0,0
0:08.289,2984,p,0,0,0
0:08.333,3000,),0,0,0
0:08.436,3037,(,0,0,1
0:08.481,3053,N,0,0,0
0:08.569,3085,),0,0,1
0:08.614,3101,(,0,0,2
0:08.708,3135,t,0,0,4
0:08.842,3183,t,0,0,4
0:08.875,3195,),0,0,2
0:09.100,3276,(,0,0,0
0:09.142,3291,p,0,0,0
0:09.203,3313,),0,0,0
0:09.269,3337,(,0,0,1
0:09.392,3381,N,0,0,0
0:09.431,3395,),0,0,1
0:09.494,3418,(,0,0,2
0:09.564,3443,t,0,0,4
0:09.719,3499,t,0,0,4
0:09.767,3516,),0,0,2
0:09.969,3589,(,0,0,0
0:10.014,3605,p,0,0,0
0:10.072,3626,),0,0,0
0:10.139,3650,(,0,0,1
0:10.258,3693,N,0,0,0
0:10.300,3708,),0,0,1
0:10.361,3730,(,0,0,2
0:10.436,3757,t,0,0,4
0:10.569,3805,t,0,0,4
0:10.631,3827,),0,0,2
0:10.808,3891,(,0,0,0
0:10.858,3909,p,0,0,0
0:10.928,3934,),0,0,0
0:10.975,3951,(,0,0,1
0:11.050,3978,N,0,0,0
0:11.142,4011,),0,0,1
0:11.200,4032,(,0,0,2
0:11.281,4061,t,0,0,1
0:11.372,4094,),0,0,2
0:11.631,4187,(,0,0,0
0:11.694,4210,p,0,0,0
0:11.767,4236,),0,0,0
0:11.847,4265,(,0,0,1
0:11.894,4282,N,0,0,0
0:11.986,4315,),0,0,1
0:12.039,4334,(,0,0,2
0:12.131,4367,t,0,0,1
0:12.219,4399,),0,0,2
0:12.475,4491,(,0,0,0
0:12.533,4512,p,0,0,0
0:12.592,4533,),0,0,0
0:12.675,4563,(,0,0,1
0:12.722,4580,N,0,0,0
0:12.814,4613,),0,0,1
0:12.875,4635,(,0,0,2
0:12.958,4665,t,0,0,4
0:13.083,4710,t,0,0,4
0:13.144,4732,),0,0,2
0:13.319,4795,(,0,0,0
0:13.372,4814,p,0,0,0
0:13.431,4835,),0,0,0
0:13.508,4863,(,0,0,1
0:13.564,4883,N,0,0,0
0:13.653,4915,),0,0,1
0:13.700,4932,(,0,0,2
0:13.797,4967,t,0,0,1
0:13.900,5004,),0,0,2
0:14.125,5085,(,0,0,0
0:14.181,5105,p,0,0,0
0:14.236,5125,),0,0,0
0:14.317,5154,(,0,0,1
0:14.364,5171,N,0,0,0
0:14.453,5203,),0,0,1
0:14.511,5224,(,0,0,2
0:14.603,5257,t,0,0,4
0:14.714,5297,t,0,0,4
0:14.792,5325,),0,0,2
0:14.922,5372,(,0,0,0
0:14.969,5389,p,0,0,0
0:15.044,5416,),0,0,0
0:15.131,5447,(,0,0,1
0:15.178,5464,N,0,0,0
0:15.267,5496,),0,0,1
0:15.319,5515,(,0,0,2
0:15.408,5547,t,0,0,4
0:15.697,5651,t,0,0,4
0:15.739,5666,),0,0,2
0:15.769,5677,(,0,0,0
0:15.808,5691,p,0,0,0
0:15.869,5713,),0,0,0
0:15.958,5745,(,0,0,1
0:16.047,5777,N,0,0,0
0:16.094,5794,),0,0,1
0:16.147,5813,(,0,0,2
0:16.228,5842,t,0,0,1
0:16.325,5877,),0,0,2
0:16.586,5971,(,0,0,0
0:16.625,5985,p,0,0,0
0:16.692,6009,),0,0,0
0:16.778,6040,(,0,0,1
0:16.875,6075,N,0,0,0
0:16.914,6089,),0,0,1
0:16.972,6110,(,0,0,2
0:17.050,6138,t,0,0,4
0:17.164,6179,t,0,0,4
0:17.233,6204,),0,0,2
0:17.397,6263,(,0,0,0
0:17.442,6279,p,0,0,0
0:17.506,6302,),0,0,0
0:17.592,6333,(,0,0,1
0:17.639,6350,N,0,0,0
0:17.728,6382,),0,0,1
0:17.789,6404,(,0,0,2
0:17.867,6432,t,0,0,4
0:18.017,6486,t,0,0,4
0:18.042,6495,),0,0,2
0:18.206,6554,(,0,0,0
0:18.281,6581,p,0,0,0
0:18.328,6598,),0,0,0
0:18.406,6626,(,0,0,1
0:18.453,6643,N,0,0,0
0:18.547,6677,),0,0,1
0:18.603,6697,(,0,0,2
0:18.689,6728,t,0,0,4
0:18.819,6775,t,0,0,4
0:18.883,6798,),0,0,2
0:19.003,6841,(,0,0,0
0:19.047,6857,p,0,0,0
0:19.117,6882,),0,0,0
0:19.200,6912,(,0,0,1
0:19.244,6928,N,0,0,0
0:19.333,6960,),0,0,1
0:19.386,6979,(,0,0,2
0:19.472,7010,t,0,0,1
0:19.567,7044,),0,0,2
0:19.783,7122,(,0,0,0
0:19.836,7141,p,0,0,0
0:19.900,7164,),0,0,0
0:19.989,7196,(,0,0,1
0:20.039,7214,N,0,0,0
0:20.133,7248,),0,0,1
0:20.192,7269,(,0,0,2
0:20.281,7301,t,0,0,4
0:20.411,7348,t,0,0,4
0:20.483,7374,),0,0,2
0:20.589,7412,(,0,0,0
0:20.647,7433,p,0,0,0
0:20.714,7457,),0,0,0
0:20.800,7488,(,0,0,1
0:20.850,7506,N,0,0,0
0:20.939,7538,),0,0,1
0:20.983,7554,(,0,0,2
0:21.078,7588,t,0,0,1
0:21.178,7624,),0,0,2
0:21.378,7696,(,0,0,0
0:21.458,7725,p,0,0,0
0:21.506,7742,),0,0,0
0:21.592,7773,(,0,0,1
0:21.647,7793,N,0,0,0
0:21.736,7825,),0,0,1
0:21.783,7842,(,0,0,2
0:21.875,7875,t,0,0,1
0:21.986,7915,),0,0,2
0:22.200,7992,(,0,0,0
0:22.250,8010,p,0,0,0
0:22.317,8034,),0,0,0
0:22.400,8064,(,0,0,1
0:22.450,8082,N,0,0,0
0:22.539,8114,),0,0,1
0:22.592,8133,(,0,0,2
0:22.681,8165,t,0,0,1
0:22.786,8203,),0,0,2
0:23.000,8280,(,0,0,0
0:23.053,8299,p,0,0,0
0:23.125,8325,),0,0,0
0:23.219,8359,(,0,0,1
0:23.269,8377,N,0,0,0
0:23.358,8409,),0,0,1
0:23.403,8425,(,0,0,2
0:23.494,8458,t,0,0,1
0:23.600,8496,),0,0,2
0:23.817,8574,(,0,0,0
0:23.872,8594,p,0,0,0
0:23.933,8616,),0,0,0
0:24.014,8645,(,0,0,1
0:24.067,8664,N,0,0,0
0:24.158,8697,),0,0,1
0:24.206,8714,(,0,0,2
0:24.300,8748,t,0,0,1
0:24.397,8783,),0,0,2
0:24.642,8871,(,0,0,0
0:24.708,8895,p,0,0,0
0:24.764,8915,),0,0,0
0:24.856,8948,(,0,0,1
0:24.906,8966,N,0,0,0
0:24.992,8997,),0,0,1
0:25.033,9012,(,0,0,2
0:25.133,9048,t,0,0,4
0:25.267,9096,t,0,0,4
0:25.333,9120,),0,0,2
0:25.469,9169,(,0,0,0
0:25.519,9187,p,0,0,0
0:25.592,9213,),0,0,0
0:25.689,9248,(,0,0,1
0:25.736,9265,N,0,0,0
0:25.839,9302,),0,0,1
0:25.886,9319,(,0,0,2
0:25.972,9350,t,0,0,1
0:26.081,9389,),0,0,2
0:26.319,9475,(,0,0,0
0:26.364,9491,p,0,0,0
0:26.436,9517,),0,0,0
0:26.517,9546,(,0,0,1
0:26.567,9564,N,0,0,0
0:26.664,9599,),0,0,1
0:26.711,9616,(,0,0,2
0:26.800,9648,t,0,0,1
0:26.894,9682,),0,0,2
0:27.169,9781,(,0,0,0
0:27.222,9800,p,0,0,0
0:27.286,9823,),0,0,0
0:27.381,9857,(,0,0,1
0:27.428,9874,N,0,0,0
0:27.519,9907,),0,0,1
0:27.569,9925,(,0,0,2
0:27.656,9956,t,0,0,1
0:27.758,9993,),0,0,2
0:28.008,10083,(,0,0,0
0:28.061,10102,p,0,0,0
0:28.125,10125,),0,0,0
0:28.222,10160,(,0,0,1
0:28.272,10178,N,0,0,0
0:28.381,10217,),0,0,1
0:28.425,10233,(,0,0,2
0:28.511,10264,t,0,0,1
0:28.608,10299,),0,0,2
0:28.864,10391,(,0,0,0
0:28.908,10407,p,0,0,0
0:28.972,10430,),0,0,0
0:29.064,10463,(,0,0,1
0:29.108,10479,N,0,0,0
0:29.208,10515,),0,0,1
0:29.256,10532,(,0,0,2
0:29.342,10563,t,0,0,1
0:29.439,10598,),0,0,2
0:29.703,10693,(,0,0,0
0:29.767,10716,p,0,0,0
0:29.825,10737,),0,0,0
0:29.917,10770,(,0,0,1
0:29.969,10789,N,0,0,0
0:30.067,10824,),0,0,1
0:30.108,10839,(,0,0,2
0:30.197,10871,t,0,0,1
0:30.294,10906,),0,0,2
0:30.556,11000,(,0,0,1
0:30.628,11026,N,0,0,0
0:30.744,11068,),0,0,1
0:30.758,11073,(,0,0,2
0:30.856,11108,t,0,0,1
0:31.044,11176,),0,0,2
0:31.369,11293,(,0,0,0
0:31.414,11309,p,0,0,0
0:31.481,11333,),0,0,0
0:31.569,11365,(,0,0,1
0:31.617,11382,N,0,0,0
0:31.719,11419,),0,0,1
0:31.753,11431,(,0,0,2
0:31.842,11463,t,0,0,4
0:31.967,11508,t,0,0,4
0:32.056,11540,),0,0,2
0:32.211,11596,(,0,0,0
0:32.256,11612,p,0,0,0
0:32.325,11637,),0,0,0
0:32.381,11657,(,0,0,1
0:32.464,11687,N,0,0,0
0:32.564,11723,),0,0,1
0:32.606,11738,(,0,0,2
0:32.694,11770,t,0,0,1
0:32.789,11804,),0,0,2
0:33.056,11900,(,0,0,0
0:33.106,11918,p,0,0,0
0:33.172,11942,),0,0,0
0:33.258,11973,(,0,0,1
0:33.308,11991,N,0,0,0
0:33.403,12025,),0,0,1
0:33.450,12042,(,0,0,2
0:33.536,12073,t,0,0,1
0:33.633,12108,),0,0,2
0:33.889,12200,(,0,0,0
0:33.933,12216,p,0,0,0
0:34.003,12241,),0,0,0
0:34.097,12275,(,0,0,1
0:34.147,12293,N,0,0,0
0:34.250,12330,),0,0,1
0:34.294,12346,(,0,0,2
0:34.381,12377,t,0,0,1
0:34.478,12412,),0,0,2
0:34.722,12500,(,0,0,0
0:34.772,12518,p,0,0,0
0:34.842,12543,),0,0,0
0:34.936,12577,(,0,0,1
0:34.983,12594,N,0,0,0
0:35.089,12632,),0,0,1
0:35.125,12645,(,0,0,2
0:35.217,12678,t,0,0,1
0:35.317,12714,),0,0,2
0:35.581,12809,(,0,0,0
0:35.628,12826,p,0,0,0
0:35.692,12849,),0,0,0
0:35.781,12881,(,0,0,1
0:35.828,12898,N,0,0,0
0:35.928,12934,),0,0,1
0:35.969,12949,(,0,0,2
0:36.056,12980,t,0,0,4
0:36.181,13025,t,0,0,4
0:36.244,13048,),0,0,2
0:36.406,13106,(,0,0,0
0:36.450,13122,p,0,0,0
0:36.514,13145,),0,0,0
0:36.611,13180,(,0,0,1
0:36.664,13199,N,0,0,0
0:36.764,13235,),0,0,1
0:36.828,13258,(,0,0,2
0:36.903,13285,t,0,0,4
0:37.011,13324,t,0,0,4
0:37.122,13364,),0,0,2
0:37.253,13411,(,0,0,0
0:37.314,13433,p,0,0,0
0:37.344,13444,),0,0,0
0:37.422,13472,(,0,0,1
0:37.492,13497,N,0,0,0
0:37.581,13529,),0,0,1
0:37.633,13548,(,0,0,2
0:37.722,13580,t,0,0,1
0:37.828,13618,),0,0,2
0:38.064,13703,(,0,0,0
0:38.106,13718,p,0,0,0
0:38.172,13742,),0,0,0
0:38.258,13773,(,0,0,1
0:38.306,13790,N,0,0,0
0:38.389,13820,),0,0,1
0:38.442,13839,(,0,0,2
0:38.533,13872,t,0,0,1
0:38.631,13907,),0,0,2
0:38.831,13979,(,0,0,0
0:38.878,13996,p,0,0,0
0:38.947,14021,),0,0,0
0:39.036,14053,(,0,0,1
0:39.083,14070,N,0,0,0
0:39.172,14102,),0,0,1
0:39.225,14121,(,0,0,2
0:39.319,14155,t,0,0,1
0:39.428,14194,),0,0,2
0:39.644,14272,(,0,0,0
0:39.697,14291,p,0,0,0
0:39.750,14310,),0,0,0
0:39.839,14342,(,0,0,1
0:39.883,14358,N,0,0,0
0:39.972,14390,),0,0,1
0:40.039,14414,(,0,0,2
0:40.111,14440,t,0,0,1
0:40.208,14475,),0,0,2
0:40.400,14544,(,0,0,0
0:40.464,14567,p,0,0,0
0:40.533,14592,),0,0,0
0:40.614,14621,(,0,0,1
0:40.708,14655,N,0,0,0
0:40.747,14669,),0,0,1
0:40.789,14684,(,0,0,2
0:40.881,14717,t,0,0,1
0:40.986,14755,),0,0,2
0:41.189,14828,(,0,0,0
0:41.236,14845,p,0,0,0
0:41.300,14868,),0,0,0
0:41.383,14898,(,0,0,1
0:41.431,14915,N,0,0,0
0:41.525,14949,),0,0,1
0:41.575,14967,(,0,0,2
0:41.667,15000,t,0,0,4
0:41.797,15047,t,0,0,4
0:41.869,15073,),0,0,2
0:41.986,15115,(,0,0,0
0:42.036,15133,p,0,0,0
0:42.103,15157,),0,0,0
0:42.197,15191,(,0,0,1
0:42.247,15209,N,0,0,0
0:42.344,15244,),0,0,1
0:42.394,15262,(,0,0,2
0:42.481,15293,t,0,0,4
0:42.606,15338,t,0,0,4
0:42.669,15361,),0,0,2
0:42.803,15409,(,0,0,0
0:42.847,15425,p,0,0,0
0:42.919,15451,),0,0,0
0:42.994,15478,(,0,0,1
0:43.044,15496,N,0,0,0
0:43.144,15532,),0,0,1
0:43.186,15547,(,0,0,2
0:43.275,15579,t,0,0,4
0:43.389,15620,t,0,0,4
0:43.472,15650,),0,0,2
0:43.614,15701,(,0,0,0
0:43.656,15716,p,0,0,0
0:43.719,15739,),0,0,0
0:43.808,15771,(,0,0,1
0:43.906,15806,N,0,0,0
0:43.958,15825,),0,0,1
0:44.008,15843,(,0,0,2
0:44.086,15871,t,0,0,4
0:44.197,15911,t,0,0,4
0:44.275,15939,),0,0,2
0:44.428,15994,(,0,0,0
0:44.492,16017,p,0,0,0
0:44.550,16038,),0,0,0
0:44.644,16072,(,0,0,1
0:44.692,16089,N,0,0,0
0:44.797,16127,),0,0,1
0:44.847,16145,(,0,0,2
0:44.931,16175,t,0,0,1
0:45.025,16209,),0,0,2
0:45.300,16308,(,0,0,0
0:45.339,16322,p,0,0,0
0:45.397,16343,),0,0,0
0:45.486,16375,(,0,0,1
0:45.578,16408,N,0,0,0
0:45.639,16430,),0,0,1
0:45.672,16442,(,0,0,2
0:45.761,16474,t,0,0,1
0:45.864,16511,),0,0,2
0:46.144,16612,(,0,0,0
0:46.181,16625,p,0,0,0
0:46.253,16651,),0,0,0
0:46.344,16684,(,0,0,1
0:46.389,16700,N,0,0,0
0:46.497,16739,),0,0,1
0:46.544,16756,(,0,0,2
0:46.619,16783,t,0,0,1
0:46.722,16820,),0,0,2
0:46.986,16915,(,0,0,0
0:47.028,16930,p,0,0,0
0:47.100,16956,),0,0,0
0:47.189,16988,(,0,0,1
0:47.286,17023,N,0,0,0
0:47.339,17042,),0,0,1
0:47.378,17056,(,0,0,2
0:47.475,17091,t,0,0,4
0:47.597,17135,t,0,0,4
0:47.661,17158,),0,0,2
0:47.850,17226,(,0,0,0
0:47.894,17242,p,0,0,0
0:47.958,17265,),0,0,0
0:48.042,17295,(,0,0,1
0:48.139,17330,N,0,0,0
0:48.197,17351,),0,0,1
0:48.233,17364,(,0,0,2
0:48.322,17396,t,0,0,1
0:48.417,17430,),0,0,2
0:48.697,17531,(,0,0,0
0:48.742,17547,p,0,0,0
0:48.814,17573,),0,0,0
0:48.900,17604,(,0,0,1
0:48.994,17638,N,0,0,0
0:49.044,17656,),0,0,1
0:49.092,17673,(,0,0,2
0:49.181,17705,t,0,0,4
0:49.303,17749,t,0,0,4
0:49.364,17771,),0,0,2
0:49.556,17840,(,0,0,0
0:49.617,17862,p,0,0,0
0:49.672,17882,),0,0,0
0:49.761,17914,(,0,0,1
0:49.811,17932,N,0,0,0
0:49.914,17969,),0,0,1
0:49.967,17988,(,0,0,2
0:50.042,18015,t,0,0,1
0:50.139,18050,),0,0,2
0:50.417,18150,(,0,0,0
0:50.469,18169,p,0,0,0
0:50.536,18193,),0,0,0
0:50.625,18225,(,0,0,1
0:50.672,18242,N,0,0,0
0:50.775,18279,),0,0,1
0:50.819,18295,(,0,0,2
0:50.908,18327,t,0,0,4
0:51.039,18374,t,0,0,4
0:51.089,18392,),0,0,2
0:51.261,18454,(,0,0,0
0:51.311,18472,p,0,0,0
0:51.383,18498,),0,0,0
0:51.469,18529,(,0,0,1
0:51.569,18565,N,0,0,0
0:51.628,18586,),0,0,1
0:51.664,18599,(,0,0,2
0:51.753,18631,t,0,0,1
0:51.847,18665,),0,0,2
0:52.128,18766,(,0,0,0
0:52.169,18781,p,0,0,0
0:52.239,18806,),0,0,0
0:52.325,18837,(,0,0,1
0:52.419,18871,N,0,0,0
0:52.469,18889,),0,0,1
0:52.506,18902,(,0,0,2
0:52.594,18934,t,0,0,1
0:52.692,18969,),0,0,2
0:52.947,19061,(,0,0,0
0:53.003,19081,p,0,0,0
0:53.072,19106,),0,0,0
0:53.161,19138,(,0,0,1
0:53.258,19173,N,0,0,0
0:53.311,19192,),0,0,1
0:53.356,19208,(,0,0,2
0:53.444,19240,t,0,0,1
0:53.539,19274,),0,0,2
0:53.800,19368,(,0,0,0
0:53.847,19385,p,0,0,0
0:53.911,19408,),0,0,0
0:54.003,19441,(,0,0,1
0:54.094,19474,N,0,0,0
0:54.147,19493,),0,0,1
0:54.203,19513,(,0,0,2
0:54.283,19542,t,0,0,1
0:54.375,19575,),0,0,2
0:54.653,19675,(,0,0,0
0:54.692,19689,p,0,0,0
0:54.756,19712,),0,0,0
0:54.844,19744,(,0,0,1
0:54.931,19775,N,0,0,0
0:54.983,19794,),0,0,1
0:55.025,19809,(,0,0,2
0:55.111,19840,t,0,0,1
0:55.203,19873,),0,0,2
0:55.456,19964,(,0,0,0
0:55.503,19981,p,0,0,0
0:55.569,20005,),0,0,0
0:55.661,20038,(,0,0,1
0:55.753,20071,N,0,0,0
0:55.811,20092,),0,0,1
0:55.847,20105,(,0,0,2
0:55.947,20141,t,0,0,4
0:56.075,20187,t,0,0,4
0:56.150,20214,),0,0,2
0:56.306,20270,(,0,0,0
0:56.350,20286,p,0,0,0
0:56.422,20312,),0,0,0
0:56.506,20342,(,0,0,1
0:56.603,20377,N,0,0,0
0:56.656,20396,),0,0,1
0:56.697,20411,(,0,0,2
0:56.786,20443,t,0,0,1
0:56.883,20478,),0,0,2
0:57.131,20567,(,0,0,0
0:57.181,20585,p,0,0,0
0:57.247,20609,),0,0,0
0:57.328,20638,(,0,0,1
0:57.375,20655,N,0,0,0
0:57.478,20692,),0,0,1
0:57.517,20706,(,0,0,2
0:57.603,20737,t,0,0,1
0:57.689,20768,),0,0,2
0:57.961,20866,(,0,0,0
0:58.011,20884,p,0,0,0
0:58.081,20909,),0,0,0
0:58.164,20939,(,0,0,1
0:58.214,20957,N,0,0,0
0:58.314,20993,),0,0,1
0:58.358,21009,(,0,0,2
0:58.453,21043,t,0,0,1
0:58.550,21078,),0,0,2
0:58.822,21176,(,0,0,0
0:58.864,21191,p,0,0,0
0:58.933,21216,),0,0,0
0:59.025,21249,(,0,0,1
0:59.122,21284,N,0,0,0
0:59.178,21304,),0,0,1
0:59.222,21320,(,0,0,2
0:59.303,21349,t,0,0,1
0:59.400,21384,),0,0,2
0:59.656,21476,(,0,0,0
0:59.706,21494,p,0,0,0
0:59.769,21517,),0,0,0
0:59.858,21549,(,0,0,1
0:59.953,21583,N,0,0,0
1:00.003,21601,),0,0,1
1:00.044,21616,(,0,0,2
1:00.136,21649,t,0,0,1
1:00.228,21682,),0,0,2
1:00.494,21778,(,0,0,0
1:00.550,21798,p,0,0,0
1:00.608,21819,),0,0,0
1:00.694,21850,(,0,0,1
1:00.744,21868,N,0,0,0
1:00.842,21903,),0,0,1
1:00.883,21918,(,0,0,2
1:00.981,21953,t,0,0,4
1:01.125,22005,t,0,0,4
1:01.183,22026,),0,0,2
1:01.336,22081,(,0,0,0
1:01.383,22098,p,0,0,0
1:01.456,22124,),0,0,0
1:01.553,22159,(,0,0,1
1:01.644,22192,N,0,0,0
1:01.706,22214,),0,0,1
1:01.736,22225,(,0,0,2
1:01.831,22259,t,0,0,1
1:01.931,22295,),0,0,2
1:02.189,22388,(,0,0,0
1:02.231,22403,p,0,0,0
1:02.294,22426,),0,0,0
1:02.378,22456,(,0,0,1
1:02.472,22490,N,0,0,0
1:02.528,22510,),0,0,1
1:02.578,22528,(,0,0,2
1:02.667,22560,t,0,0,1
1:02.758,22593,),0,0,2
1:03.017,22686,(,0,0,0
1:03.061,22702,p,0,0,0
1:03.131,22727,),0,0,0
1:03.222,22760,(,0,0,1
1:03.314,22793,N,0,0,0
1:03.372,22814,),0,0,1
1:03.411,22828,(,0,0,2
1:03.494,22858,t,0,0,1
1:03.597,22895,),0,0,2
1:03.844,22984,(,0,0,0
1:03.894,23002,p,0,0,0
1:03.964,23027,),0,0,0
1:04.050,23058,(,0,0,1
1:04.147,23093,N,0,0,0
1:04.211,23116,),0,0,1
1:04.247,23129,(,0,0,2
1:04.336,23161,t,0,0,1
1:04.436,23197,),0,0,2
1:04.686,23287,(,0,0,0
1:04.722,23300,p,0,0,0
1:04.792,23325,),0,0,0
1:04.875,23355,(,0,0,1
1:04.922,23372,N,0,0,0
1:05.022,23408,),0,0,1
1:05.064,23423,(,0,0,2
1:05.153,23455,t,0,0,1
1:05.247,23489,),0,0,2
1:05.492,23577,(,0,0,0
1:05.536,23593,p,0,0,0
1:05.603,23617,),0,0,0
1:05.692,23649,(,0,0,1
1:05.742,23667,N,0,0,0
1:05.844,23704,),0,0,1
1:05.886,23719,(,0,0,2
1:05.972,23750,t,0,0,1
1:06.072,23786,),0,0,2
1:06.325,23877,(,0,0,0
1:06.383,23898,p,0,0,0
1:06.439,23918,),0,0,0
1:06.528,23950,(,0,0,1
1:06.625,23985,N,0,0,0
1:06.681,24005,),0,0,1
1:06.717,24018,(,0,0,2
1:06.811,24052,t,0,0,4
1:06.919,24091,t,0,0,4
1:06.950,24102,),0,0,2
1:07.178,24184,(,0,0,0
1:07.231,24203,p,0,0,0
1:07.286,24223,),0,0,0
1:07.372,24254,(,0,0,1
1:07.422,24272,N,0,0,0
1:07.519,24307,),0,0,1
1:07.558,24321,(,0,0,2
1:07.653,24355,t,0,0,4
1:07.769,24397,t,0,0,4
1:07.836,24421,),0,0,2
1:07.981,24473,(,0,0,0
1:08.028,24490,p,0,0,0
1:08.097,24515,),0,0,0
1:08.189,24548,(,0,0,1
1:08.239,24566,N,0,0,0
1:08.342,24603,),0,0,1
1:08.381,24617,(,0,0,2
1:08.469,24649,t,0,0,1
1:08.564,24683,),0,0,2
1:08.819,24775,(,0,0,0
1:08.858,24789,p,0,0,0
1:08.928,24814,),0,0,0
1:09.014,24845,(,0,0,1
1:09.108,24879,N,0,0,0
1:09.158,24897,),0,0,1
1:09.203,24913,(,0,0,2
1:09.294,24946,t,0,0,1
1:09.386,24979,),0,0,2
1:09.653,25075,(,0,0,0
1:09.700,25092,p,0,0,0
1:09.769,25117,),0,0,0
1:09.864,25151,(,0,0,1
1:09.958,25185,N,0,0,0
1:10.014,25205,),0,0,1
1:10.053,25219,(,0,0,2
1:10.142,25251,t,0,0,1
1:10.247,25289,),0,0,2
1:10.500,25380,(,0,0,0
1:10.550,25398,p,0,0,0
1:10.619,25423,),0,0,0
1:10.708,25455,(,0,0,1
1:10.758,25473,N,0,0,0
1:10.853,25507,),0,0,1
1:10.903,25525,(,0,0,2
1:10.994,25558,t,0,0,4
1:11.117,25602,t,0,0,4
1:11.197,25631,),0,0,2
1:11.353,25687,(,0,0,0
1:11.397,25703,p,0,0,0
1:11.461,25726,),0,0,0
1:11.550,25758,(,0,0,1
1:11.636,25789,N,0,0,0
1:11.689,25808,),0,0,1
1:11.731,25823,(,0,0,2
1:11.819,25855,t,0,0,1
1:11.917,25890,),0,0,2
1:12.183,25986,(,0,0,0
1:12.225,26001,p,0,0,0
1:12.297,26027,),0,0,0
1:12.389,26060,(,0,0,1
1:12.439,26078,N,0,0,0
1:12.544,26116,),0,0,1
1:12.586,26131,(,0,0,2
1:12.669,26161,t,0,0,1
1:12.767,26196,),0,0,2
1:13.008,26283,(,0,0,0
1:13.067,26304,p,0,0,0
1:13.125,26325,),0,0,0
1:13.217,26358,(,0,0,1
1:13.264,26375,N,0,0,0
1:13.364,26411,),0,0,1
1:13.406,26426,(,0,0,2
1:13.497,26459,t,0,0,4
1:13.614,26501,t,0,0,4
1:13.694,26530,),0,0,2
1:13.844,26584,(,0,0,0
1:13.892,26601,p,0,0,0
1:13.961,26626,),0,0,0
1:14.044,26656,(,0,0,1
1:14.139,26690,N,0,0,0
1:14.192,26709,),0,0,1
1:14.239,26726,(,0,0,2
1:14.325,26757,t,0,0,1
1:14.414,26789,),0,0,2
1:14.678,26884,(,0,0,0
1:14.725,26901,p,0,0,0
1:14.786,26923,),0,0,0
1:14.881,26957,(,0,0,1
1:14.931,26975,N,0,0,0
1:15.033,27012,),0,0,1
1:15.078,27028,(,0,0,2
1:15.169,27061,t,0,0,1
1:15.272,27098,),0,0,2
1:15.528,27190,(,0,0,0
1:15.569,27205,p,0,0,0
1:15.639,27230,),0,0,0
1:15.725,27261,(,0,0,1
1:15.772,27278,N,0,0,0
1:15.872,27314,),0,0,1
1:15.911,27328,(,0,0,2
1:16.000,27360,t,0,0,1
1:16.089,27392,),0,0,2
1:16.358,27489,(,0,0,0
1:16.392,27501,p,0,0,0
1:16.464,27527,),0,0,0
1:16.547,27557,(,0,0,1
1:16.639,27590,N,0,0,0
1:16.692,27609,),0,0,1
1:16.739,27626,(,0,0,2
1:16.828,27658,t,0,0,1
1:16.922,27692,),0,0,2
1:17.178,27784,(,0,0,0
1:17.225,27801,p,0,0,0
1:17.286,27823,),0,0,0
1:17.375,27855,(,0,0,1
1:17.422,27872,N,0,0,0
1:17.522,27908,),0,0,1
1:17.567,27924,(,0,0,2
1:17.661,27958,t,0,0,1
1:17.758,27993,),0,0,2
1:18.008,28083,(,0,0,0
1:18.056,28100,p,0,0,0
1:18.128,28126,),0,0,0
1:18.219,28159,(,0,0,1
1:18.267,28176,N,0,0,0
1:18.361,28210,),0,0,1
1:18.408,28227,(,0,0,2
1:18.497,28259,t,0,0,1
1:18.592,28293,),0,0,2
1:18.836,28381,(,0,0,0
1:18.881,28397,p,0,0,0
1:18.944,28420,),0,0,0
1:19.033,28452,(,0,0,1
1:19.128,28486,N,0,0,0
1:19.183,28506,),0,0,1
1:19.228,28522,(,0,0,2
1:19.311,28552,t,0,0,1
1:19.414,28589,),0,0,2
1:19.661,28678,(,0,0,0
1:19.711,28696,p,0,0,0
1:19.769,28717,),0,0,0
1:19.864,28751,(,0,0,1
1:19.908,28767,N,0,0,0
1:20.006,28802,),0,0,1
1:20.042,28815,(,0,0,2
1:20.133,28848,t,0,0,4
1:20.267,28896,t,0,0,4
1:20.336,28921,),0,0,2
1:20.467,28968,(,0,0,0
1:20.506,28982,p,0,0,0
1:20.578,29008,),0,0,0
1:20.675,29043,(,0,0,1
1:20.719,29059,N,0,0,0
1:20.825,29097,),0,0,1
1:20.872,29114,(,0,0,2
1:20.961,29146,t,0,0,1
1:21.061,29182,),0,0,2
1:21.281,29261,(,0,0,0
1:21.325,29277,p,0,0,0
1:21.392,29301,),0,0,0
1:21.478,29332,(,0,0,1
1:21.572,29366,N,0,0,0
1:21.625,29385,),0,0,1
1:21.661,29398,(,0,0,2
1:21.758,29433,t,0,0,4
1:21.894,29482,t,0,0,4
1:21.950,29502,),0,0,2
1:22.103,29557,(,0,0,0
1:22.156,29576,p,0,0,0
1:22.219,29599,),0,0,0
1:22.308,29631,(,0,0,1
1:22.356,29648,N,0,0,0
1:22.456,29684,),0,0,1
1:22.500,29700,(,0,0,2
1:22.597,29735,t,0,0,1
1:22.689,29768,),0,0,2
1:22.917,29850,(,0,0,0
1:22.969,29869,p,0,0,0
1:23.042,29895,),0,0,0
1:23.136,29929,(,0,0,1
1:23.183,29946,N,0,0,0
1:23.289,29984,),0,0,1
1:23.331,29999,(,0,0,2
1:23.419,30031,t,0,0,4
1:23.550,30078,t,0,0,4
1:23.619,30103,),0,0,2
1:23.753,30151,(,0,0,0
1:23.797,30167,p,0,0,0
1:23.867,30192,),0,0,0
1:23.953,30223,(,0,0,1
1:24.047,30257,N,0,0,0
1:24.103,30277,),0,0,1
1:24.147,30293,(,0,0,2
1:24.236,30325,t,0,0,1
1:24.331,30359,),0,0,2
1:24.572,30446,(,0,0,0
1:24.617,30462,p,0,0,0
1:24.692,30489,),0,0,0
1:24.775,30519,(,0,0,1
1:24.872,30554,N,0,0,0
1:24.928,30574,),0,0,1
1:24.967,30588,(,0,0,2
1:25.058,30621,t,0,0,1
1:25.158,30657,),0,0,2
1:25.389,30740,(,0,0,0
1:25.431,30755,p,0,0,0
1:25.503,30781,),0,0,0
1:25.592,30813,(,0,0,1
1:25.639,30830,N,0,0,0
1:25.747,30869,),0,0,1
1:26.197,31031,(,0,0,0
1:26.236,31045,p,0,0,0
1:26.308,31071,),0,0,0
1:26.400,31104,(,0,0,1
1:26.497,31139,N,0,0,0
1:26.556,31160,),0,0,1
1:27.006,31322,(,0,0,0
1:27.044,31336,p,0,0,0
1:27.111,31360,),0,0,0
1:27.206,31394,(,0,0,1
1:27.306,31430,N,0,0,0
1:27.358,31449,),0,0,1
1:27.411,31468,(,0,0,2
1:27.486,31495,t,0,0,1
1:27.592,31533,),0,0,2
1:27.831,31619,(,0,0,0
1:27.867,31632,p,0,0,0
1:27.933,31656,),0,0,0
1:28.017,31686,(,0,0,1
1:28.064,31703,N,0,0,0
1:28.164,31739,),0,0,1
1:28.208,31755,(,0,0,2
1:28.292,31785,t,0,0,1
1:28.383,31818,),0,0,2
1:28.606,31898,(,0,0,0
1:28.644,31912,p,0,0,0
1:28.711,31936,),0,0,0
1:28.803,31969,(,0,0,1
1:28.850,31986,N,0,0,0
1:28.953,32023,),0,0,1
1:28.994,32038,(,0,0,2
1:29.081,32069,t,0,0,1
1:29.181,32105,),0,0,2
1:29.392,32181,(,0,0,0
1:29.442,32199,p,0,0,0
1:29.506,32222,),0,0,0
1:29.594,32254,(,0,0,1
1:29.689,32288,N,0,0,0
1:29.747,32309,),0,0,1
1:29.783,32322,(,0,0,2
1:29.878,32356,t,0,0,1
1:29.972,32390,),0,0,2
1:30.203,32473,(,0,0,0
1:30.244,32488,p,0,0,0
1:30.308,32511,),0,0,0
1:30.397,32543,(,0,0,1
1:30.489,32576,N,0,0,0
1:30.544,32596,),0,0,1
1:30.592,32613,(,0,0,2
1:30.672,32642,t,0,0,1
1:30.769,32677,),0,0,2
1:30.997,32759,(,0,0,0
1:31.042,32775,p,0,0,0
1:31.108,32799,),0,0,0
1:31.200,32832,(,0,0,1
1:31.247,32849,N,0,0,0
1:31.350,32886,),0,0,1
1:31.389,32900,(,0,0,2
1:31.481,32933,t,0,0,1
1:31.583,32970,),0,0,2
1:31.800,33048,(,0,0,0
1:31.847,33065,p,0,0,0
1:31.917,33090,),0,0,0
1:32.008,33123,(,0,0,1
1:32.056,33140,N,0,0,0
1:32.156,33176,),0,0,1
1:32.200,33192,(,0,0,2
1:32.286,33223,t,0,0,1
1:32.383,33258,),0,0,2
1:32.606,33338,(,0,0,0
1:32.650,33354,p,0,0,0
1:32.717,33378,),0,0,0
1:32.808,33411,(,0,0,1
1:32.906,33446,N,0,0,0
1:32.958,33465,),0,0,1
1:33.006,33482,(,0,0,2
1:33.078,33508,t,0,0,1
1:33.206,33554,),0,0,2
1:33.442,33639,(,0,0,1
1:33.489,33656,N,0,0,0
1:33.586,33691,),0,0,1
1:33.619,33703,(,0,0,2
1:33.714,33737,t,0,0,1
1:33.806,33770,),0,0,2
1:34.142,33891,(,0,0,0
1:34.206,33914,p,0,0,0
1:34.267,33936,),0,0,0
1:34.347,33965,(,0,0,1
1:34.394,33982,N,0,0,0
1:34.503,34021,),0,0,1
1:34.544,34036,(,0,0,2
1:34.636,34069,t,0,0,1
1:34.742,34107,),0,0,2
1:35.003,34201,(,0,0,0
1:35.050,34218,p,0,0,0
1:35.117,34242,),0,0,0
1:35.200,34272,(,0,0,1
1:35.300,34308,N,0,0,0
1:35.356,34328,),0,0,1
1:35.394,34342,(,0,0,2
1:35.483,34374,t,0,0,1
1:35.578,34408,),0,0,2
1:35.803,34489,(,0,0,0
1:35.844,34504,p,0,0,0
1:35.911,34528,),0,0,0
1:36.000,34560,(,0,0,1
1:36.100,34596,N,0,0,0
1:36.158,34617,),0,0,1
1:36.192,34629,(,0,0,2
1:36.281,34661,t,0,0,4
1:36.414,34709,t,0,0,4
1:36.475,34731,),0,0,2
1:36.606,34778,(,0,0,0
1:36.647,34793,p,0,0,0
1:36.714,34817,),0,0,0
1:36.792,34845,(,0,0,1
1:36.844,34864,N,0,0,0
1:36.950,34902,),0,0,1
1:36.992,34917,(,0,0,2
1:37.078,34948,t,0,0,1
1:37.189,34988,),0,0,2
1:37.394,35062,(,0,0,0
1:37.436,35077,p,0,0,0
1:37.506,35102,),0,0,0
1:37.592,35133,(,0,0,1
1:37.642,35151,N,0,0,0
1:37.742,35187,),0,0,1
1:37.781,35201,(,0,0,2
1:37.867,35232,t,0,0,1
1:37.961,35266,),0,0,2
1:38.014,35285,(,0,0,0
1:38.033,35292,p,0,0,0
1:38.092,35313,),0,0,0
1:38.239,35366,(,0,0,1
1:38.292,35385,N,0,0,0
1:38.389,35420,),0,0,1
1:38.425,35433,(,0,0,2
1:38.519,35467,t,0,0,1
1:38.611,35500,),0,0,2
1:38.933,35616,(,0,0,0
1:38.967,35628,p,0,0,0
1:39.036,35653,),0,0,0
1:39.083,35670,(,0,0,1
1:39.167,35700,N,0,0,0
1:39.258,35733,),0,0,1
1:39.308,35751,(,0,0,2
1:39.394,35782,t,0,0,4
1:39.536,35833,t,0,0,4
1:39.614,35861,),0,0,2
1:39.722,35900,(,0,0,0
1:39.775,35919,p,0,0,0
1:39.844,35944,),0,0,0
1:39.931,35975,(,0,0,1
1:39.978,35992,N,0,0,0
1:40.086,36031,),0,0,1
1:40.119,36043,(,0,0,2
1:40.217,36078,t,0,0,4
1:40.333,36120,t,0,0,4
1:40.411,36148,),0,0,2
1:40.539,36194,(,0,0,0
1:40.583,36210,p,0,0,0
1:40.639,36230,),0,0,0
1:40.717,36258,(,0,0,1
1:40.817,36294,N,0,0,0
1:40.864,36311,),0,0,1
1:40.908,36327,(,0,0,2
1:41.003,36361,t,0,0,1
1:41.092,36393,),0,0,2
1:41.314,36473,(,0,0,0
1:41.358,36489,p,0,0,0
1:41.428,36514,),0,0,0
1:41.514,36545,(,0,0,1
1:41.561,36562,N,0,0,0
1:41.656,36596,),0,0,1
1:41.703,36613,(,0,0,2
1:41.789,36644,t,0,0,1
1:41.894,36682,),0,0,2
1:42.106,36758,(,0,0,0
1:42.139,36770,p,0,0,0
1:42.208,36795,),0,0,0
1:42.292,36825,(,0,0,1
1:42.342,36843,N,0,0,0
1:42.439,36878,),0,0,1
1:42.478,36892,(,0,0,2
1:42.578,36928,t,0,0,1
1:42.672,36962,),0,0,2
1:42.886,37039,(,0,0,0
1:42.933,37056,p,0,0,0
1:43.003,37081,),0,0,0
1:43.089,37112,(,0,0,1
1:43.189,37148,N,0,0,0
1:43.247,37169,),0,0,1
1:43.289,37184,(,0,0,2
1:43.375,37215,t,0,0,1
1:43.467,37248,),0,0,2
1:43.689,37328,(,0,0,0
1:43.750,37350,p,0,0,0
1:43.806,37370,),0,0,0
1:43.892,37401,(,0,0,1
1:43.939,37418,N,0,0,0
1:44.042,37455,),0,0,1
1:44.081,37469,(,0,0,2
1:44.172,37502,t,0,0,4
1:44.297,37547,t,0,0,4
1:44.378,37576,),0,0,2
1:44.489,37616,(,0,0,0
1:44.550,37638,p,0,0,0
1:44.606,37658,),0,0,0
1:44.694,37690,(,0,0,1
1:44.783,37722,N,0,0,0
1:44.836,37741,),0,0,1
1:44.878,37756,(,0,0,2
1:44.961,37786,t,0,0,1
1:45.064,37823,),0,0,2
1:45.317,37914,(,0,0,1
1:45.361,37930,N,0,0,0
1:45.464,37967,),0,0,1
1:45.500,37980,(,0,0,2
1:45.600,38016,t,0,0,1
1:45.689,38048,),0,0,2
1:46.044,38176,(,0,0,0
1:46.078,38188,p,0,0,0
1:46.144,38212,),0,0,0
1:46.225,38241,(,0,0,1
1:46.322,38276,N,0,0,0
1:46.369,38293,),0,0,1
1:46.417,38310,(,0,0,2
1:46.503,38341,t,0,0,1
1:46.600,38376,),0,0,2
1:46.789,38444,(,0,0,1
1:46.906,38486,N,0,0,0
1:47.019,38527,),0,0,1
1:47.056,38540,(,0,0,2
1:47.133,38568,t,0,0,1
1:47.339,38642,),0,0,2
1:47.681,38765,(,0,0,0
1:47.717,38778,p,0,0,0
1:47.783,38802,),0,0,0
1:47.847,38825,(,0,0,1
1:47.917,38850,N,0,0,0
1:48.014,38885,),0,0,1
1:48.058,38901,(,0,0,2
1:48.144,38932,t,0,0,4
1:48.272,38978,t,0,0,4
1:48.322,38996,),0,0,2
1:48.472,39050,(,0,0,0
1:48.553,39079,p,0,0,0
1:48.597,39095,),0,0,0
1:48.656,39116,(,0,0,1
1:48.786,39163,N,0,0,0
1:48.842,39183,),0,0,1
1:48.889,39200,(,0,0,2
1:48.972,39230,t,0,0,4
1:49.075,39267,t,0,0,4
1:49.106,39278,),0,0,2
1:49.281,39341,(,0,0,0
1:49.339,39362,p,0,0,0
1:49.386,39379,),0,0,0
1:49.469,39409,(,0,0,1
1:49.567,39444,N,0,0,0
1:49.625,39465,),0,0,1
1:49.661,39478,(,0,0,2
1:49.753,39511,t,0,0,1
1:49.842,39543,),0,0,2
1:50.067,39624,(,0,0,0
1:50.131,39647,p,0,0,0
1:50.172,39662,),0,0,0
1:50.242,39687,(,0,0,1
1:50.311,39712,N,0,0,0
1:50.403,39745,),0,0,1
1:50.447,39761,(,0,0,2
1:50.536,39793,t,0,0,4
1:50.656,39836,t,0,0,4
1:50.719,39859,),0,0,2
1:50.836,39901,(,0,0,0
1:50.892,39921,p,0,0,0
1:50.958,39945,),0,0,0
1:51.008,39963,(,0,0,1
1:51.144,40012,N,0,0,0
1:51.197,40031,),0,0,1
1:51.244,40048,(,0,0,2
1:51.342,40083,t,0,0,4
1:51.467,40128,t,0,0,4
1:51.511,40144,),0,0,2
1:51.658,40197,(,0,0,0
1:51.694,40210,p,0,0,0
1:51.772,40238,),0,0,0
1:51.822,40256,(,0,0,1
1:51.944,40300,N,0,0,0
1:52.000,40320,),0,0,1
1:52.039,40334,(,0,0,2
1:52.117,40362,t,0,0,1
1:52.206,40394,),0,0,2
1:52.308,40431,(,0,0,0
1:52.397,40463,p,0,0,0
1:52.422,40472,),0,0,0
1:52.506,40502,(,0,0,1
1:52.556,40520,N,0,0,0
1:52.650,40554,),0,0,1
1:52.694,40570,(,0,0,2
1:52.781,40601,t,0,0,4
1:52.944,40660,t,0,0,4
1:52.969,40669,),0,0,2
1:53.178,40744,(,0,0,0
1:53.208,40755,p,0,0,0
1:53.292,40785,),0,0,0
1:53.361,40810,(,0,0,1
1:53.406,40826,N,0,0,0
1:53.492,40857,),0,0,1
1:53.569,40885,(,0,0,2
1:53.639,40910,t,0,0,4
1:53.761,40954,t,0,0,4
1:53.833,40980,),0,0,2
1:54.000,41040,(,0,0,0
1:54.039,41054,p,0,0,0
1:54.094,41074,),0,0,0
1:54.189,41108,(,0,0,1
1:54.286,41143,N,0,0,0
1:54.339,41162,),0,0,1
1:54.378,41176,(,0,0,2
1:54.464,41207,t,0,0,1
1:54.567,41244,),0,0,2
1:54.797,41327,(,0,0,0
1:54.833,41340,p,0,0,0
1:54.903,41365,),0,0,0
1:54.986,41395,(,0,0,1
1:55.081,41429,N,0,0,0
1:55.131,41447,),0,0,1
1:55.186,41467,(,0,0,2
1:55.261,41494,t,0,0,4
1:55.392,41541,t,0,0,4
1:55.419,41551,),0,0,2
1:55.617,41622,(,0,0,0
1:55.650,41634,p,0,0,0
1:55.717,41658,),0,0,0
1:55.803,41689,(,0,0,1
1:55.853,41707,N,0,0,0
1:55.944,41740,),0,0,1
1:55.997,41759,(,0,0,2
1:56.078,41788,t,0,0,1
1:56.175,41823,),0,0,2
1:56.392,41901,(,0,0,0
1:56.450,41922,p,0,0,0
1:56.522,41948,),0,0,0
1:56.583,41970,(,0,0,1
1:56.706,42014,N,0,0,0
1:56.756,42032,),0,0,1
1:56.800,42048,(,0,0,2
1:56.900,42084,t,0,0,4
1:57.050,42138,t,0,0,4
1:57.075,42147,),0,0,2
1:57.225,42201,(,0,0,0
1:57.267,42216,p,0,0,0
1:57.328,42238,),0,0,0
1:57.411,42268,(,0,0,1
1:57.508,42303,N,0,0,0
1:57.567,42324,),0,0,1
1:57.606,42338,(,0,0,2
1:57.694,42370,t,0,0,4
1:57.808,42411,t,0,0,4
1:57.892,42441,),0,0,2
1:58.031,42491,(,0,0,0
1:58.078,42508,p,0,0,0
1:58.147,42533,),0,0,0
1:58.233,42564,(,0,0,1
1:58.331,42599,N,0,0,0
1:58.378,42616,),0,0,1
1:58.422,42632,(,0,0,2
1:58.511,42664,t,0,0,1
1:58.611,42700,),0,0,2
1:58.850,42786,(,0,0,0
1:58.886,42799,p,0,0,0
1:58.958,42825,),0,0,0
1:59.050,42858,(,0,0,1
1:59.150,42894,N,0,0,0
1:59.200,42912,),0,0,1
1:59.250,42930,(,0,0,2
1:59.342,42963,t,0,0,1
1:59.422,42992,),0,0,2
1:59.681,43085,(,0,0,0
1:59.725,43101,p,0,0,0
1:59.786,43123,),0,0,0
1:59.883,43158,(,0,0,1
1:59.978,43192,N,0,0,0
2:00.014,43205,),0,0,1
2:00.058,43221,(,0,0,2
2:00.161,43258,t,0,0,1
2:00.258,43293,),0,0,2
2:00.517,43386,(,0,0,0
2:00.550,43398,p,0,0,0
2:00.617,43422,),0,0,0
2:00.706,43454,(,0,0,1
2:00.800,43488,N,0,0,0
2:00.847,43505,),0,0,1
2:00.900,43524,(,0,0,2
2:00.989,43556,t,0,0,4
2:01.133,43608,t,0,0,4
2:01.189,43628,),0,0,2
2:01.322,43676,(,0,0,0
2:01.372,43694,p,0,0,0
2:01.436,43717,),0,0,0
2:01.525,43749,(,0,0,1
2:01.617,43782,N,0,0,0
2:01.658,43797,),0,0,1
2:01.714,43817,(,0,0,2
2:01.792,43845,t,0,0,1
2:01.889,43880,),0,0,2
2:02.139,43970,(,0,0,0
2:02.189,43988,p,0,0,0
2:02.253,44011,),0,0,0
2:02.342,44043,(,0,0,1
2:02.436,44077,N,0,0,0
2:02.478,44092,),0,0,1
2:02.539,44114,(,0,0,2
2:02.617,44142,t,0,0,4
2:02.744,44188,t,0,0,4
2:02.817,44214,),0,0,2
2:02.950,44262,(,0,0,0
2:02.981,44273,p,0,0,0
2:03.053,44299,),0,0,0
2:03.147,44333,(,0,0,1
2:03.239,44366,N,0,0,0
2:03.281,44381,),0,0,1
2:03.336,44401,(,0,0,2
2:03.419,44431,t,0,0,1
2:03.506,44462,),0,0,2
2:03.761,44554,(,0,0,0
2:03.803,44569,p,0,0,0
2:03.872,44594,),0,0,0
2:03.958,44625,(,0,0,1
2:04.053,44659,N,0,0,0
2:04.097,44675,),0,0,1
2:04.147,44693,(,0,0,2
2:04.228,44722,t,0,0,4
2:04.339,44762,t,0,0,4
2:04.400,44784,),0,0,2
2:04.564,44843,(,0,0,0
2:04.619,44863,p,0,0,0
2:04.683,44886,),0,0,0
2:04.769,44917,(,0,0,1
2:04.864,44951,N,0,0,0
2:04.914,44969,),0,0,1
2:04.967,44988,(,0,0,2
2:05.053,45019,t,0,0,4
2:05.200,45072,t,0,0,4
2:05.253,45091,),0,0,2
2:05.389,45140,(,0,0,0
2:05.436,45157,p,0,0,0
2:05.500,45180,),0,0,0
2:05.594,45214,(,0,0,1
2:05.683,45246,N,0,0,0
2:05.731,45263,),0,0,1
2:05.781,45281,(,0,0,2
2:05.864,45311,t,0,0,1
2:05.967,45348,),0,0,2
2:06.200,45432,(,0,0,0
2:06.250,45450,p,0,0,0
2:06.314,45473,),0,0,0
2:06.397,45503,(,0,0,1
2:06.494,45538,N,0,0,0
2:06.542,45555,),0,0,1
2:07.000,45720,(,0,0,0
2:07.042,45735,p,0,0,0
2:07.108,45759,),0,0,0
2:07.164,45779,(,0,0,1
2:07.294,45826,N,0,0,0
2:07.342,45843,),0,0,1
2:07.400,45864,(,0,0,2
2:07.481,45893,t,0,0,1
2:07.586,45931,),0,0,2
2:07.836,46021,(,0,0,0
2:07.886,46039,p,0,0,0
2:07.947,46061,),0,0,0
2:08.028,46090,(,0,0,1
2:08.128,46126,N,0,0,0
2:08.175,46143,),0,0,1
2:08.239,46166,(,0,0,2
2:08.314,46193,t,0,0,4
2:08.436,46237,t,0,0,4
2:08.500,46260,),0,0,2
2:08.650,46314,(,0,0,0
2:08.697,46331,p,0,0,0
2:08.758,46353,),0,0,0
2:08.836,46381,(,0,0,1
2:08.942,46419,N,0,0,0
2:09.006,46442,),0,0,1
2:09.042,46455,(,0,0,2
2:09.125,46485,t,0,0,4
2:09.250,46530,t,0,0,4
2:09.306,46550,),0,0,2
2:09.461,46606,(,0,0,0
2:09.511,46624,p,0,0,0
2:09.569,46645,),0,0,0
2:09.658,46677,(,0,0,1
2:09.742,46707,N,0,0,0
2:09.803,46729,),0,0,1
2:09.842,46743,(,0,0,2
2:09.928,46774,t,0,0,1
2:10.028,46810,),0,0,2
2:10.292,46905,(,0,0,0
2:10.322,46916,p,0,0,0
2:10.392,46941,),0,0,0
2:10.478,46972,(,0,0,1
2:10.575,47007,N,0,0,0
2:10.631,47027,),0,0,1
2:10.675,47043,(,0,0,2
2:10.756,47072,t,0,0,1
2:10.856,47108,),0,0,2
2:11.086,47191,(,0,0,0
2:11.139,47210,p,0,0,0
2:11.208,47235,),0,0,0
2:11.264,47255,(,0,0,1
2:11.389,47300,N,0,0,0
2:11.433,47316,),0,0,1
2:11.481,47333,(,0,0,2
2:11.564,47363,t,0,0,4
2:11.683,47406,t,0,0,4
2:11.758,47433,),0,0,2
2:11.886,47479,(,0,0,0
2:11.933,47496,p,0,0,0
2:12.000,47520,),0,0,0
2:12.089,47552,(,0,0,1
2:12.178,47584,N,0,0,0
2:12.225,47601,),0,0,1
2:12.278,47620,(,0,0,2
2:12.364,47651,t,0,0,4
2:12.486,47695,t,0,0,4
2:12.556,47720,),0,0,2
2:12.697,47771,(,0,0,0
2:12.742,47787,p,0,0,0
2:12.806,47810,),0,0,0
2:12.900,47844,(,0,0,1
2:12.994,47878,N,0,0,0
2:13.039,47894,),0,0,1
2:13.097,47915,(,0,0,2
2:13.178,47944,t,0,0,4
2:13.300,47988,t,0,0,4
2:13.369,48013,),0,0,2
2:13.503,48061,(,0,0,0
2:13.547,48077,p,0,0,0
2:13.606,48098,),0,0,0
2:13.694,48130,(,0,0,1
2:13.786,48163,N,0,0,0
2:13.842,48183,),0,0,1
2:13.872,48194,(,0,0,2
2:13.967,48228,t,0,0,1
2:14.053,48259,),0,0,2
2:14.283,48342,(,0,0,0
2:14.333,48360,p,0,0,0
2:14.392,48381,),0,0,0
2:14.472,48410,(,0,0,1
2:14.569,48445,N,0,0,0
2:14.622,48464,),0,0,1
2:14.667,48480,(,0,0,2
2:14.753,48511,t,0,0,1
2:14.842,48543,),0,0,2
2:15.064,48623,(,0,0,0
2:15.108,48639,p,0,0,0
2:15.181,48665,),0,0,0
2:15.267,48696,(,0,0,1
2:15.361,48730,N,0,0,0
2:15.417,48750,),0,0,1
2:15.456,48764,(,0,0,2
2:15.547,48797,t,0,0,4
2:15.667,48840,t,0,0,4
2:15.750,48870,),0,0,2
2:15.886,48919,(,0,0,0
2:15.931,48935,p,0,0,0
2:16.003,48961,),0,0,0
2:16.092,48993,(,0,0,1
2:16.181,49025,N,0,0,0
2:16.244,49048,),0,0,1
2:16.275,49059,(,0,0,2
2:16.358,49089,t,0,0,1
2:16.450,49122,),0,0,2
2:16.689,49208,(,0,0,0
2:16.725,49221,p,0,0,0
2:16.797,49247,),0,0,0
2:16.872,49274,(,0,0,1
2:16.978,49312,N,0,0,0
2:17.036,49333,),0,0,1
2:17.078,49348,(,0,0,2
2:17.158,49377,t,0,0,1
2:17.269,49417,),0,0,2
2:17.511,49504,(,0,0,0
2:17.550,49518,p,0,0,0
2:17.619,49543,),0,0,0
2:17.700,49572,(,0,0,1
2:17.794,49606,N,0,0,0
2:17.850,49626,),0,0,1
2:18.303,49789,(,0,0,0
2:18.350,49806,p,0,0,0
2:18.419,49831,),0,0,0
2:18.508,49863,(,0,0,1
2:18.603,49897,N,0,0,0
2:18.658,49917,),0,0,1
2:18.700,49932,(,0,0,2
2:18.781,49961,t,0,0,1
2:18.881,49997,),0,0,2
2:19.131,50087,(,0,0,0
2:19.186,50107,p,0,0,0
2:19.250,50130,),0,0,0
2:19.331,50159,(,0,0,1
2:19.431,50195,N,0,0,0
2:19.486,50215,),0,0,1
2:19.528,50230,(,0,0,2
2:19.611,50260,t,0,0,1
2:19.708,50295,),0,0,2
2:19.961,50386,(,0,0,0
2:20.019,50407,p,0,0,0
2:20.072,50426,),0,0,0
2:20.161,50458,(,0,0,1
2:20.253,50491,N,0,0,0
2:20.308,50511,),0,0,1
2:20.361,50530,(,0,0,2
2:20.442,50559,t,0,0,1
2:20.536,50593,),0,0,2
2:20.794,50686,(,0,0,0
2:20.844,50704,p,0,0,0
2:20.911,50728,),0,0,0
2:20.997,50759,(,0,0,1
2:21.092,50793,N,0,0,0
2:21.144,50812,),0,0,1
2:21.181,50825,(,0,0,2
2:21.272,50858,t,0,0,4
2:21.389,50900,t,0,0,4
2:21.475,50931,),0,0,2
2:21.644,50992,(,0,0,0
2:21.686,51007,p,0,0,0
2:21.750,51030,),0,0,0
2:21.839,51062,(,0,0,1
2:21.933,51096,N,0,0,0
2:21.986,51115,),0,0,1
2:22.042,51135,(,0,0,2
2:22.117,51162,t,0,0,1
2:22.217,51198,),0,0,2
2:22.472,51290,(,0,0,0
2:22.519,51307,p,0,0,0
2:22.586,51331,),0,0,0
2:22.675,51363,(,0,0,1
2:22.767,51396,N,0,0,0
2:22.822,51416,),0,0,1
2:22.867,51432,(,0,0,2
2:22.953,51463,t,0,0,4
2:23.075,51507,t,0,0,4
2:23.139,51530,),0,0,2
2:23.322,51596,(,0,0,0
2:23.364,51611,p,0,0,0
2:23.433,51636,),0,0,0
2:23.517,51666,(,0,0,1
2:23.611,51700,N,0,0,0
2:23.669,51721,),0,0,1
2:23.714,51737,(,0,0,2
2:23.794,51766,t,0,0,1
2:23.897,51803,),0,0,2
2:24.161,51898,(,0,0,0
2:24.203,51913,p,0,0,0
2:24.269,51937,),0,0,0
2:24.367,51972,(,0,0,1
2:24.464,52007,N,0,0,0
2:24.519,52027,),0,0,1
2:24.564,52043,(,0,0,2
2:24.644,52072,t,0,0,1
2:24.742,52107,),0,0,2
2:25.000,52200,(,0,0,0
2:25.050,52218,p,0,0,0
2:25.122,52244,),0,0,0
2:25.206,52274,(,0,0,1
2:25.303,52309,N,0,0,0
2:25.358,52329,),0,0,1
2:25.403,52345,(,0,0,2
2:25.481,52373,t,0,0,1
2:25.586,52411,),0,0,2
2:25.850,52506,(,0,0,0
2:25.886,52519,p,0,0,0
2:25.956,52544,),0,0,0
2:26.036,52573,(,0,0,1
2:26.128,52606,N,0,0,0
2:26.183,52626,),0,0,1
2:26.219,52639,(,0,0,2
2:26.314,52673,t,0,0,1
2:26.397,52703,),0,0,2
2:26.675,52803,(,0,0,0
2:26.725,52821,p,0,0,0
2:26.792,52845,),0,0,0
2:26.881,52877,(,0,0,1
2:26.978,52912,N,0,0,0
2:27.033,52932,),0,0,1
2:27.081,52949,(,0,0,2
2:27.164,52979,t,0,0,1
2:27.264,53015,),0,0,2
2:27.533,53112,(,0,0,0
2:27.575,53127,p,0,0,0
2:27.639,53150,),0,0,0
2:27.733,53184,(,0,0,1
2:27.822,53216,N,0,0,0
2:27.883,53238,),0,0,1
2:27.917,53250,(,0,0,2
2:28.011,53284,t,0,0,1
2:28.103,53317,),0,0,2
2:28.369,53413,(,0,0,0
2:28.417,53430,p,0,0,0
2:28.481,53453,),0,0,0
2:28.569,53485,(,0,0,1
2:28.667,53520,N,0,0,0
2:28.719,53539,),0,0,1
2:28.761,53554,(,0,0,2
2:28.850,53586,t,0,0,1
2:28.950,53622,),0,0,2
2:29.214,53717,(,0,0,0
2:29.264,53735,p,0,0,0
2:29.333,53760,),0,0,0
2:29.422,53792,(,0,0,1
2:29.519,53827,N,0,0,0
2:29.581,53849,),0,0,1
2:29.619,53863,(,0,0,2
2:29.708,53895,t,0,0,1
2:29.811,53932,),0,0,2
2:30.069,54025,(,0,0,0
2:30.119,54043,p,0,0,0
2:30.189,54068,),0,0,0
2:30.275,54099,(,0,0,1
2:30.369,54133,N,0,0,0
2:30.425,54153,),0,0,1
2:30.464,54167,(,0,0,2
2:30.547,54197,t,0,0,1
2:30.639,54230,),0,0,2
2:30.919,54331,(,0,0,0
2:30.964,54347,p,0,0,0
2:31.031,54371,),0,0,0
2:31.114,54401,(,0,0,1
2:31.217,54438,N,0,0,0
2:31.267,54456,),0,0,1
2:31.314,54473,(,0,0,2
2:31.400,54504,t,0,0,1
2:31.492,54537,),0,0,2
2:31.769,54637,(,0,0,0
2:31.811,54652,p,0,0,0
2:31.881,54677,),0,0,0
2:31.972,54710,(,0,0,1
2:32.069,54745,N,0,0,0
2:32.122,54764,),0,0,1
2:32.167,54780,(,0,0,2
2:32.261,54814,t,0,0,4
2:32.386,54859,t,0,0,4
2:32.469,54889,),0,0,2
2:32.633,54948,(,0,0,0
2:32.669,54961,p,0,0,0
2:32.736,54985,),0,0,0
2:32.831,55019,(,0,0,1
2:32.914,55049,N,0,0,0
2:32.975,55071,),0,0,1
2:33.011,55084,(,0,0,2
2:33.094,55114,t,0,0,1
2:33.189,55148,),0,0,2
2:33.467,55248,(,0,0,0
2:33.508,55263,p,0,0,0
2:33.572,55286,),0,0,0
2:33.664,55319,(,0,0,1
2:33.758,55353,N,0,0,0
2:33.817,55374,),0,0,1
2:33.864,55391,(,0,0,2
2:33.944,55420,t,0,0,1
2:34.042,55455,),0,0,2
2:34.308,55551,(,0,0,0
2:34.350,55566,p,0,0,0
2:34.419,55591,),0,0,0
2:34.508,55623,(,0,0,1
2:34.600,55656,N,0,0,0
2:34.658,55677,),0,0,1
2:34.700,55692,(,0,0,2
2:34.792,55725,t,0,0,1
2:34.892,55761,),0,0,2
2:35.172,55862,(,0,0,0
2:35.217,55878,p,0,0,0
2:35.281,55901,),0,0,0
2:35.367,55932,(,0,0,1
2:35.464,55967,N,0,0,0
2:35.517,55986,),0,0,1
2:35.558,56001,(,0,0,2
2:35.636,56029,t,0,0,1
2:35.742,56067,),0,0,2
2:36.006,56162,(,0,0,0
2:36.050,56178,p,0,0,0
2:36.114,56201,),0,0,0
2:36.206,56234,(,0,0,1
2:36.303,56269,N,0,0,0
2:36.356,56288,),0,0,1
2:36.400,56304,(,0,0,2
2:36.483,56334,t,0,0,1
2:36.583,56370,),0,0,2
2:36.836,56461,(,0,0,0
2:36.892,56481,p,0,0,0
2:36.958,56505,),0,0,0
2:37.044,56536,(,0,0,1
2:37.139,56570,N,0,0,0
2:37.194,56590,),0,0,1
2:37.236,56605,(,0,0,2
2:37.322,56636,t,0,0,1
2:37.422,56672,),0,0,2
2:37.703,56773,(,0,0,0
2:37.747,56789,p,0,0,0
2:37.811,56812,),0,0,0
2:37.903,56845,(,0,0,1
2:38.000,56880,N,0,0,0
2:38.050,56898,),0,0,1
2:38.094,56914,(,0,0,2
2:38.181,56945,t,0,0,1
2:38.289,56984,),0,0,2
2:38.519,57067,(,0,0,0
2:38.567,57084,p,0,0,0
2:38.631,57107,),0,0,0
2:38.722,57140,(,0,0,1
2:38.817,57174,N,0,0,0
2:38.872,57194,),0,0,1
2:38.919,57211,(,0,0,2
2:39.006,57242,t,0,0,4
2:39.131,57287,t,0,0,4
2:39.206,57314,),0,0,2
2:39.353,57367,(,0,0,0
2:39.403,57385,p,0,0,0
2:39.472,57410,),0,0,0
2:39.561,57442,(,0,0,1
2:39.647,57473,N,0,0,0
2:39.711,57496,),0,0,1
2:39.744,57508,(,0,0,2
2:39.833,57540,t,0,0,4
2:39.964,57587,t,0,0,4
2:40.008,57603,),0,0,2
2:40.192,57669,(,0,0,0
2:40.244,57688,p,0,0,0
2:40.300,57708,),0,0,0
2:40.389,57740,(,0,0,1
2:40.489,57776,N,0,0,0
2:40.536,57793,),0,0,1
2:40.594,57814,(,0,0,2
2:40.675,57843,t,0,0,1
2:40.781,57881,),0,0,2
2:41.017,57966,(,0,0,0
2:41.047,57977,p,0,0,0
2:41.122,58004,),0,0,0
2:41.208,58035,(,0,0,1
2:41.303,58069,N,0,0,0
2:41.356,58088,),0,0,1
2:41.394,58102,(,0,0,2
2:41.489,58136,t,0,0,4
2:41.622,58184,t,0,0,4
2:41.675,58203,),0,0,2
2:41.844,58264,(,0,0,0
2:41.881,58277,p,0,0,0
2:41.947,58301,),0,0,0
2:42.036,58333,(,0,0,1
2:42.131,58367,N,0,0,0
2:42.183,58386,),0,0,1
2:42.225,58401,(,0,0,2
2:42.311,58432,t,0,0,4
2:42.508,58503,t,0,0,4
2:42.528,58510,),0,0,2
2:42.642,58551,(,0,0,0
2:42.686,58567,p,0,0,0
2:42.747,58589,),0,0,0
2:42.817,58614,(,0,0,1
2:42.936,58657,N,0,0,0
2:42.981,58673,),0,0,1
2:43.028,58690,(,0,0,2
2:43.119,58723,t,0,0,4
2:43.247,58769,t,0,0,4
2:43.331,58799,),0,0,2
2:43.447,58841,(,0,0,0
2:43.497,58859,p,0,0,0
2:43.569,58885,),0,0,0
2:43.656,58916,(,0,0,1
2:43.747,58949,N,0,0,0
2:43.800,58968,),0,0,1
2:43.839,58982,(,0,0,2
2:43.933,59016,t,0,0,1
2:44.022,59048,),0,0,2
2:44.275,59139,(,0,0,0
2:44.319,59155,p,0,0,0
2:44.383,59178,),0,0,0
2:44.475,59211,(,0,0,1
2:44.575,59247,N,0,0,0
2:44.625,59265,),0,0,1
2:44.667,59280,(,0,0,2
2:44.758,59313,t,0,0,1
2:44.856,59348,),0,0,2
2:45.083,59430,(,0,0,0
2:45.136,59449,p,0,0,0
2:45.206,59474,),0,0,0
2:45.289,59504,(,0,0,1
2:45.386,59539,N,0,0,0
2:45.436,59557,),0,0,1
2:45.475,59571,(,0,0,2
2:45.572,59606,t,0,0,1
2:45.664,59639,),0,0,2
2:45.900,59724,(,0,0,0
2:45.947,59741,p,0,0,0
2:46.017,59766,),0,0,0
2:46.108,59799,(,0,0,1
2:46.208,59835,N,0,0,0
2:46.264,59855,),0,0,1
2:46.306,59870,(,0,0,2
2:46.392,59901,t,0,0,1
2:46.494,59938,),0,0,2
2:46.725,60021,(,0,0,0
2:46.783,60042,p,0,0,0
2:46.842,60063,),0,0,0
2:46.922,60092,(,0,0,1
2:47.025,60129,N,0,0,0
2:47.069,60145,),0,0,1
2:47.117,60162,(,0,0,2
2:47.208,60195,t,0,0,1
2:47.317,60234,),0,0,2
2:47.514,60305,(,0,0,0
2:47.558,60321,p,0,0,0
2:47.633,60348,),0,0,0
2:47.717,60378,(,0,0,1
2:47.817,60414,N,0,0,0
2:47.856,60428,),0,0,1
2:47.903,60445,(,0,0,2
2:47.994,60478,t,0,0,4
2:48.125,60525,t,0,0,4
2:48.181,60545,),0,0,2
2:48.314,60593,(,0,0,0
2:48.361,60610,p,0,0,0
2:48.431,60635,),0,0,0
2:48.519,60667,(,0,0,1
2:48.619,60703,N,0,0,0
2:48.678,60724,),0,0,1
2:48.728,60742,(,0,0,2
2:48.814,60773,t,0,0,1
2:48.931,60815,),0,0,2
2:49.156,60896,(,0,0,1
2:49.250,60930,N,0,0,0
2:49.303,60949,),0,0,1
2:49.336,60961,(,0,0,2
2:49.433,60996,t,0,0,1
2:49.522,61028,),0,0,2
2:49.861,61150,(,0,0,0
2:49.903,61165,p,0,0,0
2:49.975,61191,),0,0,0
2:50.047,61217,(,0,0,1
2:50.144,61252,N,0,0,0
2:50.194,61270,),0,0,1
2:50.236,61285,(,0,0,2
2:50.333,61320,t,0,0,1
2:50.433,61356,),0,0,2
2:50.664,61439,(,0,0,0
2:50.728,61462,p,0,0,0
2:50.783,61482,),0,0,0
2:50.864,61511,(,0,0,1
2:50.958,61545,N,0,0,0
2:51.006,61562,),0,0,1
2:51.056,61580,(,0,0,2
2:51.147,61613,t,0,0,1
2:51.236,61645,),0,0,2
2:51.475,61731,(,0,0,0
2:51.519,61747,p,0,0,0
2:51.603,61777,),0,0,0
2:51.686,61807,(,0,0,1
2:51.778,61840,N,0,0,0
2:51.831,61859,),0,0,1
2:51.872,61874,(,0,0,2
2:51.958,61905,t,0,0,4
2:52.069,61945,t,0,0,4
2:52.136,61969,),0,0,2
2:52.267,62016,(,0,0,0
2:52.319,62035,p,0,0,0
2:52.392,62061,),0,0,0
2:52.475,62091,(,0,0,1
2:52.572,62126,N,0,0,0
2:52.628,62146,),0,0,1
2:52.669,62161,(,0,0,2
2:52.753,62191,t,0,0,1
2:52.850,62226,),0,0,2
2:53.067,62304,(,0,0,0
2:53.119,62323,p,0,0,0
2:53.194,62350,),0,0,0
2:53.281,62381,(,0,0,1
2:53.378,62416,N,0,0,0
2:53.428,62434,),0,0,1
2:53.472,62450,(,0,0,2
2:53.556,62480,t,0,0,1
2:53.658,62517,),0,0,2
2:53.889,62600,(,0,0,0
2:53.931,62615,p,0,0,0
2:54.006,62642,),0,0,0
2:54.092,62673,(,0,0,1
2:54.189,62708,N,0,0,0
2:54.244,62728,),0,0,1
2:54.289,62744,(,0,0,2
2:54.378,62776,t,0,0,1
2:54.469,62809,),0,0,2
2:54.692,62889,(,0,0,0
2:54.731,62903,p,0,0,0
2:54.794,62926,),0,0,0
2:54.881,62957,(,0,0,1
2:54.978,62992,N,0,0,0
2:55.033,63012,),0,0,1
2:55.069,63025,(,0,0,2
2:55.161,63058,t,0,0,1
2:55.258,63093,),0,0,2
2:55.497,63179,(,0,0,0
2:55.542,63195,p,0,0,0
2:55.611,63220,),0,0,0
2:55.694,63250,(,0,0,1
2:55.794,63286,N,0,0,0
2:55.844,63304,),0,0,1
2:55.883,63318,(,0,0,2
2:55.981,63353,t,0,0,1
2:56.078,63388,),0,0,2
2:56.294,63466,(,0,0,0
2:56.347,63485,p,0,0,0
2:56.417,63510,),0,0,0
2:56.506,63542,(,0,0,1
2:56.606,63578,N,0,0,0
2:56.647,63593,),0,0,1
2:56.694,63610,(,0,0,2
2:56.786,63643,t,0,0,4
2:56.903,63685,t,0,0,4
2:56.961,63706,),0,0,2
2:57.108,63759,(,0,0,0
2:57.156,63776,p,0,0,0
2:57.225,63801,),0,0,0
2:57.314,63833,(,0,0,1
2:57.411,63868,N,0,0,0
2:57.464,63887,),0,0,1
2:57.919,64051,(,0,0,0
2:57.967,64068,p,0,0,0
2:58.042,64095,),0,0,0
2:58.125,64125,(,0,0,1
2:58.222,64160,N,0,0,0
2:58.278,64180,),0,0,1
2:58.322,64196,(,0,0,2
2:58.414,64229,t,0,0,1
2:58.511,64264,),0,0,2
2:58.750,64350,(,0,0,0
2:58.811,64372,p,0,0,0
2:58.867,64392,),0,0,0
2:58.953,64423,(,0,0,1
2:59.047,64457,N,0,0,0
2:59.092,64473,),0,0,1
2:59.136,64489,(,0,0,2
2:59.211,64516,t,0,0,1
2:59.300,64548,),0,0,2
3:00.197,64871,(,0,0,0
3:00.239,64886,p,0,0,0
3:00.314,64913,),0,0,0
3:00.378,64936,(,0,0,1
3:00.478,64972,N,0,0,0
3:00.531,64991,),0,0,1
3:00.581,65009,(,0,0,2
3:00.661,65038,t,0,0,4
3:00.794,65086,t,0,0,4
3:00.883,65118,),0,0,2
3:01.081,65189,(,0,0,0
3:01.122,65204,p,0,0,0
3:01.189,65228,),0,0,0
3:01.272,65258,(,0,0,1
3:01.367,65292,N,0,0,0
3:01.419,65311,),0,0,1
3:01.469,65329,(,0,0,2
3:01.553,65359,t,0,0,1
3:01.653,65395,),0,0,2
3:01.908,65487,(,0,0,0
3:01.950,65502,p,0,0,0
3:02.014,65525,),0,0,0
3:02.103,65557,(,0,0,1
3:02.197,65591,N,0,0,0
3:02.256,65612,),0,0,1
3:02.297,65627,(,0,0,2
3:02.386,65659,t,0,0,1
3:02.489,65696,),0,0,2
3:02.722,65780,(,0,0,0
3:02.767,65796,p,0,0,0
3:02.831,65819,),0,0,0
3:02.922,65852,(,0,0,1
3:03.017,65886,N,0,0,0
3:03.064,65903,),0,0,1
3:03.114,65921,(,0,0,2
3:03.200,65952,t,0,0,1
3:03.300,65988,),0,0,2
3:03.528,66070,(,0,0,0
3:03.578,66088,p,0,0,0
3:03.642,66111,),0,0,0
3:03.728,66142,(,0,0,1
3:03.819,66175,N,0,0,0
3:03.875,66195,),0,0,1
3:03.917,66210,(,0,0,2
3:04.003,66241,t,0,0,1
3:04.097,66275,),0,0,2
3:04.322,66356,(,0,0,0
3:04.369,66373,p,0,0,0
3:04.433,66396,),0,0,0
3:04.522,66428,(,0,0,1
3:04.617,66462,N,0,0,0
3:04.669,66481,),0,0,1
3:04.717,66498,(,0,0,2
3:04.803,66529,t,0,0,1
3:04.897,66563,),0,0,2
3:05.153,66655,(,0,0,0
3:05.197,66671,p,0,0,0
3:05.264,66695,),0,0,0
3:05.358,66729,(,0,0,1
3:05.450,66762,N,0,0,0
3:05.508,66783,),0,0,1
3:05.544,66796,(,0,0,2
3:05.633,66828,t,0,0,1
3:05.728,66862,),0,0,2
3:05.956,66944,(,0,0,0
3:06.003,66961,p,0,0,0
3:06.072,66986,),0,0,0
3:06.164,67019,(,0,0,1
3:06.258,67053,N,0,0,0
3:06.317,67074,),0,0,1
3:06.353,67087,(,0,0,2
3:06.436,67117,t,0,0,1
3:06.533,67152,),0,0,2
3:06.772,67238,(,0,0,0
3:06.817,67254,p,0,0,0
3:06.883,67278,),0,0,0
3:06.972,67310,(,0,0,1
3:07.061,67342,N,0,0,0
3:07.114,67361,),0,0,1
3:07.158,67377,(,0,0,2
3:07.242,67407,t,0,0,1
3:07.333,67440,),0,0,2
3:07.597,67535,(,0,0,0
3:07.653,67555,p,0,0,0
3:07.714,67577,),0,0,0
3:07.794,67606,(,0,0,1
3:07.894,67642,N,0,0,0
3:07.947,67661,),0,0,1
3:07.994,67678,(,0,0,2
3:08.083,67710,t,0,0,4
3:08.231,67763,t,0,0,4
3:08.278,67780,),0,0,2
3:08.408,67827,(,0,0,0
3:08.461,67846,p,0,0,0
3:08.531,67871,),0,0,0
3:08.625,67905,(,0,0,1
3:08.714,67937,N,0,0,0
3:08.769,67957,),0,0,1
3:08.806,67970,(,0,0,2
3:08.892,68001,t,0,0,1
3:08.989,68036,),0,0,2
3:09.239,68126,(,0,0,0
3:09.278,68140,p,0,0,0
3:09.350,68166,),0,0,0
3:09.431,68195,(,0,0,1
3:09.525,68229,N,0,0,0
3:09.581,68249,),0,0,1
3:09.628,68266,(,0,0,2
3:09.714,68297,t,0,0,1
3:09.808,68331,),0,0,2
3:10.081,68429,(,0,0,0
3:10.114,68441,p,0,0,0
3:10.181,68465,),0,0,0
3:10.275,68499,(,0,0,1
3:10.369,68533,N,0,0,0
3:10.431,68555,),0,0,1
3:10.467,68568,(,0,0,2
3:10.556,68600,t,0,0,4
3:10.678,68644,t,0,0,4
3:10.761,68674,),0,0,2
3:10.908,68727,(,0,0,0
3:10.961,68746,p,0,0,0
3:11.031,68771,),0,0,0
3:11.119,68803,(,0,0,1
3:11.217,68838,N,0,0,0
3:11.269,68857,),0,0,1
3:11.308,68871,(,0,0,2
3:11.383,68898,t,0,0,1
3:11.472,68930,),0,0,2
3:12.472,69290,(,0,0,0
3:12.519,69307,p,0,0,0
3:12.594,69334,),0,0,0
3:12.661,69358,(,0,0,1
3:12.758,69393,N,0,0,0
3:12.806,69410,),0,0,1
3:12.847,69425,(,0,0,2
3:12.947,69461,t,0,0,4
3:13.075,69507,t,0,0,4
3:13.169,69541,),0,0,2
3:13.344,69604,(,0,0,0
3:13.411,69628,p,0,0,0
3:13.478,69652,),0,0,0
3:13.553,69679,(,0,0,1
3:13.650,69714,N,0,0,0
3:13.706,69734,),0,0,1
3:13.750,69750,(,0,0,2
3:13.842,69783,t,0,0,1
3:13.944,69820,),0,0,2
3:14.217,69918,(,0,0,0
3:14.267,69936,p,0,0,0
3:14.344,69964,),0,0,0
3:14.419,69991,(,0,0,1
3:14.517,70026,N,0,0,0
3:14.572,70046,),0,0,1
3:14.619,70063,(,0,0,2
3:14.703,70093,t,0,0,4
3:14.825,70137,t,0,0,4
3:14.900,70164,),0,0,2
3:15.075,70227,(,0,0,0
3:15.125,70245,p,0,0,0
3:15.197,70271,),0,0,0
3:15.256,70292,(,0,0,1
3:15.375,70335,N,0,0,0
3:15.431,70355,),0,0,1
3:15.469,70369,(,0,0,2
3:15.558,70401,t,0,0,1
3:15.650,70434,),0,0,2
3:15.903,70525,(,0,0,0
3:15.956,70544,p,0,0,0
3:16.019,70567,),0,0,0
3:16.100,70596,(,0,0,1
3:16.194,70630,N,0,0,0
3:16.247,70649,),0,0,1
3:16.306,70670,(,0,0,2
3:16.383,70698,t,0,0,1
3:16.492,70737,),0,0,2
3:16.742,70827,(,0,0,0
3:16.781,70841,p,0,0,0
3:16.847,70865,),0,0,0
3:16.931,70895,(,0,0,1
3:17.025,70929,N,0,0,0
3:17.078,70948,),0,0,1
3:17.128,70966,(,0,0,2
3:17.206,70994,t,0,0,1
3:17.308,71031,),0,0,2
3:17.556,71120,(,0,0,0
3:17.600,71136,p,0,0,0
3:17.661,71158,),0,0,0
3:17.753,71191,(,0,0,1
3:17.847,71225,N,0,0,0
3:17.903,71245,),0,0,1
3:17.939,71258,(,0,0,2
3:18.033,71292,t,0,0,1
3:18.131,71327,),0,0,2
3:18.389,71420,(,0,0,0
3:18.428,71434,p,0,0,0
3:18.492,71457,),0,0,0
3:18.578,71488,(,0,0,1
3:18.669,71521,N,0,0,0
3:18.731,71543,),0,0,1
3:18.769,71557,(,0,0,2
3:18.858,71589,t,0,0,4
3:19.036,71653,t,0,0,4
3:19.097,71675,),0,0,2
3:19.261,71734,(,0,0,1
3:19.358,71769,N,0,0,0
3:19.414,71789,),0,0,1
3:19.450,71802,(,0,0,2
3:19.539,71834,t,0,0,1
3:19.633,71868,),0,0,2
3:20.050,72018,(,0,0,0
3:20.094,72034,p,0,0,0
3:20.158,72057,),0,0,0
3:20.236,72085,(,0,0,1
3:20.331,72119,N,0,0,0
3:20.386,72139,),0,0,1
3:20.431,72155,(,0,0,2
3:20.522,72188,t,0,0,4
3:20.669,72241,t,0,0,4
3:20.736,72265,),0,0,2
3:20.897,72323,(,0,0,1
3:20.992,72357,N,0,0,0
3:21.047,72377,),0,0,1
3:21.083,72390,(,0,0,2
3:21.167,72420,t,0,0,1
3:21.264,72455,),0,0,2
3:21.731,72623,(,0,0,0
3:21.786,72643,p,0,0,0
3:21.867,72672,),0,0,0
3:21.939,72698,(,0,0,1
3:22.044,72736,N,0,0,0
3:22.100,72756,),0,0,1
3:22.136,72769,(,0,0,2
3:22.228,72802,t,0,0,4
3:22.356,72848,t,0,0,4
3:22.436,72877,),0,0,2
3:22.619,72943,(,0,0,0
3:22.675,72963,p,0,0,0
3:22.753,72991,),0,0,0
3:22.828,73018,(,0,0,1
3:22.931,73055,N,0,0,0
3:22.978,73072,),0,0,1
3:23.039,73094,(,0,0,2
3:23.119,73123,t,0,0,1
3:23.211,73156,),0,0,2
3:23.494,73258,(,0,0,0
3:23.542,73275,p,0,0,0
3:23.625,73305,),0,0,0
3:23.700,73332,(,0,0,1
3:23.794,73366,N,0,0,0
3:23.842,73383,),0,0,1
3:23.875,73395,(,0,0,2
3:23.972,73430,t,0,0,4
3:24.111,73480,t,0,0,4
3:24.186,73507,),0,0,2
3:24.344,73564,(,0,0,0
3:24.422,73592,p,0,0,0
3:24.486,73615,),0,0,0
3:24.567,73644,(,0,0,1
3:24.669,73681,N,0,0,0
3:24.719,73699,),0,0,1
3:24.761,73714,(,0,0,2
3:24.853,73747,t,0,0,1
3:24.947,73781,),0,0,2
3:25.200,73872,(,0,0,0
3:25.272,73898,p,0,0,0
3:25.339,73922,),0,0,0
3:25.422,73952,(,0,0,1
3:25.519,73987,N,0,0,0
3:25.572,74006,),0,0,1
3:25.611,74020,(,0,0,2
3:25.697,74051,t,0,0,1
3:25.794,74086,),0,0,2
3:26.042,74175,(,0,0,0
3:26.094,74194,p,0,0,0
3:26.161,74218,),0,0,0
3:26.250,74250,(,0,0,1
3:26.344,74284,N,0,0,0
3:26.392,74301,),0,0,1
3:26.456,74324,(,0,0,2
3:26.539,74354,t,0,0,4
3:26.658,74397,t,0,0,4
3:26.692,74409,),0,0,2
3:26.908,74487,(,0,0,0
3:26.958,74505,p,0,0,0
3:27.014,74525,),0,0,0
3:27.106,74558,(,0,0,1
3:27.203,74593,N,0,0,0
3:27.247,74609,),0,0,1
3:27.300,74628,(,0,0,2
3:27.392,74661,t,0,0,1
3:27.486,74695,),0,0,2
3:27.744,74788,(,0,0,0
3:27.800,74808,p,0,0,0
3:27.861,74830,),0,0,0
3:27.939,74858,(,0,0,1
3:28.036,74893,N,0,0,0
3:28.078,74908,),0,0,1
3:28.136,74929,(,0,0,2
3:28.219,74959,t,0,0,1
3:28.322,74996,),0,0,2
3:28.553,75079,(,0,0,0
3:28.594,75094,p,0,0,0
3:28.675,75123,),0,0,0
3:28.756,75152,(,0,0,1
3:28.856,75188,N,0,0,0
3:28.892,75201,),0,0,1
3:28.944,75220,(,0,0,2
3:29.028,75250,t,0,0,4
3:29.167,75300,t,0,0,4
3:29.203,75313,),0,0,2
3:29.347,75365,(,0,0,0
3:29.406,75386,p,0,0,0
3:29.464,75407,),0,0,0
3:29.528,75430,(,0,0,1
3:29.658,75477,N,0,0,0
3:29.694,75490,),0,0,1
3:29.753,75511,(,0,0,2
3:29.836,75541,t,0,0,4
3:29.967,75588,t,0,0,4
3:30.022,75608,),0,0,2
3:30.186,75667,(,0,0,0
3:30.247,75689,p,0,0,0
3:30.306,75710,),0,0,0
3:30.364,75731,(,0,0,1
3:30.489,75776,N,0,0,0
3:30.522,75788,),0,0,1
3:30.578,75808,(,0,0,2
3:30.667,75840,t,0,0,4
3:30.800,75888,t,0,0,4
3:30.864,75911,),0,0,2
3:31.008,75963,(,0,0,0
3:31.058,75981,p,0,0,0
3:31.128,76006,),0,0,0
3:31.222,76040,(,0,0,1
3:31.322,76076,N,0,0,0
3:31.361,76090,),0,0,1
3:31.408,76107,(,0,0,2
3:31.500,76140,t,0,0,1
3:31.606,76178,),0,0,2
3:31.858,76269,(,0,0,0
3:31.900,76284,p,0,0,0
3:31.969,76309,),0,0,0
3:32.053,76339,(,0,0,1
3:32.147,76373,N,0,0,0
3:32.206,76394,),0,0,1
3:32.236,76405,(,0,0,2
3:32.319,76435,t,0,0,1
3:32.422,76472,),0,0,2
3:32.683,76566,(,0,0,0
3:32.736,76585,p,0,0,0
3:32.800,76608,),0,0,0
3:32.886,76639,(,0,0,1
3:32.986,76675,N,0,0,0
3:33.036,76693,),0,0,1
3:33.081,76709,(,0,0,2
3:33.164,76739,t,0,0,1
3:33.264,76775,),0,0,2
3:33.514,76865,(,0,0,0
3:33.556,76880,p,0,0,0
3:33.628,76906,),0,0,0
3:33.719,76939,(,0,0,1
3:33.817,76974,N,0,0,0
3:33.872,76994,),0,0,1
3:33.911,77008,(,0,0,2
3:34.000,77040,t,0,0,4
3:34.122,77084,t,0,0,4
3:34.208,77115,),0,0,2
3:34.350,77166,(,0,0,0
3:34.400,77184,p,0,0,0
3:34.467,77208,),0,0,0
3:34.553,77239,(,0,0,1
3:34.650,77274,N,0,0,0
3:34.700,77292,),0,0,1
3:34.747,77309,(,0,0,2
3:34.839,77342,t,0,0,4
3:34.956,77384,t,0,0,4
3:35.019,77407,),0,0,2
3:35.192,77469,(,0,0,0
3:35.236,77485,p,0,0,0
3:35.303,77509,),0,0,0
3:35.394,77542,(,0,0,1
3:35.492,77577,N,0,0,0
3:35.533,77592,),0,0,1
3:35.583,77610,(,0,0,2
3:35.683,77646,t,0,0,1
3:35.781,77681,),0,0,2
3:36.036,77773,(,0,0,0
3:36.078,77788,p,0,0,0
3:36.139,77810,),0,0,0
3:36.233,77844,(,0,0,1
3:36.331,77879,N,0,0,0
3:36.375,77895,),0,0,1
3:36.428,77914,(,0,0,2
3:36.514,77945,t,0,0,4
3:36.639,77990,t,0,0,4
3:36.722,78020,),0,0,2
3:36.881,78077,(,0,0,0
3:36.922,78092,p,0,0,0
3:36.986,78115,),0,0,0
3:37.067,78144,(,0,0,1
3:37.164,78179,N,0,0,0
3:37.208,78195,),0,0,1
3:37.264,78215,(,0,0,2
3:37.347,78245,t,0,0,4
3:37.461,78286,t,0,0,4
3:37.528,78310,),0,0,2
3:37.689,78368,(,0,0,0
3:37.742,78387,p,0,0,0
3:37.811,78412,),0,0,0
3:37.897,78443,(,0,0,1
3:37.997,78479,N,0,0,0
3:38.044,78496,),0,0,1
3:38.103,78517,(,0,0,2
3:38.181,78545,t,0,0,1
3:38.278,78580,),0,0,2
3:38.542,78675,(,0,0,0
3:38.594,78694,p,0,0,0
3:38.667,78720,),0,0,0
3:38.753,78751,(,0,0,1
3:38.850,78786,N,0,0,0
3:38.894,78802,),0,0,1
3:38.950,78822,(,0,0,2
3:39.033,78852,t,0,0,4
3:39.153,78895,t,0,0,4
3:39.225,78921,),0,0,2
3:39.397,78983,(,0,0,0
3:39.444,79000,p,0,0,0
3:39.511,79024,),0,0,0
3:39.603,79057,(,0,0,1
3:39.700,79092,N,0,0,0
3:39.747,79109,),0,0,1
3:39.794,79126,(,0,0,2
3:39.883,79158,t,0,0,4
3:39.992,79197,t,0,0,4
3:40.083,79230,),0,0,2
3:40.244,79288,(,0,0,0
3:40.297,79307,p,0,0,0
3:40.361,79330,),0,0,0
3:40.442,79359,(,0,0,1
3:40.539,79394,N,0,0,0
3:40.581,79409,),0,0,1
3:40.622,79424,(,0,0,2
3:40.719,79459,t,0,0,4
3:40.839,79502,t,0,0,4
3:40.908,79527,),0,0,2
3:41.083,79590,(,0,0,0
3:41.119,79603,p,0,0,0
3:41.189,79628,),0,0,0
3:41.278,79660,(,0,0,1
3:41.375,79695,N,0,0,0
3:41.425,79713,),0,0,1
3:41.472,79730,(,0,0,2
3:41.558,79761,t,0,0,1
3:41.653,79795,),0,0,2
3:41.906,79886,(,0,0,0
3:41.961,79906,p,0,0,0
3:42.028,79930,),0,0,0
3:42.119,79963,(,0,0,1
3:42.206,79994,N,0,0,0
3:42.253,80011,),0,0,1
3:42.303,80029,(,0,0,2
3:42.389,80060,t,0,0,4
3:42.514,80105,t,0,0,4
3:42.572,80126,),0,0,2
3:42.739,80186,(,0,0,0
3:42.814,80213,p,0,0,0
3:42.861,80230,),0,0,0
3:42.956,80264,(,0,0,1
3:43.050,80298,N,0,0,0
3:43.106,80318,),0,0,1
3:43.150,80334,(,0,0,2
3:43.233,80364,t,0,0,4
3:43.514,80465,t,0,0,4
3:43.544,80476,),0,0,2
3:43.622,80504,(,0,0,0
3:43.661,80518,p,0,0,0
3:43.742,80547,),0,0,0
3:43.822,80576,(,0,0,1
3:43.922,80612,N,0,0,0
3:43.964,80627,),0,0,1
3:44.014,80645,(,0,0,2
3:44.100,80676,t,0,0,1
3:44.194,80710,),0,0,2
3:44.267,80736,(,0,0,0
3:44.364,80771,p,0,0,0
3:44.419,80791,),0,0,0
3:44.472,80810,(,0,0,1
3:44.547,80837,N,0,0,0
3:44.675,80883,),0,0,1
3:44.694,80890,(,0,0,2
3:44.772,80918,t,0,0,1
3:44.969,80989,),0,0,2
3:45.297,81107,(,0,0,0
3:45.325,81117,p,0,0,0
3:45.394,81142,),0,0,0
3:45.442,81159,(,0,0,1
3:45.575,81207,N,0,0,0
3:45.619,81223,),0,0,1
3:45.672,81242,(,0,0,2
3:45.761,81274,t,0,0,4
3:45.889,81320,t,0,0,4
3:45.939,81338,),0,0,2
3:46.103,81397,(,0,0,0
3:46.161,81418,p,0,0,0
3:46.231,81443,),0,0,0
3:46.303,81469,(,0,0,1
3:46.414,81509,N,0,0,0
3:46.458,81525,),0,0,1
3:46.508,81543,(,0,0,2
3:46.608,81579,t,0,0,1
3:46.706,81614,),0,0,2
3:46.972,81710,(,0,0,0
3:47.014,81725,p,0,0,0
3:47.081,81749,),0,0,0
3:47.164,81779,(,0,0,1
3:47.264,81815,N,0,0,0
3:47.303,81829,),0,0,1
3:47.350,81846,(,0,0,2
3:47.444,81880,t,0,0,4
3:47.603,81937,t,0,0,4
3:47.642,81951,),0,0,2
3:47.794,82006,(,0,0,0
3:47.839,82022,p,0,0,0
3:47.889,82040,),0,0,0
3:47.958,82065,(,0,0,1
3:48.081,82109,N,0,0,0
3:48.131,82127,),0,0,1
3:48.183,82146,(,0,0,2
3:48.267,82176,t,0,0,4
3:48.403,82225,t,0,0,4
3:48.433,82236,),0,0,2
3:48.603,82297,(,0,0,0
3:48.650,82314,p,0,0,0
3:48.719,82339,),0,0,0
3:48.803,82369,(,0,0,1
3:48.897,82403,N,0,0,0
3:48.939,82418,),0,0,1
3:48.983,82434,(,0,0,2
3:49.075,82467,t,0,0,4
3:49.200,82512,t,0,0,4
3:49.256,82532,),0,0,2
3:49.414,82589,(,0,0,0
3:49.472,82610,p,0,0,0
3:49.528,82630,),0,0,0
3:49.617,82662,(,0,0,1
3:49.714,82697,N,0,0,0
3:49.761,82714,),0,0,1
3:49.803,82729,(,0,0,2
3:49.892,82761,t,0,0,4
3:50.011,82804,t,0,0,4
3:50.069,82825,),0,0,2
3:50.239,82886,(,0,0,0
3:50.308,82911,p,0,0,0
3:50.350,82926,),0,0,0
3:50.433,82956,(,0,0,1
3:50.533,82992,N,0,0,0
3:50.581,83009,),0,0,1
3:50.617,83022,(,0,0,2
3:50.717,83058,t,0,0,4
3:50.844,83104,t,0,0,4
3:50.911,83128,),0,0,2
3:51.044,83176,(,0,0,0
3:51.097,83195,p,0,0,0
3:51.164,83219,),0,0,0
3:51.250,83250,(,0,0,1
3:51.347,83285,N,0,0,0
3:51.389,83300,),0,0,1
3:51.436,83317,(,0,0,2
3:51.533,83352,t,0,0,1
3:51.625,83385,),0,0,2
3:51.861,83470,(,0,0,0
3:51.911,83488,p,0,0,0
3:51.978,83512,),0,0,0
3:52.050,83538,(,0,0,1
3:52.158,83577,N,0,0,0
3:52.197,83591,),0,0,1
3:52.247,83609,(,0,0,2
3:52.353,83647,t,0,0,4
3:52.514,83705,t,0,0,4
3:52.536,83713,),0,0,2
3:52.678,83764,(,0,0,0
3:52.742,83787,p,0,0,0
3:52.792,83805,),0,0,0
3:52.878,83836,(,0,0,1
3:52.978,83872,N,0,0,0
3:53.014,83885,),0,0,1
3:53.061,83902,(,0,0,2
3:53.158,83937,t,0,0,4
3:53.292,83985,t,0,0,4
3:53.350,84006,),0,0,2
3:53.467,84048,(,0,0,0
3:53.539,84074,p,0,0,0
3:53.597,84095,),0,0,0
3:53.681,84125,(,0,0,1
3:53.778,84160,N,0,0,0
3:53.814,84173,),0,0,1
3:53.869,84193,(,0,0,2
3:53.956,84224,t,0,0,4
3:54.111,84280,t,0,0,4
3:54.136,84289,),0,0,2
3:54.278,84340,(,0,0,0
3:54.336,84361,p,0,0,0
3:54.389,84380,),0,0,0
3:54.461,84406,(,0,0,1
3:54.569,84445,N,0,0,0
3:54.606,84458,),0,0,1
3:55.061,84622,(,0,0,0
3:55.119,84643,p,0,0,0
3:55.181,84665,),0,0,0
3:55.244,84688,(,0,0,1
3:55.372,84734,N,0,0,0
3:55.400,84744,),0,0,1
3:55.444,84760,(,0,0,2
3:55.550,84798,t,0,0,4
3:55.672,84842,t,0,0,4
3:55.706,84854,),0,0,2
3:55.869,84913,(,0,0,0
3:55.919,84931,p,0,0,0
3:55.992,84957,),0,0,0
3:56.050,84978,(,0,0,1
3:56.172,85022,N,0,0,0
3:56.208,85035,),0,0,1
3:56.267,85056,(,0,0,2
3:56.356,85088,t,0,0,4
3:56.494,85138,t,0,0,4
3:56.539,85154,),0,0,2
3:56.683,85206,(,0,0,0
3:56.736,85225,p,0,0,0
3:56.808,85251,),0,0,0
3:56.878,85276,(,0,0,1
3:56.975,85311,N,0,0,0
3:57.011,85324,),0,0,1
3:57.053,85339,(,0,0,2
3:57.142,85371,t,0,0,1
3:57.253,85411,),0,0,2
3:57.483,85494,(,0,0,0
3:57.528,85510,p,0,0,0
3:57.606,85538,),0,0,0
3:57.681,85565,(,0,0,1
3:57.783,85602,N,0,0,0
3:57.828,85618,),0,0,1
3:57.878,85636,(,0,0,2
3:57.978,85672,t,0,0,1
3:58.075,85707,),0,0,2
3:58.283,85782,(,0,0,0
3:58.336,85801,p,0,0,0
3:58.408,85827,),0,0,0
3:58.489,85856,(,0,0,1
3:58.592,85893,N,0,0,0
3:58.633,85908,),0,0,1
3:58.681,85925,(,0,0,2
3:58.767,85956,t,0,0,4
3:58.917,86010,t,0,0,4
3:58.942,86019,),0,0,2
3:59.089,86072,(,0,0,0
3:59.133,86088,p,0,0,0
3:59.214,86117,),0,0,0
3:59.278,86140,(,0,0,1
3:59.389,86180,N,0,0,0
3:59.436,86197,),0,0,1
3:59.478,86212,(,0,0,2
3:59.575,86247,t,0,0,1
3:59.669,86281,),0,0,2
3:59.900,86364,(,0,0,0
3:59.944,86380,p,0,0,0
4:00.036,86413,),0,0,0
4:00.078,86428,(,0,0,1
4:00.200,86472,N,0,0,0
4:00.256,86492,),0,0,1
4:00.308,86511,(,0,0,2
4:00.397,86543,t,0,0,1
4:00.503,86581,),0,0,2
4:00.725,86661,(,0,0,0
4:00.772,86678,p,0,0,0
4:00.844,86704,),0,0,0
4:00.931,86735,(,0,0,1
4:01.028,86770,N,0,0,0
4:01.075,86787,),0,0,1
4:01.122,86804,(,0,0,2
4:01.206,86834,t,0,0,4
4:01.325,86877,t,0,0,4
4:01.381,86897,),0,0,2
4:01.514,86945,(,0,0,0
4:01.561,86962,p,0,0,0
4:01.639,86990,),0,0,0
4:01.717,87018,(,0,0,1
4:01.811,87052,N,0,0,0
4:01.858,87069,),0,0,1
4:01.917,87090,(,0,0,2
4:01.997,87119,t,0,0,1
4:02.100,87156,),0,0,2
4:02.303,87229,(,0,0,0
4:02.361,87250,p,0,0,0
4:02.433,87276,),0,0,0
4:02.511,87304,(,0,0,1
4:02.608,87339,N,0,0,0
4:02.658,87357,),0,0,1
4:02.700,87372,(,0,0,2
4:02.792,87405,t,0,0,1
4:02.889,87440,),0,0,2
4:03.131,87527,(,0,0,0
4:03.172,87542,p,0,0,0
4:03.250,87570,),0,0,0
4:03.342,87603,(,0,0,1
4:03.436,87637,N,0,0,0
4:03.481,87653,),0,0,1
4:03.536,87673,(,0,0,2
4:03.622,87704,t,0,0,1
4:03.714,87737,),0,0,2
4:03.942,87819,(,0,0,0
4:03.983,87834,p,0,0,0
4:04.044,87856,),0,0,0
4:04.133,87888,(,0,0,1
4:04.225,87921,N,0,0,0
4:04.286,87943,),0,0,1
4:04.325,87957,(,0,0,2
4:04.411,87988,t,0,0,1
4:04.514,88025,),0,0,2
4:04.758,88113,(,0,0,0
4:04.806,88130,p,0,0,0
4:04.875,88155,),0,0,0
4:04.967,88188,(,0,0,1
4:05.053,88219,N,0,0,0
4:05.106,88238,),0,0,1
4:05.150,88254,(,0,0,2
4:05.231,88283,t,0,0,1
4:05.322,88316,),0,0,2
4:05.567,88404,(,0,0,0
4:05.611,88420,p,0,0,0
4:05.683,88446,),0,0,0
4:05.772,88478,(,0,0,1
4:05.869,88513,N,0,0,0
4:05.928,88534,),0,0,1
4:05.978,88552,(,0,0,2
4:06.056,88580,t,0,0,1
4:06.150,88614,),0,0,2
4:06.389,88700,(,0,0,0
4:06.439,88718,p,0,0,0
4:06.514,88745,),0,0,0
4:06.597,88775,(,0,0,1
4:06.689,88808,N,0,0,0
4:06.744,88828,),0,0,1
4:06.778,88840,(,0,0,2
4:06.861,88870,t,0,0,1
4:06.956,88904,),0,0,2
4:07.239,89006,(,0,0,0
4:07.294,89026,p,0,0,0
4:07.342,89043,),0,0,0
4:07.419,89071,(,0,0,1
4:07.544,89116,N,0,0,0
4:07.589,89132,),0,0,1
4:07.639,89150,(,0,0,2
4:07.733,89184,t,0,0,4
4:07.861,89230,t,0,0,4
4:07.972,89270,),0,0,2
4:08.061,89302,(,0,0,0
4:08.119,89323,p,0,0,0
4:08.186,89347,),0,0,0
4:08.244,89368,(,0,0,1
4:08.375,89415,N,0,0,0
4:08.422,89432,),0,0,1
4:08.492,89457,(,0,0,2
4:08.564,89483,t,0,0,4
4:08.719,89539,t,0,0,4
4:08.756,89552,),0,0,2
4:08.919,89611,(,0,0,0
4:08.986,89635,p,0,0,0
4:09.036,89653,),0,0,0
4:09.122,89684,(,0,0,1
4:09.222,89720,N,0,0,0
4:09.269,89737,),0,0,1
4:09.311,89752,(,0,0,2
4:09.394,89782,t,0,0,1
4:09.492,89817,),0,0,2
4:09.747,89909,(,0,0,0
4:09.803,89929,p,0,0,0
4:09.858,89949,),0,0,0
4:09.944,89980,(,0,0,1
4:10.047,90017,N,0,0,0
4:10.097,90035,),0,0,1
4:10.142,90051,(,0,0,2
4:10.231,90083,t,0,0,1
4:10.325,90117,),0,0,2
4:10.581,90209,(,0,0,0
4:10.631,90227,p,0,0,0
4:10.700,90252,),0,0,0
4:10.783,90282,(,0,0,1
4:10.878,90316,N,0,0,0
4:10.931,90335,),0,0,1
4:10.967,90348,(,0,0,2
4:11.067,90384,t,0,0,1
4:11.161,90418,),0,0,2
4:11.444,90520,(,0,0,0
4:11.483,90534,p,0,0,0
4:11.553,90559,),0,0,0
4:11.650,90594,(,0,0,1
4:11.747,90629,N,0,0,0
4:11.800,90648,),0,0,1
4:11.836,90661,(,0,0,2
4:11.928,90694,t,0,0,1
4:12.028,90730,),0,0,2
4:12.314,90833,(,0,0,0
4:12.372,90854,p,0,0,0
4:12.428,90874,),0,0,0
4:12.492,90897,(,0,0,1
4:12.617,90942,N,0,0,0
4:12.667,90960,),0,0,1
4:12.717,90978,(,0,0,2
4:12.797,91007,t,0,0,1
4:12.906,91046,),0,0,2
4:13.164,91139,(,0,0,0
4:13.200,91152,p,0,0,0
4:13.278,91180,),0,0,0
4:13.353,91207,(,0,0,1
4:13.447,91241,N,0,0,0
4:13.492,91257,),0,0,1
4:13.525,91269,(,0,0,2
4:13.617,91302,t,0,0,1
4:13.711,91336,),0,0,2
4:13.989,91436,(,0,0,0
4:14.039,91454,p,0,0,0
4:14.108,91479,),0,0,0
4:14.197,91511,(,0,0,1
4:14.303,91549,N,0,0,0
4:14.353,91567,),0,0,1
4:14.397,91583,(,0,0,2
4:14.478,91612,t,0,0,4
4:14.600,91656,t,0,0,4
4:14.653,91675,),0,0,2
4:14.856,91748,(,0,0,0
4:14.900,91764,p,0,0,0
4:14.969,91789,),0,0,0
4:15.056,91820,(,0,0,1
4:15.153,91855,N,0,0,0
4:15.203,91873,),0,0,1
4:15.253,91891,(,0,0,2
4:15.339,91922,t,0,0,1
4:15.439,91958,),0,0,2
4:15.717,92058,(,0,0,0
4:15.764,92075,p,0,0,0
4:15.828,92098,),0,0,0
4:15.917,92130,(,0,0,1
4:16.011,92164,N,0,0,0
4:16.064,92183,),0,0,1
4:16.097,92195,(,0,0,2
4:16.189,92228,t,0,0,4
4:16.308,92271,t,0,0,4
4:16.381,92297,),0,0,2
4:16.572,92366,(,0,0,0
4:16.625,92385,p,0,0,0
4:16.697,92411,),0,0,0
4:16.789,92444,(,0,0,1
4:16.889,92480,N,0,0,0
4:16.947,92501,),0,0,1
4:16.986,92515,(,0,0,2
4:17.081,92549,t,0,0,1
4:17.175,92583,),0,0,2
4:17.475,92691,(,0,0,0
4:17.514,92705,p,0,0,0
4:17.583,92730,),0,0,0
4:17.672,92762,(,0,0,1
4:17.767,92796,N,0,0,0
4:17.825,92817,),0,0,1
4:17.864,92831,(,0,0,2
4:17.953,92863,t,0,0,1
4:18.044,92896,),0,0,2
4:18.342,93003,(,0,0,0
4:18.392,93021,p,0,0,0
4:18.456,93044,),0,0,0
4:18.544,93076,(,0,0,1
4:18.642,93111,N,0,0,0
4:18.694,93130,),0,0,1
4:18.733,93144,(,0,0,2
4:18.822,93176,t,0,0,1
4:18.928,93214,),0,0,2
4:19.225,93321,(,0,0,0
4:19.272,93338,p,0,0,0
4:19.344,93364,),0,0,0
4:19.444,93400,(,0,0,1
4:19.544,93436,N,0,0,0
4:19.603,93457,),0,0,1
4:19.636,93469,(,0,0,2
4:19.728,93502,t,0,0,1
4:19.828,93538,),0,0,2
4:20.119,93643,(,0,0,0
4:20.172,93662,p,0,0,0
4:20.242,93687,),0,0,0
4:20.331,93719,(,0,0,1
4:20.428,93754,N,0,0,0
4:20.475,93771,),0,0,1
4:20.519,93787,(,0,0,2
4:20.617,93822,t,0,0,4
4:20.736,93865,t,0,0,4
4:20.819,93895,),0,0,2
4:21.017,93966,(,0,0,0
4:21.072,93986,p,0,0,0
4:21.122,94004,),0,0,0
4:21.189,94028,(,0,0,1
4:21.311,94072,N,0,0,0
4:21.350,94086,),0,0,1
4:21.408,94107,(,0,0,2
4:21.481,94133,t,0,0,1
4:21.600,94176,),0,0,2
4:21.842,94263,(,0,0,0
4:21.881,94277,p,0,0,0
4:21.956,94304,),0,0,0
4:22.047,94337,(,0,0,1
4:22.147,94373,N,0,0,0
4:22.194,94390,),0,0,1
4:22.242,94407,(,0,0,2
4:22.336,94441,t,0,0,1
4:22.431,94475,),0,0,2
4:22.719,94579,(,0,0,0
4:22.772,94598,p,0,0,0
4:22.825,94617,),0,0,0
4:22.917,94650,(,0,0,1
4:23.017,94686,N,0,0,0
4:23.050,94698,),0,0,1
4:23.100,94716,(,0,0,2
4:23.369,94813,t,0,0,1
4:23.583,94890,),0,0,2
4:23.614,94901,(,0,0,0
4:23.639,94910,p,0,0,0
4:23.667,94920,),0,0,0
4:23.700,94932,(,0,0,1
4:23.864,94991,N,0,0,0
4:23.897,95003,),0,0,1
4:23.975,95031,(,0,0,2
4:24.044,95056,t,0,0,1
4:24.147,95093,),0,0,2
4:24.422,95192,(,0,0,0
4:24.472,95210,p,0,0,0
4:24.542,95235,),0,0,0
4:24.628,95266,(,0,0,1
4:24.725,95301,N,0,0,0
4:24.767,95316,),0,0,1
4:24.811,95332,(,0,0,2
4:24.911,95368,t,0,0,4
4:25.050,95418,t,0,0,4
4:25.119,95443,),0,0,2
4:25.250,95490,(,0,0,0
4:25.297,95507,p,0,0,0
4:25.364,95531,),0,0,0
4:25.453,95563,(,0,0,1
4:25.547,95597,N,0,0,0
4:25.586,95611,),0,0,1
4:25.636,95629,(,0,0,2
4:25.722,95660,t,0,0,4
4:25.933,95736,t,0,0,4
4:25.983,95754,),0,0,2
4:26.053,95779,(,0,0,0
4:26.111,95800,p,0,0,0
4:26.172,95822,),0,0,0
4:26.264,95855,(,0,0,1
4:26.361,95890,N,0,0,0
4:26.400,95904,),0,0,1
4:26.439,95918,(,0,0,2
4:26.539,95954,t,0,0,1
4:26.642,95991,),0,0,2
4:26.881,96077,(,0,0,0
4:26.917,96090,p,0,0,0
4:26.981,96113,),0,0,0
4:27.069,96145,(,0,0,1
4:27.169,96181,N,0,0,0
4:27.206,96194,),0,0,1
4:27.658,96357,(,0,0,0
4:27.706,96374,p,0,0,0
4:27.775,96399,),0,0,0
4:27.864,96431,(,0,0,1
4:27.964,96467,N,0,0,0
4:28.000,96480,),0,0,1
4:28.044,96496,(,0,0,2
4:28.144,96532,t,0,0,4
4:28.250,96570,t,0,0,4
4:28.339,96602,),0,0,2
4:28.483,96654,(,0,0,0
4:28.533,96672,p,0,0,0
4:28.594,96694,),0,0,0
4:28.683,96726,(,0,0,1
4:28.781,96761,N,0,0,0
4:28.831,96779,),0,0,1
4:28.869,96793,(,0,0,2
4:28.967,96828,t,0,0,4
4:29.097,96875,t,0,0,4
4:29.164,96899,),0,0,2
4:29.308,96951,(,0,0,0
4:29.353,96967,p,0,0,0
4:29.417,96990,),0,0,0
4:29.500,97020,(,0,0,1
4:29.594,97054,N,0,0,0
4:29.642,97071,),0,0,1
4:29.683,97086,(,0,0,2
4:29.775,97119,t,0,0,1
4:29.853,97147,),0,0,2
4:30.106,97238,(,0,0,0
4:30.147,97253,p,0,0,0
4:30.211,97276,),0,0,0
4:30.297,97307,(,0,0,1
4:30.392,97341,N,0,0,0
4:30.444,97360,),0,0,1
4:30.489,97376,(,0,0,2
4:30.578,97408,t,0,0,4
4:30.706,97454,t,0,0,4
4:30.778,97480,),0,0,2
4:30.897,97523,(,0,0,0
4:30.947,97541,p,0,0,0
4:31.022,97568,),0,0,0
4:31.111,97600,(,0,0,1
4:31.208,97635,N,0,0,0
4:31.264,97655,),0,0,1
4:31.314,97673,(,0,0,2
4:31.392,97701,t,0,0,1
4:31.494,97738,),0,0,2
4:31.719,97819,(,0,0,0
4:31.772,97838,p,0,0,0
4:31.847,97865,),0,0,0
4:31.933,97896,(,0,0,1
4:32.025,97929,N,0,0,0
4:32.081,97949,),0,0,1
4:32.128,97966,(,0,0,2
4:32.211,97996,t,0,0,4
4:32.344,98044,t,0,0,4
4:32.394,98062,),0,0,2
4:32.533,98112,(,0,0,0
4:32.594,98134,p,0,0,0
4:32.661,98158,),0,0,0
4:32.725,98181,(,0,0,1
4:32.850,98226,N,0,0,0
4:32.906,98246,),0,0,1
4:32.956,98264,(,0,0,2
4:33.039,98294,t,0,0,1
4:33.144,98332,),0,0,2
4:33.400,98424,(,0,0,0
4:33.436,98437,p,0,0,0
4:33.511,98464,),0,0,0
4:33.564,98483,(,0,0,1
4:33.689,98528,N,0,0,0
4:33.744,98548,),0,0,1
4:33.800,98568,(,0,0,2
4:33.869,98593,t,0,0,1
4:33.972,98630,),0,0,2
4:34.211,98716,(,0,0,0
4:34.267,98736,p,0,0,0
4:34.333,98760,),0,0,0
4:34.425,98793,(,0,0,1
4:34.522,98828,N,0,0,0
4:34.583,98850,),0,0,1
4:34.622,98864,(,0,0,2
4:34.700,98892,t,0,0,4
4:34.778,98920,t,0,0,4
4:34.803,98929,),0,0,2
4:34.817,98934,(,0,0,0
4:34.892,98961,p,0,0,0
4:34.936,98977,),0,0,0
4:34.997,98999,(,0,0,1
4:35.117,99042,N,0,0,0
4:35.172,99062,),0,0,1
4:35.208,99075,(,0,0,2
4:35.297,99107,t,0,0,1
4:35.389,99140,),0,0,2
4:35.939,99338,(,0,0,1
4:36.033,99372,N,0,0,0
4:36.081,99389,),0,0,1
4:36.167,99420,(,0,0,2
4:36.211,99436,t,0,0,4
4:36.347,99485,t,0,0,4
4:36.389,99500,),0,0,2
4:36.786,99643,(,0,0,1
4:36.886,99679,N,0,0,0
4:36.928,99694,),0,0,1
4:36.992,99717,(,0,0,2
4:37.064,99743,t,0,0,4
4:37.200,99792,t,0,0,4
4:37.272,99818,),0,0,2
4:37.597,99935,(,0,0,1
4:37.692,99969,N,0,0,0
4:37.733,99984,),0,0,1
4:37.786,100003,(,0,0,2
4:37.869,100033,t,0,0,4
4:38.000,100080,t,0,0,4
4:38.058,100101,),0,0,2
4:38.411,100228,(,0,0,1
4:38.494,100258,N,0,0,0
4:38.542,100275,),0,0,1
4:38.603,100297,(,0,0,2
4:38.678,100324,t,0,0,4
4:38.939,100418,t,0,0,4
4:38.956,100424,),0,0,2
4:39.219,100519,(,0,0,1
4:39.261,100534,N,0,0,0
4:39.353,100567,),0,0,1
4:39.406,100586,(,0,0,2
4:39.489,100616,t,0,0,1
4:39.600,100656,),0,0,2
4:39.806,100730,(,0,0,1
4:39.883,100758,N,0,0,0
4:39.969,100789,),0,0,1
4:40.008,100803,(,0,0,2
4:40.100,100836,t,0,0,1
4:40.186,100867,),0,0,2
4:40.717,101058,(,0,0,1
4:40.817,101094,N,0,0,0
4:40.867,101112,),0,0,1
4:40.925,101133,(,0,0,2
4:40.997,101159,t,0,0,4
4:41.128,101206,t,0,0,4
4:41.194,101230,),0,0,2
4:41.583,101370,(,0,0,1
4:41.622,101384,N,0,0,0
4:41.714,101417,),0,0,1
4:41.767,101436,(,0,0,2
4:41.850,101466,t,0,0,1
4:41.953,101503,),0,0,2
4:42.381,101657,(,0,0,1
4:42.417,101670,N,0,0,0
4:42.508,101703,),0,0,1
4:42.564,101723,(,0,0,2
4:42.644,101752,t,0,0,4
4:42.761,101794,t,0,0,4
4:42.836,101821,),0,0,2
4:43.172,101942,(,0,0,1
4:43.219,101959,N,0,0,0
4:43.311,101992,),0,0,1
4:43.364,102011,(,0,0,2
4:43.456,102044,t,0,0,1
4:43.544,102076,),0,0,2
4:43.997,102239,(,0,0,1
4:44.083,102270,N,0,0,0
4:44.131,102287,),0,0,1
4:44.178,102304,(,0,0,2
4:44.272,102338,t,0,0,1
4:44.394,102382,),0,0,2
4:44.636,102469,(,0,0,1
4:44.686,102487,N,0,0,0
4:44.775,102519,),0,0,1
4:44.817,102534,(,0,0,2
4:44.911,102568,t,0,0,1
4:45.008,102603,),0,0,2
4:45.567,102804,(,0,0,1
4:45.664,102839,N,0,0,0
4:45.706,102854,),0,0,1
4:45.767,102876,(,0,0,2
4:45.850,102906,t,0,0,4
4:45.975,102951,t,0,0,4
4:46.061,102982,),0,0,2
4:46.469,103129,(,0,0,1
4:46.561,103162,N,0,0,0
4:46.606,103178,),0,0,1
4:46.661,103198,(,0,0,2
4:46.717,103218,t,0,0,1
4:46.839,103262,),0,0,2
4:47.931,103655,(,0,0,1
4:48.022,103688,N,0,0,0
4:48.058,103701,),0,0,1
4:48.111,103720,(,0,0,2
4:48.206,103754,t,0,0,4
4:48.350,103806,t,0,0,4
4:48.425,103833,),0,0,2
4:48.842,103983,(,0,0,1
4:48.878,103996,N,0,0,0
4:48.972,104030,),0,0,1
4:49.039,104054,(,0,0,2
4:49.114,104081,t,0,0,4
4:49.272,104138,t,0,0,4
4:49.303,104149,),0,0,2
4:49.672,104282,(,0,0,1
4:49.711,104296,N,0,0,0
4:49.803,104329,),0,0,1
4:49.864,104351,(,0,0,2
4:49.942,104379,t,0,0,1
4:50.056,104420,),0,0,2
4:50.486,104575,(,0,0,1
4:50.531,104591,N,0,0,0
4:50.619,104623,),0,0,1
4:50.672,104642,(,0,0,2
4:50.764,104675,t,0,0,1
4:50.864,104711,),0,0,2
4:51.336,104881,(,0,0,1
4:51.372,104894,N,0,0,0
4:51.464,104927,),0,0,1
4:51.517,104946,(,0,0,2
4:51.606,104978,t,0,0,1
4:51.711,105016,),0,0,2
4:52.136,105169,(,0,0,1
4:52.186,105187,N,0,0,0
4:52.283,105222,),0,0,1
4:52.342,105243,(,0,0,2
4:52.431,105275,t,0,0,4
4:52.603,105337,t,0,0,4
4:52.628,105346,),0,0,2
4:52.914,105449,(,0,0,1
4:52.958,105465,N,0,0,0
4:53.047,105497,),0,0,1
4:53.092,105513,(,0,0,2
4:53.192,105549,t,0,0,4
4:53.328,105598,t,0,0,4
4:53.364,105611,),0,0,2
4:53.786,105763,(,0,0,1
4:53.836,105781,N,0,0,0
4:53.925,105813,),0,0,1
4:53.975,105831,(,0,0,2
4:54.061,105862,t,0,0,4
4:54.208,105915,t,0,0,4
4:54.269,105937,),0,0,2
4:54.608,106059,(,0,0,1
4:54.653,106075,N,0,0,0
4:54.744,106108,),0,0,1
4:54.792,106125,(,0,0,2
4:54.886,106159,t,0,0,4
4:55.036,106213,t,0,0,4
4:55.103,106237,),0,0,2
4:55.447,106361,(,0,0,1
4:55.486,106375,N,0,0,0
4:55.578,106408,),0,0,1
4:55.631,106427,(,0,0,2
4:55.725,106461,t,0,0,1
4:55.817,106494,),0,0,2
4:56.261,106654,(,0,0,1
4:56.297,106667,N,0,0,0
4:56.383,106698,),0,0,1
4:56.431,106715,(,0,0,2
4:56.522,106748,t,0,0,1
4:56.625,106785,),0,0,2
4:57.033,106932,(,0,0,1
4:57.111,106960,N,0,0,0
4:57.200,106992,),0,0,1
4:57.253,107011,(,0,0,2
4:57.344,107044,t,0,0,4
4:57.467,107088,t,0,0,4
4:57.536,107113,),0,0,2
4:57.919,107251,(,0,0,1
4:57.967,107268,N,0,0,0
4:58.056,107300,),0,0,1
4:58.119,107323,(,0,0,2
4:58.203,107353,t,0,0,1
4:58.308,107391,),0,0,2
4:58.742,107547,(,0,0,1
4:58.789,107564,N,0,0,0
4:58.878,107596,),0,0,1
4:58.928,107614,(,0,0,2
4:59.017,107646,t,0,0,4
4:59.161,107698,t,0,0,4
4:59.203,107713,),0,0,2
4:59.567,107844,(,0,0,1
4:59.656,107876,N,0,0,0
4:59.697,107891,),0,0,1
4:59.756,107912,(,0,0,2
4:59.839,107942,t,0,0,4
5:00.011,108004,t,0,0,4
5:00.058,108021,),0,0,2
5:00.392,108141,(,0,0,1
5:00.481,108173,N,0,0,0
5:00.522,108188,),0,0,1
5:00.686,108247,(,0,0,2
5:00.842,108303,t,0,0,0
5:00.933,108336,),0,0,2
5:01.211,108436,(,0,0,1
5:01.250,108450,N,0,0,0
5:01.339,108482,),0,0,1
5:01.381,108497,(,0,0,2
5:01.475,108531,t,0,0,1
5:01.578,108568,),0,0,2
5:02.014,108725,(,0,0,1
5:02.056,108740,N,0,0,0
5:02.144,108772,),0,0,1
5:02.206,108794,(,0,0,2
5:02.294,108826,t,0,0,4
5:02.411,108868,t,0,0,4
5:02.500,108900,),0,0,2
5:02.778,109000,(,0,0,1
5:02.814,109013,N,0,0,0
5:02.903,109045,),0,0,1
5:02.947,109061,(,0,0,2
5:03.047,109097,t,0,0,1
5:03.147,109133,),0,0,2
5:03.575,109287,(,0,0,1
5:03.661,109318,N,0,0,0
5:03.697,109331,),0,0,1
5:03.744,109348,(,0,0,2
5:03.833,109380,t,0,0,1
5:03.919,109411,),0,0,2
5:04.342,109563,(,0,0,1
5:04.375,109575,N,0,0,0
5:04.467,109608,),0,0,1
5:04.533,109632,(,0,0,2
5:04.611,109660,t,0,0,1
5:04.697,109691,),0,0,2
5:05.003,109801,(,0,0,1
5:05.039,109814,N,0,0,0
5:05.128,109846,),0,0,1
5:05.169,109861,(,0,0,2
5:05.267,109896,t,0,0,4
5:05.411,109948,t,0,0,4
5:05.433,109956,),0,0,2
5:05.856,110108,(,0,0,1
5:05.942,110139,N,0,0,0
5:05.983,110154,),0,0,1
5:06.019,110167,(,0,0,2
5:06.125,110205,t,0,0,4
5:06.292,110265,t,0,0,4
5:06.319,110275,),0,0,2
5:06.650,110394,(,0,0,1
5:06.742,110427,N,0,0,0
5:06.783,110442,),0,0,1
5:06.844,110464,(,0,0,2
5:06.919,110491,t,0,0,1
5:07.014,110525,),0,0,2
5:07.433,110676,(,0,0,1
5:07.483,110694,N,0,0,0
5:07.578,110728,),0,0,1
5:07.622,110744,(,0,0,2
5:07.714,110777,t,0,0,4
5:07.825,110817,t,0,0,4
5:07.883,110838,),0,0,2
5:08.233,110964,(,0,0,1
5:08.317,110994,N,0,0,0
5:08.361,111010,),0,0,1
5:08.414,111029,(,0,0,2
5:08.500,111060,t,0,0,1
5:08.592,111093,),0,0,2
5:09.033,111252,(,0,0,1
5:09.117,111282,N,0,0,0
5:09.164,111299,),0,0,1
5:09.211,111316,(,0,0,2
5:09.300,111348,t,0,0,4
5:09.439,111398,t,0,0,4
5:09.506,111422,),0,0,2
5:09.669,111481,(,0,0,1
5:09.708,111495,N,0,0,0
5:09.800,111528,),0,0,1
5:09.842,111543,(,0,0,2
5:09.939,111578,t,0,0,1
5:10.031,111611,),0,0,2
5:10.581,111809,(,0,0,1
5:10.661,111838,N,0,0,0
5:10.703,111853,),0,0,1
5:10.753,111871,(,0,0,2
5:10.836,111901,t,0,0,1
5:10.933,111936,),0,0,2
5:11.411,112108,(,0,0,1
5:11.503,112141,N,0,0,0
5:11.550,112158,),0,0,1
5:11.597,112175,(,0,0,2
5:11.694,112210,t,0,0,1
5:11.792,112245,),0,0,2
5:12.253,112411,(,0,0,1
5:12.339,112442,N,0,0,0
5:12.381,112457,),0,0,1
5:12.433,112476,(,0,0,2
5:12.525,112509,t,0,0,1
5:12.617,112542,),0,0,2
5:13.067,112704,(,0,0,1
5:13.144,112732,N,0,0,0
5:13.189,112748,),0,0,1
5:13.244,112768,(,0,0,2
5:13.322,112796,t,0,0,1
5:13.419,112831,),0,0,2
5:13.875,112995,(,0,0,1
5:13.956,113024,N,0,0,0
5:14.003,113041,),0,0,1
5:14.067,113064,(,0,0,2
5:14.147,113093,t,0,0,1
5:14.239,113126,),0,0,2
5:14.717,113298,(,0,0,1
5:14.806,113330,N,0,0,0
5:14.853,113347,),0,0,1
5:14.900,113364,(,0,0,2
5:14.986,113395,t,0,0,1
5:15.089,113432,),0,0,2
5:15.528,113590,(,0,0,1
5:15.611,113620,N,0,0,0
5:15.658,113637,),0,0,1
5:15.711,113656,(,0,0,2
5:15.792,113685,t,0,0,1
5:15.881,113717,),0,0,2
5:16.342,113883,(,0,0,1
5:16.422,113912,N,0,0,0
5:16.467,113928,),0,0,1
5:16.514,113945,(,0,0,2
5:16.608,113979,t,0,0,1
5:16.697,114011,),0,0,2
5:17.169,114181,(,0,0,1
5:17.256,114212,N,0,0,0
5:17.303,114229,),0,0,1
5:17.356,114248,(,0,0,2
5:17.442,114279,t,0,0,1
5:17.542,114315,),0,0,2
5:17.981,114473,(,0,0,1
5:18.072,114506,N,0,0,0
5:18.117,114522,),0,0,1
5:18.164,114539,(,0,0,2
5:18.247,114569,t,0,0,4
5:18.378,114616,t,0,0,4
5:18.447,114641,),0,0,2
5:18.811,114772,(,0,0,1
5:18.897,114803,N,0,0,0
5:18.944,114820,),0,0,1
5:18.992,114837,(,0,0,2
5:19.081,114869,t,0,0,1
5:19.169,114901,),0,0,2
5:19.636,115069,(,0,0,1
5:19.719,115099,N,0,0,0
5:19.767,115116,),0,0,1
5:19.822,115136,(,0,0,2
5:19.906,115166,t,0,0,1
5:20.003,115201,),0,0,2
5:20.458,115365,(,0,0,1
5:20.547,115397,N,0,0,0
5:20.594,115414,),0,0,1
5:20.639,115430,(,0,0,2
5:20.731,115463,t,0,0,1
5:20.822,115496,),0,0,2
5:21.289,115664,(,0,0,1
5:21.381,115697,N,0,0,0
5:21.422,115712,),0,0,1
5:21.467,115728,(,0,0,2
5:21.564,115763,t,0,0,1
5:21.653,115795,),0,0,2
5:22.119,115963,(,0,0,1
5:22.206,115994,N,0,0,0
5:22.250,116010,),0,0,1
5:22.300,116028,(,0,0,2
5:22.397,116063,t,0,0,1
5:22.486,116095,),0,0,2
5:22.947,116261,(,0,0,1
5:23.039,116294,N,0,0,0
5:23.083,116310,),0,0,1
5:23.128,116326,(,0,0,2
5:23.228,116362,t,0,0,4
5:23.367,116412,t,0,0,4
5:23.436,116437,),0,0,2
5:23.797,116567,(,0,0,1
5:23.878,116596,N,0,0,0
5:23.925,116613,),0,0,1
5:23.978,116632,(,0,0,2
5:24.067,116664,t,0,0,1
5:24.161,116698,),0,0,2
5:24.622,116864,(,0,0,1
5:24.717,116898,N,0,0,0
5:24.761,116914,),0,0,1
5:24.811,116932,(,0,0,2
5:24.897,116963,t,0,0,1
5:25.003,117001,),0,0,2
5:25.453,117163,(,0,0,1
5:25.542,117195,N,0,0,0
5:25.589,117212,),0,0,1
5:25.650,117234,(,0,0,2
5:25.728,117262,t,0,0,1
5:25.819,117295,),0,0,2
5:26.289,117464,(,0,0,1
5:26.383,117498,N,0,0,0
5:26.428,117514,),0,0,1
5:26.472,117530,(,0,0,2
5:26.561,117562,t,0,0,1
5:26.664,117599,),0,0,2
5:27.122,117764,(,0,0,1
5:27.214,117797,N,0,0,0
5:27.258,117813,),0,0,1
5:27.303,117829,(,0,0,2
5:27.392,117861,t,0,0,1
5:27.489,117896,),0,0,2
5:27.922,118052,(,0,0,1
5:28.017,118086,N,0,0,0
5:28.058,118101,),0,0,1
5:28.108,118119,(,0,0,2
5:28.192,118149,t,0,0,1
5:28.300,118188,),0,0,2
5:28.744,118348,(,0,0,1
5:28.831,118379,N,0,0,0
5:28.872,118394,),0,0,1
5:28.925,118413,(,0,0,2
5:29.011,118444,t,0,0,1
5:29.111,118480,),0,0,2
5:29.553,118639,(,0,0,1
5:29.647,118673,N,0,0,0
5:29.694,118690,),0,0,1
5:29.739,118706,(,0,0,2
5:29.825,118737,t,0,0,1
5:29.922,118772,),0,0,2
5:30.364,118931,(,0,0,1
5:30.458,118965,N,0,0,0
5:30.506,118982,),0,0,1
5:30.558,119001,(,0,0,2
5:30.647,119033,t,0,0,1
5:30.739,119066,),0,0,2
5:31.219,119239,(,0,0,1
5:31.311,119272,N,0,0,0
5:31.358,119289,),0,0,1
5:31.403,119305,(,0,0,2
5:31.494,119338,t,0,0,1
5:31.589,119372,),0,0,2
5:32.044,119536,(,0,0,1
5:32.128,119566,N,0,0,0
5:32.172,119582,),0,0,1
5:32.217,119598,(,0,0,2
5:32.306,119630,t,0,0,1
5:32.394,119662,),0,0,2
5:32.861,119830,(,0,0,1
5:32.956,119864,N,0,0,0
5:33.000,119880,),0,0,1
5:33.044,119896,(,0,0,2
5:33.139,119930,t,0,0,1
5:33.236,119965,),0,0,2
5:33.694,120130,(,0,0,1
5:33.786,120163,N,0,0,0
5:33.833,120180,),0,0,1
5:33.875,120195,(,0,0,2
5:33.978,120232,t,0,0,1
5:34.067,120264,),0,0,2
5:34.519,120427,(,0,0,1
5:34.644,120472,N,0,0,0
5:34.681,120485,),0,0,1
5:34.728,120502,(,0,0,2
5:34.822,120536,t,0,0,1
5:34.931,120575,),0,0,2
5:35.389,120740,(,0,0,1
5:35.431,120755,N,0,0,0
5:35.514,120785,),0,0,1
5:35.561,120802,(,0,0,2
5:35.658,120837,t,0,0,4
5:35.789,120884,t,0,0,4
5:35.858,120909,),0,0,2
5:36.175,121023,(,0,0,1
5:36.244,121048,N,0,0,0
5:36.331,121079,),0,0,1
5:36.381,121097,(,0,0,2
5:36.478,121132,t,0,0,4
5:36.606,121178,t,0,0,4
5:36.672,121202,),0,0,2
5:37.061,121342,(,0,0,1
5:37.156,121376,N,0,0,0
5:37.192,121389,),0,0,1
5:37.242,121407,(,0,0,2
5:37.336,121441,t,0,0,1
5:37.433,121476,),0,0,2
5:37.892,121641,(,0,0,1
5:37.933,121656,N,0,0,0
5:38.025,121689,),0,0,1
5:38.069,121705,(,0,0,2
5:38.167,121740,t,0,0,1
5:38.272,121778,),0,0,2
5:38.733,121944,(,0,0,1
5:38.825,121977,N,0,0,0
5:38.864,121991,),0,0,1
5:38.908,122007,(,0,0,2
5:39.003,122041,t,0,0,4
5:39.117,122082,t,0,0,4
5:39.189,122108,),0,0,2
5:39.569,122245,(,0,0,1
5:39.658,122277,N,0,0,0
5:39.703,122293,),0,0,1
5:39.744,122308,(,0,0,2
5:39.833,122340,t,0,0,1
5:39.936,122377,),0,0,2
5:40.361,122530,(,0,0,1
5:40.478,122572,N,0,0,0
5:40.519,122587,),0,0,1
5:40.567,122604,(,0,0,2
5:40.658,122637,t,0,0,4
5:40.789,122684,t,0,0,4
5:40.853,122707,),0,0,2
5:41.225,122841,(,0,0,1
5:41.317,122874,N,0,0,0
5:41.353,122887,),0,0,1
5:41.400,122904,(,0,0,2
5:41.489,122936,t,0,0,4
5:41.611,122980,t,0,0,4
5:41.692,123009,),0,0,2
5:42.014,123125,(,0,0,1
5:42.050,123138,N,0,0,0
5:42.142,123171,),0,0,1
5:42.186,123187,(,0,0,2
5:42.283,123222,t,0,0,4
5:42.406,123266,t,0,0,4
5:42.461,123286,),0,0,2
5:42.817,123414,(,0,0,1
5:42.908,123447,N,0,0,0
5:42.947,123461,),0,0,1
5:42.994,123478,(,0,0,2
5:43.089,123512,t,0,0,1
5:43.181,123545,),0,0,2
5:43.656,123716,(,0,0,1
5:43.744,123748,N,0,0,0
5:43.783,123762,),0,0,1
5:43.836,123781,(,0,0,2
5:43.922,123812,t,0,0,1
5:44.011,123844,),0,0,2
5:44.450,124002,(,0,0,1
5:44.531,124031,N,0,0,0
5:44.575,124047,),0,0,1
5:44.628,124066,(,0,0,2
5:44.719,124099,t,0,0,4
5:44.839,124142,t,0,0,4
5:44.892,124161,),0,0,2
5:45.261,124294,(,0,0,1
5:45.353,124327,N,0,0,0
5:45.397,124343,),0,0,1
5:45.467,124368,(,0,0,2
5:45.536,124393,t,0,0,4
5:45.647,124433,t,0,0,4
5:45.683,124446,),0,0,2
5:46.072,124586,(,0,0,1
5:46.167,124620,N,0,0,0
5:46.211,124636,),0,0,1
5:46.267,124656,(,0,0,2
5:46.356,124688,t,0,0,4
5:46.475,124731,t,0,0,4
5:46.506,124742,),0,0,2
5:46.892,124881,(,0,0,1
5:46.975,124911,N,0,0,0
5:47.019,124927,),0,0,1
5:47.072,124946,(,0,0,2
5:47.161,124978,t,0,0,4
5:47.336,125041,t,0,0,4
5:47.369,125053,),0,0,2
5:47.719,125179,(,0,0,1
5:47.808,125211,N,0,0,0
5:47.850,125226,),0,0,1
5:47.906,125246,(,0,0,2
5:47.997,125279,t,0,0,1
5:48.100,125316,),0,0,2
5:48.497,125459,(,0,0,1
5:48.589,125492,N,0,0,0
5:48.628,125506,),0,0,1
5:48.672,125522,(,0,0,2
5:48.769,125557,t,0,0,1
5:48.881,125597,),0,0,2
5:49.119,125683,(,0,0,1
5:49.200,125712,N,0,0,0
5:49.242,125727,),0,0,1
5:49.283,125742,(,0,0,2
5:49.381,125777,t,0,0,1
5:49.467,125808,),0,0,2
5:50.050,126018,(,0,0,1
5:50.169,126061,N,0,0,0
5:50.211,126076,),0,0,1
5:50.281,126101,(,0,0,2
5:50.356,126128,t,0,0,4
5:50.528,126190,t,0,0,4
5:50.564,126203,),0,0,2
5:50.922,126332,(,0,0,1
5:51.019,126367,N,0,0,0
5:51.064,126383,),0,0,1
5:51.114,126401,(,0,0,2
5:51.194,126430,t,0,0,4
5:51.339,126482,t,0,0,4
5:51.375,126495,),0,0,2
5:51.731,126623,(,0,0,1
5:51.853,126667,N,0,0,0
5:51.892,126681,),0,0,1
5:51.953,126703,(,0,0,2
5:52.031,126731,t,0,0,4
5:52.175,126783,t,0,0,4
5:52.197,126791,),0,0,2
5:52.575,126927,(,0,0,1
5:52.667,126960,N,0,0,0
5:52.706,126974,),0,0,1
5:52.744,126988,(,0,0,2
5:52.822,127016,t,0,0,1
5:52.883,127038,),0,0,2
5:53.144,127132,(,0,0,1
5:53.206,127154,N,0,0,0
5:53.294,127186,),0,0,1
5:53.339,127202,(,0,0,2
5:53.431,127235,t,0,0,1
5:53.522,127268,),0,0,2
5:54.047,127457,(,0,0,1
5:54.133,127488,N,0,0,0
5:54.172,127502,),0,0,1
5:54.219,127519,(,0,0,2
5:54.314,127553,t,0,0,4
5:54.475,127611,t,0,0,4
5:54.533,127632,),0,0,2
5:54.703,127693,(,0,0,1
5:54.786,127723,N,0,0,0
5:54.825,127737,),0,0,1
5:54.864,127751,(,0,0,2
5:54.964,127787,t,0,0,1
5:55.047,127817,),0,0,2
5:55.656,128036,(,0,0,1
5:55.750,128070,N,0,0,0
5:55.783,128082,),0,0,1
5:55.836,128101,(,0,0,2
5:55.919,128131,t,0,0,1
5:56.033,128172,),0,0,2
5:56.278,128260,(,0,0,1
5:56.342,128283,N,0,0,0
5:56.425,128313,),0,0,1
5:56.475,128331,(,0,0,2
5:56.561,128362,t,0,0,1
5:56.647,128393,),0,0,2
5:57.239,128606,(,0,0,1
5:57.331,128639,N,0,0,0
5:57.372,128654,),0,0,1
5:57.411,128668,(,0,0,2
5:57.503,128701,t,0,0,1
5:57.614,128741,),0,0,2
5:57.889,128840,(,0,0,1
5:57.967,128868,N,0,0,0
5:58.014,128885,),0,0,1
5:58.061,128902,(,0,0,2
5:58.156,128936,t,0,0,1
5:58.242,128967,),0,0,2
5:58.856,129188,(,0,0,1
5:58.944,129220,N,0,0,0
5:58.981,129233,),0,0,1
5:59.028,129250,(,0,0,2
5:59.119,129283,t,0,0,4
5:59.278,129340,t,0,0,4
5:59.314,129353,),0,0,2
5:59.686,129487,(,0,0,1
5:59.775,129519,N,0,0,0
5:59.817,129534,),0,0,1
5:59.878,129556,(,0,0,2
5:59.964,129587,t,0,0,4
6:00.083,129630,t,0,0,4
6:00.103,129637,),0,0,2
6:00.506,129782,(,0,0,1
6:00.592,129813,N,0,0,0
6:00.631,129827,),0,0,1
6:00.681,129845,(,0,0,2
6:00.733,129864,t,0,0,4
6:00.794,129886,t,0,0,4
6:00.808,129891,),0,0,2
6:01.069,129985,(,0,0,1
6:01.156,130016,N,0,0,0
6:01.197,130031,),0,0,1
6:01.253,130051,(,0,0,2
6:01.339,130082,t,0,0,1
6:01.417,130110,),0,0,2
6:01.947,130301,(,0,0,1
6:02.042,130335,N,0,0,0
6:02.086,130351,),0,0,1
6:02.131,130367,(,0,0,2
6:02.228,130402,t,0,0,1
6:02.325,130437,),0,0,2
6:02.781,130601,(,0,0,1
6:02.867,130632,N,0,0,0
6:02.908,130647,),0,0,1
6:02.975,130671,(,0,0,2
6:03.036,130693,t,0,0,4
6:03.161,130738,t,0,0,4
6:03.267,130776,),0,0,2
6:03.550,130878,(,0,0,1
6:03.675,130923,N,0,0,0
6:03.714,130937,),0,0,1
6:03.800,130968,(,0,0,2
6:03.836,130981,t,0,0,4
6:04.083,131070,t,0,0,4
6:04.108,131079,),0,0,2
6:04.389,131180,(,0,0,1
6:04.425,131193,N,0,0,0
6:04.514,131225,),0,0,1
6:04.531,131231,(,0,0,2
6:04.675,131283,t,0,0,1
6:04.736,131305,),0,0,2
6:05.142,131451,(,0,0,1
6:05.208,131475,N,0,0,0
6:05.294,131506,),0,0,1
6:05.461,131566,(,0,0,2
6:05.553,131599,t,0,0,0
6:05.589,131612,),0,0,2
6:05.936,131737,(,0,0,1
6:06.011,131764,N,0,0,0
6:06.056,131780,),0,0,1
6:06.114,131801,(,0,0,2
6:06.172,131822,t,0,0,4
6:06.364,131891,t,0,0,4
6:06.403,131905,),0,0,2
6:06.664,131999,(,0,0,1
6:06.786,132043,N,0,0,0
6:06.831,132059,),0,0,1
6:06.936,132097,(,0,0,2
6:06.967,132108,t,0,0,1
6:07.058,132141,),0,0,2
6:07.450,132282,(,0,0,1
6:07.564,132323,N,0,0,0
6:07.606,132338,),0,0,1
6:07.672,132362,(,0,0,2
6:07.744,132388,t,0,0,4
6:07.869,132433,t,0,0,4
6:07.900,132444,),0,0,2
6:08.222,132560,(,0,0,1
6:08.317,132594,N,0,0,0
6:08.364,132611,),0,0,1
6:08.411,132628,(,0,0,2
6:08.486,132655,t,0,0,4
6:08.636,132709,t,0,0,4
6:08.664,132719,),0,0,2
6:08.967,132828,(,0,0,1
6:09.058,132861,N,0,0,0
6:09.103,132877,),0,0,1
6:09.164,132899,(,0,0,2
6:09.222,132920,t,0,0,4
6:09.372,132974,t,0,0,4
6:09.400,132984,),0,0,2
6:09.708,133095,(,0,0,1
6:09.828,133138,N,0,0,0
6:09.878,133156,),0,0,1
6:09.922,133172,(,0,0,2
6:10.019,133207,t,0,0,4
6:10.239,133286,t,0,0,4
6:10.258,133293,),0,0,2
6:10.506,133382,(,0,0,1
6:10.581,133409,N,0,0,0
6:10.625,133425,),0,0,1
6:10.675,133443,(,0,0,2
6:10.767,133476,t,0,0,1
6:10.853,133507,),0,0,2
6:11.242,133647,(,0,0,1
6:11.339,133682,N,0,0,0
6:11.383,133698,),0,0,1
6:11.422,133712,(,0,0,2
6:11.531,133751,t,0,0,4
6:11.642,133791,t,0,0,4
6:11.667,133800,),0,0,2
6:12.017,133926,(,0,0,1
6:12.111,133960,N,0,0,0
6:12.156,133976,),0,0,1
6:12.211,133996,(,0,0,2
6:12.294,134026,t,0,0,4
6:12.519,134107,t,0,0,4
6:12.542,134115,),0,0,2
6:12.800,134208,(,0,0,1
6:12.883,134238,N,0,0,0
6:12.928,134254,),0,0,1
6:12.961,134266,(,0,0,2
6:13.056,134300,t,0,0,1
6:13.158,134337,),0,0,2
6:13.517,134466,(,0,0,1
6:13.636,134509,N,0,0,0
6:13.683,134526,),0,0,1
6:13.728,134542,(,0,0,2
6:13.825,134577,t,0,0,4
6:13.975,134631,t,0,0,4
6:14.006,134642,),0,0,2
6:14.306,134750,(,0,0,1
6:14.406,134786,N,0,0,0
6:14.444,134800,),0,0,1
6:14.492,134817,(,0,0,2
6:14.578,134848,t,0,0,4
6:14.683,134886,t,0,0,4
6:14.706,134894,),0,0,2
6:15.131,135047,(,0,0,1
6:15.178,135064,N,0,0,0
6:15.286,135103,),0,0,1
6:15.381,135137,(,0,0,2
6:15.453,135163,t,0,0,0
6:15.536,135193,),0,0,2
6:15.819,135295,(,0,0,1
6:15.908,135327,N,0,0,0
6:15.956,135344,),0,0,1
6:16.011,135364,(,0,0,2
6:16.086,135391,t,0,0,4
6:16.222,135440,t,0,0,4
6:16.261,135454,),0,0,2
6:16.544,135556,(,0,0,1
6:16.664,135599,N,0,0,0
6:16.706,135614,),0,0,1
6:16.764,135635,(,0,0,2
6:16.833,135660,t,0,0,4
6:17.053,135739,t,0,0,4
6:17.075,135747,),0,0,2
6:17.303,135829,(,0,0,1
6:17.383,135858,N,0,0,0
6:17.428,135874,),0,0,1
6:17.489,135896,(,0,0,2
6:17.564,135923,t,0,0,4
6:17.731,135983,t,0,0,4
6:17.758,135993,),0,0,2
6:18.025,136089,(,0,0,1
6:18.117,136122,N,0,0,0
6:18.161,136138,),0,0,1
6:18.203,136153,(,0,0,2
6:18.297,136187,t,0,0,4
6:18.425,136233,t,0,0,4
6:18.458,136245,),0,0,2
6:18.764,136355,(,0,0,1
6:18.850,136386,N,0,0,0
6:18.897,136403,),0,0,1
6:18.956,136424,(,0,0,2
6:19.025,136449,t,0,0,4
6:19.131,136487,t,0,0,4
6:19.217,136518,),0,0,2
6:19.508,136623,(,0,0,1
6:19.589,136652,N,0,0,0
6:19.633,136668,),0,0,1
6:19.747,136709,(,0,0,2
6:19.778,136720,t,0,0,4
6:19.897,136763,t,0,0,4
6:19.925,136773,),0,0,2
6:20.242,136887,(,0,0,1
6:20.325,136917,N,0,0,0
6:20.372,136934,),0,0,1
6:20.431,136955,(,0,0,2
6:20.506,136982,t,0,0,1
6:20.581,137009,),0,0,2
6:20.944,137140,(,0,0,1
6:21.064,137183,N,0,0,0
6:21.108,137199,),0,0,1
6:21.156,137216,(,0,0,2
6:21.242,137247,t,0,0,4
6:21.400,137304,t,0,0,4
6:21.428,137314,),0,0,2
6:21.706,137414,(,0,0,1
6:21.800,137448,N,0,0,0
6:21.842,137463,),0,0,1
6:21.892,137481,(,0,0,2
6:21.981,137513,t,0,0,4
6:22.175,137583,t,0,0,4
6:22.217,137598,),0,0,2
6:22.453,137683,(,0,0,1
6:22.531,137711,N,0,0,0
6:22.569,137725,),0,0,1
6:22.631,137747,(,0,0,2
6:22.703,137773,t,0,0,1
6:22.794,137806,),0,0,2
6:23.192,137949,(,0,0,1
6:23.281,137981,N,0,0,0
6:23.328,137998,),0,0,1
6:23.383,138018,(,0,0,2
6:23.472,138050,t,0,0,4
6:23.567,138084,t,0,0,4
6:23.653,138115,),0,0,2
6:23.947,138221,(,0,0,1
6:24.028,138250,N,0,0,0
6:24.072,138266,),0,0,1
6:24.128,138286,(,0,0,2
6:24.206,138314,t,0,0,4
6:24.361,138370,t,0,0,4
6:24.403,138385,),0,0,2
6:24.672,138482,(,0,0,1
6:24.772,138518,N,0,0,0
6:24.814,138533,),0,0,1
6:24.847,138545,(,0,0,2
6:24.944,138580,t,0,0,4
6:25.089,138632,t,0,0,4
6:25.122,138644,),0,0,2
6:25.389,138740,(,0,0,1
6:25.478,138772,N,0,0,0
6:25.522,138788,),0,0,1
6:25.592,138813,(,0,0,2
6:25.650,138834,t,0,0,4
6:25.778,138880,t,0,0,4
6:25.828,138898,),0,0,2
6:26.119,139003,(,0,0,1
6:26.233,139044,N,0,0,0
6:26.278,139060,),0,0,1
6:26.331,139079,(,0,0,2
6:26.417,139110,t,0,0,4
6:26.494,139138,t,0,0,4
6:26.511,139144,),0,0,2
6:26.883,139278,(,0,0,1
6:26.969,139309,N,0,0,0
6:27.014,139325,),0,0,1
6:27.072,139346,(,0,0,2
6:27.142,139371,t,0,0,4
6:27.267,139416,t,0,0,4
6:27.306,139430,),0,0,2
6:27.611,139540,(,0,0,1
6:27.694,139570,N,0,0,0
6:27.739,139586,),0,0,1
6:27.800,139608,(,0,0,2
6:27.875,139635,t,0,0,4
6:28.019,139687,t,0,0,4
6:28.050,139698,),0,0,2
6:28.319,139795,(,0,0,1
6:28.444,139840,N,0,0,0
6:28.486,139855,),0,0,1
6:28.539,139874,(,0,0,2
6:28.619,139903,t,0,0,4
6:28.747,139949,t,0,0,4
6:28.781,139961,),0,0,2
6:29.081,140069,(,0,0,1
6:29.186,140107,N,0,0,0
6:29.231,140123,),0,0,1
6:29.286,140143,(,0,0,2
6:29.353,140167,t,0,0,4
6:29.522,140228,t,0,0,4
6:29.547,140237,),0,0,2
6:29.814,140333,(,0,0,1
6:29.914,140369,N,0,0,0
6:29.958,140385,),0,0,1
6:30.014,140405,(,0,0,2
6:30.094,140434,t,0,0,4
6:30.186,140467,t,0,0,4
6:30.233,140484,),0,0,2
6:30.553,140599,(,0,0,1
6:30.644,140632,N,0,0,0
6:30.694,140650,),0,0,1
6:30.736,140665,(,0,0,2
6:30.814,140693,t,0,0,4
6:30.928,140734,t,0,0,4
6:30.986,140755,),0,0,2
6:31.311,140872,(,0,0,1
6:31.403,140905,N,0,0,0
6:31.450,140922,),0,0,1
6:31.497,140939,(,0,0,2
6:31.583,140970,t,0,0,4
6:31.728,141022,t,0,0,4
6:31.756,141032,),0,0,2
6:32.022,141128,(,0,0,1
6:32.142,141171,N,0,0,0
6:32.178,141184,),0,0,1
6:32.264,141215,(,0,0,2
6:32.300,141228,t,0,0,4
6:32.447,141281,t,0,0,4
6:32.472,141290,),0,0,2
6:32.783,141402,(,0,0,1
6:32.872,141434,N,0,0,0
6:32.919,141451,),0,0,1
6:32.972,141470,(,0,0,2
6:33.053,141499,t,0,0,4
6:33.161,141538,t,0,0,4
6:33.186,141547,),0,0,2
6:33.436,141637,(,0,0,1
6:33.522,141668,N,0,0,0
6:33.567,141684,),0,0,1
6:33.608,141699,(,0,0,2
6:33.697,141731,t,0,0,4
6:33.825,141777,t,0,0,4
6:33.850,141786,),0,0,2
6:34.233,141924,(,0,0,1
6:34.322,141956,N,0,0,0
6:34.367,141972,),0,0,1
6:34.436,141997,(,0,0,2
6:34.497,142019,t,0,0,4
6:34.628,142066,t,0,0,4
6:34.656,142076,),0,0,2
6:34.922,142172,(,0,0,1
6:35.047,142217,N,0,0,0
6:35.086,142231,),0,0,1
6:35.161,142258,(,0,0,2
6:35.217,142278,t,0,0,1
6:35.314,142313,),0,0,2
6:35.681,142445,(,0,0,1
6:35.778,142480,N,0,0,0
6:35.819,142495,),0,0,1
6:35.894,142522,(,0,0,2
6:35.939,142538,t,0,0,4
6:36.072,142586,t,0,0,4
6:36.128,142606,),0,0,2
6:36.400,142704,(,0,0,1
6:36.489,142736,N,0,0,0
6:36.536,142753,),0,0,1
6:36.597,142775,(,0,0,2
6:36.678,142804,t,0,0,4
6:36.822,142856,t,0,0,4
6:36.861,142870,),0,0,2
6:37.092,142953,(,0,0,1
6:37.203,142993,N,0,0,0
6:37.250,143010,),0,0,1
6:37.339,143042,(,0,0,2
6:37.378,143056,t,0,0,4
6:37.506,143102,t,0,0,4
6:37.553,143119,),0,0,2
6:37.819,143215,(,0,0,1
6:37.911,143248,N,0,0,0
6:37.953,143263,),0,0,1
6:38.022,143288,(,0,0,2
6:38.078,143308,t,0,0,1
6:38.197,143351,),0,0,2
6:38.539,143474,(,0,0,1
6:38.622,143504,N,0,0,0
6:38.664,143519,),0,0,1
6:38.711,143536,(,0,0,2
6:38.797,143567,t,0,0,4
6:38.975,143631,t,0,0,4
6:39.003,143641,),0,0,2
6:39.244,143728,(,0,0,1
6:39.317,143754,N,0,0,0
6:39.369,143773,),0,0,1
6:39.411,143788,(,0,0,2
6:39.503,143821,t,0,0,1
6:39.600,143856,),0,0,2
6:39.950,143982,(,0,0,1
6:40.028,144010,N,0,0,0
6:40.078,144028,),0,0,1
6:40.117,144042,(,0,0,2
6:40.206,144074,t,0,0,4
6:40.394,144142,t,0,0,4
6:40.419,144151,),0,0,2
6:41.350,144486,(,0,0,1
6:41.442,144519,N,0,0,0
6:41.481,144533,),0,0,1
6:41.536,144553,(,0,0,2
6:41.589,144572,t,0,0,4
6:41.733,144624,t,0,0,4
6:41.778,144640,),0,0,2
6:42.042,144735,(,0,0,1
6:42.125,144765,N,0,0,0
6:42.169,144781,),0,0,1
6:42.247,144809,(,0,0,2
6:42.300,144828,t,0,0,1
6:42.403,144865,),0,0,2
6:45.553,145999,(,0,0,1
6:45.628,146026,N,0,0,0
6:45.675,146043,),0,0,1
6:45.719,146059,(,0,0,2
6:45.814,146093,t,0,0,1
6:45.894,146122,),0,0,2
6:47.614,146741,(,0,0,1
6:47.717,146778,N,0,0,0
6:47.756,146792,),0,0,1
6:47.803,146809,(,0,0,2
6:47.894,146842,t,0,0,4
6:48.033,146892,t,0,0,4
6:48.061,146902,),0,0,2
6:48.325,146997,(,0,0,1
6:48.414,147029,N,0,0,0
6:48.456,147044,),0,0,1
6:48.511,147064,(,0,0,2
6:48.581,147089,t,0,0,4
6:48.706,147134,t,0,0,4
6:48.744,147148,),0,0,2
6:49.017,147246,(,0,0,1
6:49.097,147275,N,0,0,0
6:49.142,147291,),0,0,1
6:49.178,147304,(,0,0,2
6:49.281,147341,t,0,0,4
6:49.408,147387,t,0,0,4
6:49.450,147402,),0,0,2
6:49.694,147490,(,0,0,1
6:49.767,147516,N,0,0,0
6:49.817,147534,),0,0,1
6:49.867,147552,(,0,0,2
6:49.942,147579,t,0,0,1
6:50.036,147613,),0,0,2
6:51.692,148209,(,0,0,1
6:51.819,148255,N,0,0,0
6:51.858,148269,),0,0,1
6:51.897,148283,(,0,0,2
6:51.986,148315,t,0,0,4
6:52.072,148346,t,0,0,4
6:52.133,148368,),0,0,2
6:52.406,148466,(,0,0,1
6:52.494,148498,N,0,0,0
6:52.539,148514,),0,0,1
6:52.603,148537,(,0,0,2
6:52.661,148558,t,0,0,4
6:52.803,148609,t,0,0,4
6:52.833,148620,),0,0,2
6:53.772,148958,(,0,0,1
6:53.856,148988,N,0,0,0
6:53.894,149002,),0,0,1
6:53.939,149018,(,0,0,2
6:54.025,149049,t,0,0,4
6:54.139,149090,t,0,0,4
6:54.175,149103,),0,0,2
6:55.128,149446,(,0,0,1
6:55.211,149476,N,0,0,0
6:55.250,149490,),0,0,1
6:55.292,149505,(,0,0,2
6:55.378,149536,t,0,0,1
6:55.458,149565,),0,0,2
6:57.858,150429,(,0,0,1
6:57.939,150458,N,0,0,0
6:57.978,150472,),0,0,1
6:58.022,150488,(,0,0,2
6:58.108,150519,t,0,0,4
6:58.189,150548,t,0,0,4
6:58.281,150581,),0,0,2
6:58.522,150668,(,0,0,1
6:58.606,150698,N,0,0,0
6:58.647,150713,),0,0,1
6:58.706,150734,(,0,0,2
6:58.781,150761,t,0,0,4
6:58.903,150805,t,0,0,4
6:58.958,150825,),0,0,2
6:59.206,150914,(,0,0,1
6:59.289,150944,N,0,0,0
6:59.331,150959,),0,0,1
6:59.372,150974,(,0,0,2
6:59.453,151003,t,0,0,4
6:59.575,151047,t,0,0,4
6:59.594,151054,),0,0,2
6:59.872,151154,(,0,0,1
6:59.967,151188,N,0,0,0
7:00.003,151201,),0,0,1
7:00.033,151212,(,0,0,2
7:00.128,151246,t,0,0,4
7:00.267,151296,t,0,0,4
7:00.292,151305,),0,0,2
7:01.881,151877,(,0,0,1
7:01.994,151918,N,0,0,0
7:02.031,151931,),0,0,1
7:02.058,151941,(,0,0,2
7:02.164,151979,t,0,0,4
7:02.281,152021,t,0,0,4
7:02.306,152030,),0,0,2
7:02.564,152123,(,0,0,1
7:02.656,152156,N,0,0,0
7:02.694,152170,),0,0,1
7:02.747,152189,(,0,0,2
7:02.811,152212,t,0,0,4
7:02.919,152251,t,0,0,4
7:02.953,152263,),0,0,2
7:03.233,152364,(,0,0,1
7:03.317,152394,N,0,0,0
7:03.356,152408,),0,0,1
7:03.406,152426,(,0,0,2
7:03.478,152452,t,0,0,1
7:03.556,152480,),0,0,2
7:06.575,153567,(,0,0,1
7:06.661,153598,N,0,0,0
7:06.700,153612,),0,0,1
7:06.744,153628,(,0,0,2
7:06.831,153659,t,0,0,4
7:06.981,153713,t,0,0,4
7:07.022,153728,),0,0,2
7:07.256,153812,(,0,0,1
7:07.350,153846,N,0,0,0
7:07.389,153860,),0,0,1
7:07.433,153876,(,0,0,2
7:07.503,153901,t,0,0,4
7:07.683,153966,t,0,0,4
7:07.708,153975,),0,0,2
7:07.917,154050,(,0,0,1
7:08.006,154082,N,0,0,0
7:08.047,154097,),0,0,1
7:08.083,154110,(,0,0,2
7:08.175,154143,t,0,0,4
7:08.311,154192,t,0,0,4
7:08.358,154209,),0,0,2
7:10.628,155026,(,0,0,1
7:10.722,155060,N,0,0,0
7:10.761,155074,),0,0,1
7:10.811,155092,(,0,0,2
7:10.881,155117,t,0,0,1
7:10.978,155152,),0,0,2
7:11.322,155276,(,0,0,1
7:11.406,155306,N,0,0,0
7:11.447,155321,),0,0,1
7:11.492,155337,(,0,0,2
7:11.578,155368,t,0,0,4
7:11.678,155404,t,0,0,4
7:11.703,155413,),0,0,2
7:12.000,155520,(,0,0,1
7:12.092,155553,N,0,0,0
7:12.131,155567,),0,0,1
7:12.175,155583,(,0,0,2
7:12.247,155609,t,0,0,4
7:12.367,155652,t,0,0,4
7:12.394,155662,),0,0,2
7:13.375,156015,(,0,0,1
7:13.456,156044,N,0,0,0
7:13.492,156057,),0,0,1
7:13.556,156080,(,0,0,2
7:13.611,156100,t,0,0,4
7:13.747,156149,t,0,0,4
7:13.775,156159,),0,0,2
7:16.078,156988,(,0,0,1
7:16.161,157018,N,0,0,0
7:16.197,157031,),0,0,1
7:16.239,157046,(,0,0,2
7:16.333,157080,t,0,0,4
7:16.469,157129,t,0,0,4
7:16.506,157142,),0,0,2
7:18.803,157969,(,0,0,1
7:18.892,158001,N,0,0,0
7:18.922,158012,),0,0,1
7:19.067,158064,(,0,0,2
7:19.136,158089,t,0,0,0
7:19.192,158109,),0,0,2
7:20.825,158697,(,0,0,1
7:20.922,158732,N,0,0,0
7:20.958,158745,),0,0,1
7:21.028,158770,(,0,0,2
7:21.072,158786,t,0,0,4
7:21.225,158841,t,0,0,4
7:21.264,158855,),0,0,2
7:21.536,158953,(,0,0,1
7:21.628,158986,N,0,0,0
7:21.667,159000,),0,0,1
7:21.708,159015,(,0,0,2
7:21.803,159049,t,0,0,4
7:21.881,159077,t,0,0,4
7:21.908,159087,),0,0,2
7:22.936,159457,(,0,0,1
7:23.022,159488,N,0,0,0
7:23.061,159502,),0,0,1
7:23.103,159517,(,0,0,2
7:23.186,159547,t,0,0,4
7:23.267,159576,t,0,0,4
7:23.325,159597,),0,0,2
7:27.147,160973,(,0,0,1
7:27.233,161004,N,0,0,0
7:27.275,161019,),0,0,1
7:27.339,161042,(,0,0,2
7:27.386,161059,t,0,0,4
7:27.483,161094,t,0,0,4
7:27.561,161122,),0,0,2
7:40.933,165936,(,0,0,1
7:40.983,165954,N,0,0,0
7:41.044,165976,),0,0,1
7:41.086,165991,(,0,0,2
7:41.194,166030,t,0,0,1
7:41.289,166064,),0,0,2
7:42.533,166512,(,0,0,1
7:42.625,166545,N,0,0,0
7:42.669,166561,),0,0,1
7:42.706,166574,(,0,0,2
7:42.794,166606,t,0,0,4
7:42.922,166652,t,0,0,4
7:42.950,166662,),0,0,2
7:44.031,167051,(,0,0,1
7:44.119,167083,N,0,0,0
7:44.161,167098,),0,0,1
7:44.208,167115,(,0,0,2
7:44.297,167147,t,0,0,4
7:44.400,167184,t,0,0,4
7:44.433,167196,),0,0,2
7:44.769,167317,(,0,0,1
7:44.858,167349,N,0,0,0
7:44.903,167365,),0,0,1
7:44.975,167391,(,0,0,2
7:45.019,167407,t,0,0,1
7:45.092,167433,),0,0,2
7:45.514,167585,(,0,0,1
7:45.606,167618,N,0,0,0
7:45.647,167633,),0,0,1
7:45.742,167667,(,0,0,2
7:45.778,167680,t,0,0,4
7:45.892,167721,t,0,0,4
7:45.922,167732,),0,0,2
7:47.000,168120,(,0,0,1
7:47.086,168151,N,0,0,0
7:47.131,168167,),0,0,1
7:47.203,168193,(,0,0,2
7:47.247,168209,t,0,0,1
7:47.342,168243,),0,0,2
7:47.744,168388,(,0,0,1
7:47.819,168415,N,0,0,0
7:47.864,168431,),0,0,1
7:47.900,168444,(,0,0,2
7:47.989,168476,t,0,0,4
7:48.164,168539,t,0,0,4
7:48.203,168553,),0,0,2
7:48.478,168652,(,0,0,1
7:48.558,168681,N,0,0,0
7:48.600,168696,),0,0,1
7:48.644,168712,(,0,0,2
7:48.719,168739,t,0,0,4
7:48.847,168785,t,0,0,4
7:48.917,168810,),0,0,2
7:49.189,168908,(,0,0,1
7:49.272,168938,N,0,0,0
7:49.317,168954,),0,0,1
7:49.361,168970,(,0,0,2
7:49.444,169000,t,0,0,4
7:49.550,169038,t,0,0,4
7:49.592,169053,),0,0,2
7:49.922,169172,(,0,0,1
7:50.000,169200,N,0,0,0
7:50.047,169217,),0,0,1
7:50.086,169231,(,0,0,2
7:50.172,169262,t,0,0,4
7:50.267,169296,t,0,0,4
7:50.311,169312,),0,0,2
7:50.644,169432,(,0,0,1
7:50.728,169462,N,0,0,0
7:50.769,169477,),0,0,1
7:50.811,169492,(,0,0,2
7:50.886,169519,t,0,0,1
7:50.981,169553,),0,0,2
7:51.364,169691,(,0,0,1
7:51.458,169725,N,0,0,0
7:51.497,169739,),0,0,1
7:51.561,169762,(,0,0,2
7:51.628,169786,t,0,0,1
7:51.697,169811,),0,0,2
7:52.078,169948,(,0,0,1
7:52.167,169980,N,0,0,0
7:52.214,169997,),0,0,1
7:52.256,170012,(,0,0,2
7:52.333,170040,t,0,0,4
7:52.508,170103,t,0,0,4
7:52.542,170115,),0,0,2
7:52.803,170209,(,0,0,1
7:52.886,170239,N,0,0,0
7:52.922,170252,),0,0,1
7:52.967,170268,(,0,0,2
7:53.047,170297,t,0,0,4
7:53.172,170342,t,0,0,4
7:53.217,170358,),0,0,2
7:53.503,170461,(,0,0,1
7:53.586,170491,N,0,0,0
7:53.628,170506,),0,0,1
7:53.672,170522,(,0,0,2
7:53.753,170551,t,0,0,1
7:53.833,170580,),0,0,2
7:54.231,170723,(,0,0,1
7:54.319,170755,N,0,0,0
7:54.361,170770,),0,0,1
7:54.403,170785,(,0,0,2
7:54.492,170817,t,0,0,1
7:54.561,170842,),0,0,2
7:54.944,170980,(,0,0,1
7:55.042,171015,N,0,0,0
7:55.083,171030,),0,0,1
7:55.131,171047,(,0,0,2
7:55.203,171073,t,0,0,1
7:55.286,171103,),0,0,2
7:55.681,171245,(,0,0,1
7:55.758,171273,N,0,0,0
7:55.806,171290,),0,0,1
7:55.844,171304,(,0,0,2
7:55.919,171331,t,0,0,4
7:56.069,171385,t,0,0,4
7:56.106,171398,),0,0,2
7:56.375,171495,(,0,0,1
7:56.467,171528,N,0,0,0
7:56.508,171543,),0,0,1
7:56.589,171572,(,0,0,2
7:56.636,171589,t,0,0,4
7:56.778,171640,t,0,0,4
7:56.817,171654,),0,0,2
7:57.831,172019,(,0,0,1
7:57.919,172051,N,0,0,0
7:57.969,172069,),0,0,1
7:58.044,172096,(,0,0,2
7:58.086,172111,t,0,0,4
7:58.261,172174,t,0,0,4
7:58.297,172187,),0,0,2
7:58.558,172281,(,0,0,1
7:58.644,172312,N,0,0,0
7:58.686,172327,),0,0,1
7:58.739,172346,(,0,0,2
7:58.786,172363,t,0,0,4
7:58.969,172429,t,0,0,4
7:59.028,172450,),0,0,2
7:59.264,172535,(,0,0,1
7:59.381,172577,N,0,0,0
7:59.428,172594,),0,0,1
7:59.472,172610,(,0,0,2
7:59.553,172639,t,0,0,1
7:59.608,172659,),0,0,2
8:00.022,172808,(,0,0,1
8:00.119,172843,N,0,0,0
8:00.156,172856,),0,0,1
8:00.233,172884,(,0,0,2
8:00.261,172894,t,0,0,1
8:00.361,172930,),0,0,2
8:00.719,173059,(,0,0,1
8:00.819,173095,N,0,0,0
8:00.850,173106,),0,0,1
8:00.925,173133,(,0,0,2
8:00.958,173145,t,0,0,4
8:01.175,173223,t,0,0,4
8:01.197,173231,),0,0,2
8:01.433,173316,(,0,0,1
8:01.519,173347,N,0,0,0
8:01.561,173362,),0,0,1
8:01.603,173377,(,0,0,2
8:01.686,173407,t,0,0,1
8:01.758,173433,),0,0,2
8:02.167,173580,(,0,0,1
8:02.250,173610,N,0,0,0
8:02.294,173626,),0,0,1
8:02.356,173648,(,0,0,2
8:02.419,173671,t,0,0,4
8:02.531,173711,t,0,0,4
8:02.606,173738,),0,0,2
8:02.869,173833,(,0,0,1
8:02.958,173865,N,0,0,0
8:03.003,173881,),0,0,1
8:03.044,173896,(,0,0,2
8:03.111,173920,t,0,0,4
8:03.258,173973,t,0,0,4
8:03.286,173983,),0,0,2
8:03.575,174087,(,0,0,1
8:03.672,174122,N,0,0,0
8:03.714,174137,),0,0,1
8:03.772,174158,(,0,0,2
8:03.839,174182,t,0,0,4
8:03.978,174232,t,0,0,4
8:04.022,174248,),0,0,2
8:04.258,174333,(,0,0,1
8:04.372,174374,N,0,0,0
8:04.408,174387,),0,0,1
8:04.450,174402,(,0,0,2
8:04.528,174430,t,0,0,4
8:04.664,174479,t,0,0,4
8:04.694,174490,),0,0,2
8:05.000,174600,(,0,0,1
8:05.089,174632,N,0,0,0
8:05.131,174647,),0,0,1
8:05.200,174672,(,0,0,2
8:05.258,174693,t,0,0,1
8:05.319,174715,),0,0,2
8:06.378,175096,(,0,0,1
8:06.500,175140,N,0,0,0
8:06.542,175155,),0,0,1
8:06.594,175174,(,0,0,2
8:06.664,175199,t,0,0,4
8:06.775,175239,t,0,0,4
8:06.797,175247,),0,0,2
8:07.856,175628,(,0,0,1
8:07.942,175659,N,0,0,0
8:07.975,175671,),0,0,1
8:08.017,175686,(,0,0,2
8:08.094,175714,t,0,0,4
8:08.247,175769,t,0,0,4
8:08.278,175780,),0,0,2
8:09.272,176138,(,0,0,1
8:09.361,176170,N,0,0,0
8:09.408,176187,),0,0,1
8:09.467,176208,(,0,0,2
8:09.522,176228,t,0,0,4
8:09.722,176300,t,0,0,4
8:09.753,176311,),0,0,2
8:10.658,176637,(,0,0,1
8:10.775,176679,N,0,0,0
8:10.808,176691,),0,0,1
8:10.853,176707,(,0,0,2
8:10.917,176730,t,0,0,1
8:11.028,176770,),0,0,2
8:11.467,176928,(,0,0,1
8:11.544,176956,N,0,0,0
8:11.592,176973,),0,0,1
8:11.617,176982,(,0,0,2
8:11.689,177008,t,0,0,4
8:11.919,177091,t,0,0,4
8:11.947,177101,),0,0,2
8:12.192,177189,(,0,0,1
8:12.275,177219,N,0,0,0
8:12.308,177231,),0,0,1
8:12.339,177242,(,0,0,2
8:12.425,177273,t,0,0,4
8:12.553,177319,t,0,0,4
8:12.583,177330,),0,0,2
8:12.892,177441,(,0,0,1
8:12.986,177475,N,0,0,0
8:13.019,177487,),0,0,1
8:13.106,177518,(,0,0,2
8:13.156,177536,t,0,0,4
8:13.325,177597,t,0,0,4
8:13.439,177638,),0,0,2
8:14.064,177863,(,0,0,1
8:14.131,177887,N,0,0,0
8:14.167,177900,),0,0,1
8:14.244,177928,(,0,0,2
8:14.339,177962,t,0,0,1
8:14.436,177997,),0,0,2
8:14.944,178180,(,0,0,1
8:15.036,178213,N,0,0,0
8:15.081,178229,),0,0,1
8:15.117,178242,(,0,0,2
8:15.206,178274,t,0,0,4
8:15.317,178314,t,0,0,4
8:15.422,178352,),0,0,2
8:15.794,178486,(,0,0,1
8:15.892,178521,N,0,0,0
8:15.931,178535,),0,0,1
8:15.975,178551,(,0,0,2
8:16.050,178578,t,0,0,4
8:16.244,178648,t,0,0,4
8:16.272,178658,),0,0,2
8:16.506,178742,(,0,0,1
8:16.631,178787,N,0,0,0
8:16.669,178801,),0,0,1
8:16.908,178887,(,0,0,2
8:16.953,178903,t,0,0,1
8:17.000,178920,),0,0,2
8:17.269,179017,(,0,0,1
8:17.344,179044,N,0,0,0
8:17.392,179061,),0,0,1
8:17.547,179117,(,0,0,2
8:17.597,179135,t,0,0,0
8:17.644,179152,),0,0,2
8:17.939,179258,(,0,0,1
8:18.069,179305,N,0,0,0
8:18.281,179381,),0,0,1
8:18.439,179438,(,0,0,2
8:18.467,179448,t,0,0,1
8:18.506,179462,),0,0,2
8:18.697,179531,(,0,0,1
8:18.803,179569,N,0,0,0
8:18.856,179588,),0,0,1
8:19.342,179763,(,0,0,1
8:19.439,179798,N,0,0,0
8:19.486,179815,),0,0,1
8:19.569,179845,(,0,0,2
8:19.600,179856,t,0,0,1
8:19.706,179894,),0,0,2
8:20.136,180049,(,0,0,1
8:20.247,180089,N,0,0,0
8:20.292,180105,),0,0,1
8:20.317,180114,(,0,0,2
8:20.408,180147,t,0,0,4
8:20.500,180180,t,0,0,4
8:20.542,180195,),0,0,2
8:20.664,180239,(,0,0,1
8:20.783,180282,N,0,0,0
8:20.806,180290,),0,0,1
8:20.869,180313,(,0,0,2
8:20.956,180344,t,0,0,4
8:21.117,180402,t,0,0,4
8:21.156,180416,),0,0,2
8:36.719,186019,(,0,0,1
8:36.792,186045,N,0,0,0
8:36.839,186062,),0,0,1
8:36.897,186083,(,0,0,2
8:36.964,186107,t,0,0,4
8:37.033,186132,t,0,0,4
8:37.092,186153,),0,0,2
8:37.447,186281,(,0,0,1
8:37.497,186299,N,0,0,0
8:37.550,186318,),0,0,1
8:37.583,186330,(,0,0,2
8:37.661,186358,t,0,0,4
8:37.731,186383,t,0,0,4
8:37.800,186408,),0,0,2
8:39.436,186997,(,0,0,1
8:39.519,187027,N,0,0,0
8:39.564,187043,),0,0,1
8:39.619,187063,(,0,0,2
8:39.667,187080,t,0,0,1
8:39.758,187113,),0,0,2
8:41.578,187768,(,0,0,1
8:41.633,187788,N,0,0,0
8:41.675,187803,),0,0,1
8:41.714,187817,(,0,0,2
8:41.797,187847,t,0,0,4
8:41.900,187884,t,0,0,4
8:41.961,187906,),0,0,2
8:43.644,188512,(,0,0,1
8:43.722,188540,N,0,0,0
8:43.769,188557,),0,0,1
8:43.822,188576,(,0,0,2
8:43.872,188594,t,0,0,4
8:44.031,188651,t,0,0,4
8:44.067,188664,),0,0,2
8:44.333,188760,(,0,0,1
8:44.417,188790,N,0,0,0
8:44.461,188806,),0,0,1
8:44.508,188823,(,0,0,2
8:44.575,188847,t,0,0,4
8:44.681,188885,t,0,0,4
8:44.772,188918,),0,0,2
8:45.031,189011,(,0,0,1
8:45.114,189041,N,0,0,0
8:45.153,189055,),0,0,1
8:45.208,189075,(,0,0,2
8:45.269,189097,t,0,0,4
8:45.369,189133,t,0,0,4
8:45.408,189147,),0,0,2
8:45.714,189257,(,0,0,1
8:45.803,189289,N,0,0,0
8:45.847,189305,),0,0,1
8:45.886,189319,(,0,0,2
8:45.967,189348,t,0,0,4
8:46.125,189405,t,0,0,4
8:46.164,189419,),0,0,2
8:46.406,189506,(,0,0,1
8:46.486,189535,N,0,0,0
8:46.531,189551,),0,0,1
8:46.569,189565,(,0,0,2
8:46.644,189592,t,0,0,4
8:46.756,189632,t,0,0,4
8:46.783,189642,),0,0,2
8:47.083,189750,(,0,0,1
8:47.175,189783,N,0,0,0
8:47.225,189801,),0,0,1
8:47.275,189819,(,0,0,2
8:47.342,189843,t,0,0,4
8:47.419,189871,t,0,0,4
8:47.528,189910,),0,0,2
8:47.783,190002,(,0,0,1
8:47.875,190035,N,0,0,0
8:47.922,190052,),0,0,1
8:47.967,190068,(,0,0,2
8:48.039,190094,t,0,0,1
8:48.125,190125,),0,0,2
8:48.481,190253,(,0,0,1
8:48.567,190284,N,0,0,0
8:48.606,190298,),0,0,1
8:48.642,190311,(,0,0,2
8:48.736,190345,t,0,0,4
8:48.853,190387,t,0,0,4
8:48.919,190411,),0,0,2
8:49.164,190499,(,0,0,1
8:49.247,190529,N,0,0,0
8:49.292,190545,),0,0,1
8:49.344,190564,(,0,0,2
8:49.411,190588,t,0,0,1
8:49.486,190615,),0,0,2
8:49.850,190746,(,0,0,1
8:49.942,190779,N,0,0,0
8:49.986,190795,),0,0,1
8:50.025,190809,(,0,0,2
8:50.103,190837,t,0,0,1
8:50.172,190862,),0,0,2
8:50.353,190927,(,0,0,1
8:50.444,190960,N,0,0,0
8:50.489,190976,),0,0,1
8:50.528,190990,(,0,0,2
8:50.603,191017,t,0,0,1
8:50.667,191040,),0,0,2
8:51.128,191206,(,0,0,1
8:51.219,191239,N,0,0,0
8:51.264,191255,),0,0,1
8:51.306,191270,(,0,0,2
8:51.381,191297,t,0,0,4
8:51.519,191347,t,0,0,4
8:51.581,191369,),0,0,2
8:51.844,191464,(,0,0,1
8:51.933,191496,N,0,0,0
8:51.975,191511,),0,0,1
8:52.022,191528,(,0,0,2
8:52.083,191550,t,0,0,4
8:52.214,191597,t,0,0,4
8:52.250,191610,),0,0,2
8:52.539,191714,(,0,0,1
8:52.628,191746,N,0,0,0
8:52.669,191761,),0,0,1
8:52.725,191781,(,0,0,2
8:52.783,191802,t,0,0,1
8:52.867,191832,),0,0,2
8:53.236,191965,(,0,0,1
8:53.314,191993,N,0,0,0
8:53.358,192009,),0,0,1
8:53.397,192023,(,0,0,2
8:53.472,192050,t,0,0,4
8:53.550,192078,t,0,0,4
8:53.614,192101,),0,0,2
8:53.919,192211,(,0,0,1
8:54.006,192242,N,0,0,0
8:54.050,192258,),0,0,1
8:54.089,192272,(,0,0,2
8:54.178,192304,t,0,0,4
8:54.267,192336,t,0,0,4
8:54.317,192354,),0,0,2
8:54.619,192463,(,0,0,1
8:54.700,192492,N,0,0,0
8:54.744,192508,),0,0,1
8:54.792,192525,(,0,0,2
8:54.861,192550,t,0,0,4
8:54.947,192581,t,0,0,4
8:55.042,192615,),0,0,2
8:55.297,192707,(,0,0,1
8:55.389,192740,N,0,0,0
8:55.433,192756,),0,0,1
8:55.475,192771,(,0,0,2
8:55.544,192796,t,0,0,4
8:55.628,192826,t,0,0,4
8:55.756,192872,),0,0,2
8:55.981,192953,(,0,0,1
8:56.069,192985,N,0,0,0
8:56.114,193001,),0,0,1
8:56.158,193017,(,0,0,2
8:56.236,193045,t,0,0,4
8:56.339,193082,t,0,0,4
8:56.450,193122,),0,0,2
8:56.678,193204,(,0,0,1
8:56.769,193237,N,0,0,0
8:56.814,193253,),0,0,1
8:56.853,193267,(,0,0,2
8:56.936,193297,t,0,0,1
8:57.017,193326,),0,0,2
8:57.308,193431,(,0,0,1
8:57.394,193462,N,0,0,0
8:57.436,193477,),0,0,1
8:57.478,193492,(,0,0,2
8:57.550,193518,t,0,0,4
8:57.653,193555,t,0,0,4
8:57.717,193578,),0,0,2
8:58.064,193703,(,0,0,1
8:58.150,193734,N,0,0,0
8:58.192,193749,),0,0,1
8:58.233,193764,(,0,0,2
8:58.306,193790,t,0,0,4
8:58.406,193826,t,0,0,4
8:58.514,193865,),0,0,2
8:58.778,193960,(,0,0,1
8:58.858,193989,N,0,0,0
8:58.900,194004,),0,0,1
8:58.942,194019,(,0,0,2
8:59.017,194046,t,0,0,4
8:59.122,194084,t,0,0,4
8:59.197,194111,),0,0,2
8:59.500,194220,(,0,0,1
8:59.592,194253,N,0,0,0
8:59.633,194268,),0,0,1
8:59.681,194285,(,0,0,2
8:59.761,194314,t,0,0,4
8:59.864,194351,t,0,0,4
8:59.961,194386,),0,0,2
9:00.222,194480,(,0,0,1
9:00.311,194512,N,0,0,0
9:00.353,194527,),0,0,1
9:00.392,194541,(,0,0,2
9:00.469,194569,t,0,0,4
9:00.561,194602,t,0,0,4
9:00.647,194633,),0,0,2
9:01.675,195003,(,0,0,1
9:01.758,195033,N,0,0,0
9:01.800,195048,),0,0,1
9:01.844,195064,(,0,0,2
9:01.917,195090,t,0,0,4
9:02.003,195121,t,0,0,4
9:02.108,195159,),0,0,2
9:02.414,195269,(,0,0,1
9:02.506,195302,N,0,0,0
9:02.550,195318,),0,0,1
9:02.592,195333,(,0,0,2
9:02.658,195357,t,0,0,4
9:02.758,195393,t,0,0,4
9:02.833,195420,),0,0,2
9:03.147,195533,(,0,0,1
9:03.228,195562,N,0,0,0
9:03.272,195578,),0,0,1
9:03.328,195598,(,0,0,2
9:03.389,195620,t,0,0,4
9:03.483,195654,t,0,0,4
9:03.606,195698,),0,0,2
9:03.886,195799,(,0,0,1
9:03.969,195829,N,0,0,0
9:04.011,195844,),0,0,1
9:04.058,195861,(,0,0,2
9:04.125,195885,t,0,0,1
9:04.211,195916,),0,0,2
9:05.361,196330,(,0,0,1
9:05.444,196360,N,0,0,0
9:05.483,196374,),0,0,1
9:05.525,196389,(,0,0,2
9:05.606,196418,t,0,0,4
9:05.700,196452,t,0,0,4
9:05.811,196492,),0,0,2
9:06.853,196867,(,0,0,1
9:06.933,196896,N,0,0,0
9:06.972,196910,),0,0,1
9:07.019,196927,(,0,0,2
9:07.092,196953,t,0,0,4
9:07.194,196990,t,0,0,4
9:07.275,197019,),0,0,2
9:08.350,197406,(,0,0,1
9:08.442,197439,N,0,0,0
9:08.486,197455,),0,0,1
9:08.519,197467,(,0,0,2
9:08.597,197495,t,0,0,1
9:08.678,197524,),0,0,2
9:09.097,197675,(,0,0,1
9:09.186,197707,N,0,0,0
9:09.231,197723,),0,0,1
9:09.275,197739,(,0,0,2
9:09.350,197766,t,0,0,4
9:09.442,197799,t,0,0,4
9:09.544,197836,),0,0,2
9:09.847,197945,(,0,0,1
9:09.933,197976,N,0,0,0
9:09.972,197990,),0,0,1
9:10.011,198004,(,0,0,2
9:10.089,198032,t,0,0,4
9:10.178,198064,t,0,0,4
9:10.269,198097,),0,0,2
9:12.097,198755,(,0,0,1
9:12.142,198771,N,0,0,0
9:12.228,198802,),0,0,1
9:12.272,198818,(,0,0,2
9:12.347,198845,t,0,0,4
9:12.444,198880,t,0,0,4
9:12.517,198906,),0,0,2
9:12.850,199026,(,0,0,1
9:12.950,199062,N,0,0,0
9:12.994,199078,),0,0,1
9:13.036,199093,(,0,0,2
9:13.114,199121,t,0,0,4
9:13.203,199153,t,0,0,4
9:13.306,199190,),0,0,2
9:13.625,199305,(,0,0,1
9:13.722,199340,N,0,0,0
9:13.767,199356,),0,0,1
9:13.806,199370,(,0,0,2
9:13.889,199400,t,0,0,1
9:13.967,199428,),0,0,2
9:14.381,199577,(,0,0,1
9:14.442,199599,N,0,0,0
9:14.531,199631,),0,0,1
9:14.567,199644,(,0,0,2
9:14.631,199667,t,0,0,4
9:14.700,199692,t,0,0,4
9:14.769,199717,),0,0,2
9:14.919,199771,(,0,0,1
9:14.972,199790,N,0,0,0
9:15.058,199821,),0,0,1
9:15.103,199837,(,0,0,2
9:15.178,199864,t,0,0,1
9:15.250,199890,),0,0,2
9:15.767,200076,(,0,0,1
9:15.817,200094,N,0,0,0
9:15.906,200126,),0,0,1
9:15.958,200145,(,0,0,2
9:16.033,200172,t,0,0,4
9:16.133,200208,t,0,0,4
9:16.250,200250,),0,0,2
9:16.556,200360,(,0,0,1
9:16.608,200379,N,0,0,0
9:16.694,200410,),0,0,1
9:16.742,200427,(,0,0,2
9:16.817,200454,t,0,0,1
9:16.903,200485,),0,0,2
9:17.100,200556,(,0,0,1
9:17.150,200574,N,0,0,0
9:17.236,200605,),0,0,1
9:17.267,200616,(,0,0,2
9:17.353,200647,t,0,0,4
9:17.456,200684,t,0,0,4
9:17.519,200707,),0,0,2
9:17.975,200871,(,0,0,1
9:18.031,200891,N,0,0,0
9:18.111,200920,),0,0,1
9:18.153,200935,(,0,0,2
9:18.228,200962,t,0,0,1
9:18.317,200994,),0,0,2
9:18.733,201144,(,0,0,1
9:18.789,201164,N,0,0,0
9:18.878,201196,),0,0,1
9:18.931,201215,(,0,0,2
9:18.997,201239,t,0,0,4
9:19.103,201277,t,0,0,4
9:19.183,201306,),0,0,2
9:19.506,201422,(,0,0,1
9:19.561,201442,N,0,0,0
9:19.647,201473,),0,0,1
9:19.686,201487,(,0,0,2
9:19.761,201514,t,0,0,4
9:19.864,201551,t,0,0,4
9:19.969,201589,),0,0,2
9:20.269,201697,(,0,0,1
9:20.361,201730,N,0,0,0
9:20.408,201747,),0,0,1
9:20.453,201763,(,0,0,2
9:20.528,201790,t,0,0,1
9:20.619,201823,),0,0,2
9:21.039,201974,(,0,0,1
9:21.094,201994,N,0,0,0
9:21.181,202025,),0,0,1
9:21.225,202041,(,0,0,2
9:21.303,202069,t,0,0,1
9:21.378,202096,),0,0,2
9:21.814,202253,(,0,0,1
9:21.867,202272,N,0,0,0
9:21.953,202303,),0,0,1
9:22.006,202322,(,0,0,2
9:22.072,202346,t,0,0,1
9:22.161,202378,),0,0,2
9:22.581,202529,(,0,0,1
9:22.644,202552,N,0,0,0
9:22.736,202585,),0,0,1
9:22.772,202598,(,0,0,2
9:22.853,202627,t,0,0,1
9:22.933,202656,),0,0,2
9:23.411,202828,(,0,0,1
9:23.431,202835,N,0,0,0
9:23.519,202867,),0,0,1
9:23.561,202882,(,0,0,2
9:23.644,202912,t,0,0,1
9:23.722,202940,),0,0,2
9:24.150,203094,(,0,0,1
9:24.206,203114,N,0,0,0
9:24.297,203147,),0,0,1
9:24.339,203162,(,0,0,2
9:24.417,203190,t,0,0,1
9:24.508,203223,),0,0,2
9:24.953,203383,(,0,0,1
9:25.000,203400,N,0,0,0
9:25.089,203432,),0,0,1
9:25.131,203447,(,0,0,2
9:25.208,203475,t,0,0,4
9:25.314,203513,t,0,0,4
9:25.394,203542,),0,0,2
9:25.736,203665,(,0,0,1
9:25.789,203684,N,0,0,0
9:25.878,203716,),0,0,1
9:25.925,203733,(,0,0,2
9:25.997,203759,t,0,0,1
9:26.092,203793,),0,0,2
9:26.514,203945,(,0,0,1
9:26.567,203964,N,0,0,0
9:26.644,203992,),0,0,1
9:26.689,204008,(,0,0,2
9:26.764,204035,t,0,0,4
9:26.861,204070,t,0,0,4
9:26.961,204106,),0,0,2
9:27.281,204221,(,0,0,1
9:27.350,204246,N,0,0,0
9:27.439,204278,),0,0,1
9:27.489,204296,(,0,0,2
9:27.561,204322,t,0,0,1
9:27.644,204352,),0,0,2
9:27.767,204396,(,0,0,1
9:27.833,204420,N,0,0,0
9:27.911,204448,),0,0,1
9:27.944,204460,(,0,0,2
9:28.039,204494,t,0,0,1
9:28.142,204531,),0,0,2
9:28.847,204785,(,0,0,1
9:28.908,204807,N,0,0,0
9:28.992,204837,),0,0,1
9:29.036,204853,(,0,0,2
9:29.119,204883,t,0,0,1
9:29.211,204916,),0,0,2
9:29.636,205069,(,0,0,1
9:29.689,205088,N,0,0,0
9:29.781,205121,),0,0,1
9:29.836,205141,(,0,0,2
9:29.900,205164,t,0,0,4
9:30.006,205202,t,0,0,4
9:30.094,205234,),0,0,2
9:30.439,205358,(,0,0,1
9:30.483,205374,N,0,0,0
9:30.575,205407,),0,0,1
9:30.611,205420,(,0,0,2
9:30.686,205447,t,0,0,1
9:30.769,205477,),0,0,2
9:31.206,205634,(,0,0,1
9:31.253,205651,N,0,0,0
9:31.339,205682,),0,0,1
9:31.386,205699,(,0,0,2
9:31.458,205725,t,0,0,1
9:31.539,205754,),0,0,2
9:31.947,205901,(,0,0,1
9:32.014,205925,N,0,0,0
9:32.097,205955,),0,0,1
9:32.142,205971,(,0,0,2
9:32.222,206000,t,0,0,1
9:32.306,206030,),0,0,2
9:32.750,206190,(,0,0,1
9:32.803,206209,N,0,0,0
9:32.894,206242,),0,0,1
9:32.936,206257,(,0,0,2
9:33.019,206287,t,0,0,1
9:33.108,206319,),0,0,2
9:33.517,206466,(,0,0,1
9:33.583,206490,N,0,0,0
9:33.669,206521,),0,0,1
9:33.706,206534,(,0,0,2
9:33.789,206564,t,0,0,1
9:33.872,206594,),0,0,2
9:34.308,206751,(,0,0,1
9:34.358,206769,N,0,0,0
9:34.450,206802,),0,0,1
9:34.503,206821,(,0,0,2
9:34.567,206844,t,0,0,1
9:34.650,206874,),0,0,2
9:35.083,207030,(,0,0,1
9:35.133,207048,N,0,0,0
9:35.222,207080,),0,0,1
9:35.264,207095,(,0,0,2
9:35.356,207128,t,0,0,1
9:35.442,207159,),0,0,2
9:35.875,207315,(,0,0,1
9:35.928,207334,N,0,0,0
9:36.014,207365,),0,0,1
9:36.069,207385,(,0,0,2
9:36.136,207409,t,0,0,1
9:36.206,207434,),0,0,2
9:36.644,207592,(,0,0,1
9:36.694,207610,N,0,0,0
9:36.781,207641,),0,0,1
9:36.828,207658,(,0,0,2
9:36.906,207686,t,0,0,1
9:36.983,207714,),0,0,2
9:37.411,207868,(,0,0,1
9:37.467,207888,N,0,0,0
9:37.556,207920,),0,0,1
9:37.600,207936,(,0,0,2
9:37.675,207963,t,0,0,4
9:37.783,208002,t,0,0,4
9:37.861,208030,),0,0,2
9:38.203,208153,(,0,0,1
9:38.247,208169,N,0,0,0
9:38.339,208202,),0,0,1
9:38.383,208218,(,0,0,2
9:38.458,208245,t,0,0,4
9:38.569,208285,t,0,0,4
9:38.642,208311,),0,0,2
9:38.953,208423,(,0,0,1
9:39.008,208443,N,0,0,0
9:39.097,208475,),0,0,1
9:39.139,208490,(,0,0,2
9:39.217,208518,t,0,0,4
9:39.333,208560,t,0,0,4
9:39.394,208582,),0,0,2
9:39.725,208701,(,0,0,1
9:39.783,208722,N,0,0,0
9:39.869,208753,),0,0,1
9:39.914,208769,(,0,0,2
9:39.992,208797,t,0,0,1
9:40.081,208829,),0,0,2
9:40.489,208976,(,0,0,1
9:40.542,208995,N,0,0,0
9:40.631,209027,),0,0,1
9:40.678,209044,(,0,0,2
9:40.758,209073,t,0,0,1
9:40.842,209103,),0,0,2
9:41.261,209254,(,0,0,1
9:41.317,209274,N,0,0,0
9:41.408,209307,),0,0,1
9:41.447,209321,(,0,0,2
9:41.525,209349,t,0,0,1
9:41.611,209380,),0,0,2
9:42.033,209532,(,0,0,1
9:42.086,209551,N,0,0,0
9:42.178,209584,),0,0,1
9:42.228,209602,(,0,0,2
9:42.300,209628,t,0,0,1
9:42.389,209660,),0,0,2
9:42.811,209812,(,0,0,1
9:42.897,209843,N,0,0,0
9:42.942,209859,),0,0,1
9:42.986,209875,(,0,0,2
9:43.061,209902,t,0,0,1
9:43.153,209935,),0,0,2
9:43.558,210081,(,0,0,1
9:43.619,210103,N,0,0,0
9:43.708,210135,),0,0,1
9:43.753,210151,(,0,0,2
9:43.839,210182,t,0,0,1
9:43.919,210211,),0,0,2
9:44.147,210293,(,0,0,0
9:44.150,210294,p,0,0,0
9:44.186,210307,),0,0,0
9:44.342,210363,(,0,0,1
9:44.394,210382,N,0,0,0
9:44.483,210414,),0,0,1
9:44.519,210427,(,0,0,2
9:44.608,210459,t,0,0,4
9:44.717,210498,t,0,0,4
9:44.758,210513,),0,0,2
9:45.114,210641,(,0,0,1
9:45.164,210659,N,0,0,0
9:45.253,210691,),0,0,1
9:45.289,210704,(,0,0,2
9:45.369,210733,t,0,0,1
9:45.456,210764,),0,0,2
9:45.875,210915,(,0,0,1
