Elapsedtime,sample,Type,Sub,Chan,Num
0:00.656,236,(,0,0,0
0:00.697,251,p,0,0,0
0:00.736,265,),0,0,0
0:00.819,295,(,0,0,1
0:00.856,308,N,0,0,0
0:00.894,322,),0,0,1
0:00.997,359,t,0,0,2
0:01.150,414,),0,0,2
0:01.333,480,(,0,0,1
0:01.400,504,N,0,0,0
0:01.472,530,),0,0,1
0:01.617,582,(,0,0,2
0:01.669,601,t,0,0,1
0:01.767,636,),0,0,2
0:02.536,913,(,0,0,0
0:02.578,928,p,0,0,0
0:02.617,942,),0,0,0
0:02.678,964,(,0,0,1
0:02.711,976,N,0,0,0
0:02.747,989,),0,0,1
0:02.917,1050,(,0,0,2
0:03.019,1087,t,0,0,0
0:03.106,1118,),0,0,2
0:03.447,1241,(,0,0,0
0:03.494,1258,p,0,0,0
0:03.536,1273,),0,0,0
0:03.614,1301,(,0,0,1
0:03.650,1314,N,0,0,0
0:03.689,1328,),0,0,1
0:03.861,1390,(,0,0,2
0:03.969,1429,t,0,0,0
0:04.072,1466,),0,0,2
0:04.383,1578,(,0,0,0
0:04.425,1593,p,0,0,0
0:04.469,1609,),0,0,0
0:04.547,1637,(,0,0,1
0:04.583,1650,N,0,0,0
0:04.619,1663,),0,0,1
0:04.781,1721,(,0,0,2
0:04.886,1759,t,0,0,0
0:04.978,1792,),0,0,2
0:05.281,1901,(,0,0,0
0:05.322,1916,p,0,0,0
0:05.361,1930,),0,0,0
0:05.439,1958,(,0,0,1
0:05.472,1970,N,0,0,0
0:05.506,1982,),0,0,1
0:05.672,2042,(,0,0,2
0:05.756,2072,t,0,0,0
0:05.842,2103,),0,0,2
0:06.167,2220,(,0,0,0
0:06.208,2235,p,0,0,0
0:06.250,2250,),0,0,0
0:06.333,2280,(,0,0,1
0:06.369,2293,N,0,0,0
0:06.406,2306,),0,0,1
0:06.542,2355,t,0,0,2
0:06.669,2401,),0,0,2
0:06.844,2464,(,0,0,1
0:06.914,2489,N,0,0,0
0:06.983,2514,),0,0,1
0:07.117,2562,(,0,0,2
0:07.178,2584,t,0,0,1
0:07.272,2618,),0,0,2
0:08.033,2892,(,0,0,0
0:08.072,2906,p,0,0,0
0:08.114,2921,),0,0,0
0:08.172,2942,(,0,0,1
0:08.208,2955,N,0,0,0
0:08.244,2968,),0,0,1
0:08.414,3029,(,0,0,2
0:08.531,3071,t,0,0,0
0:08.622,3104,),0,0,2
0:08.956,3224,(,0,0,0
0:09.006,3242,p,0,0,0
0:09.050,3258,),0,0,0
0:09.119,3283,(,0,0,1
0:09.156,3296,N,0,0,0
0:09.192,3309,),0,0,1
0:09.358,3369,(,0,0,2
0:09.453,3403,t,0,0,0
0:09.539,3434,),0,0,2
0:09.842,3543,(,0,0,0
0:09.883,3558,p,0,0,0
0:09.922,3572,),0,0,0
0:09.997,3599,(,0,0,1
0:10.036,3613,N,0,0,0
0:10.072,3626,),0,0,1
0:10.247,3689,(,0,0,2
0:10.333,3720,t,0,0,0
0:10.422,3752,),0,0,2
0:10.692,3849,(,0,0,0
0:10.736,3865,p,0,0,0
0:10.778,3880,),0,0,0
0:10.858,3909,(,0,0,1
0:10.897,3923,N,0,0,0
0:10.933,3936,),0,0,1
0:11.108,3999,(,0,0,2
0:11.208,4035,t,0,0,0
0:11.317,4074,),0,0,2
0:11.622,4184,(,0,0,0
0:11.667,4200,p,0,0,0
0:11.711,4216,),0,0,0
0:11.789,4244,(,0,0,1
0:11.825,4257,N,0,0,0
0:11.861,4270,),0,0,1
0:11.936,4297,t,0,0,2
0:12.114,4361,),0,0,2
0:12.256,4412,(,0,0,1
0:12.358,4449,N,0,0,0
0:12.425,4473,),0,0,1
0:12.542,4515,(,0,0,2
0:12.622,4544,t,0,0,1
0:12.722,4580,),0,0,2
0:13.442,4839,(,0,0,0
0:13.483,4854,p,0,0,0
0:13.525,4869,),0,0,0
0:13.586,4891,(,0,0,1
0:13.625,4905,N,0,0,0
0:13.661,4918,),0,0,1
0:13.842,4983,(,0,0,2
0:13.944,5020,t,0,0,0
0:14.039,5054,),0,0,2
0:14.356,5168,(,0,0,0
0:14.397,5183,p,0,0,0
0:14.439,5198,),0,0,0
0:14.492,5217,(,0,0,1
0:14.550,5238,N,0,0,0
0:14.589,5252,),0,0,1
0:14.753,5311,(,0,0,2
0:14.847,5345,t,0,0,0
0:14.939,5378,),0,0,2
0:15.222,5480,(,0,0,0
0:15.267,5496,p,0,0,0
0:15.308,5511,),0,0,0
0:15.383,5538,(,0,0,1
0:15.419,5551,N,0,0,0
0:15.456,5564,),0,0,1
0:15.619,5623,(,0,0,2
0:15.725,5661,t,0,0,0
0:15.814,5693,),0,0,2
0:16.125,5805,(,0,0,0
0:16.175,5823,p,0,0,0
0:16.219,5839,),0,0,0
0:16.300,5868,(,0,0,1
0:16.336,5881,N,0,0,0
0:16.372,5894,),0,0,1
0:16.544,5956,(,0,0,2
0:16.636,5989,t,0,0,0
0:16.725,6021,),0,0,2
0:17.047,6137,(,0,0,0
0:17.089,6152,p,0,0,0
0:17.131,6167,),0,0,0
0:17.214,6197,(,0,0,1
0:17.247,6209,N,0,0,0
0:17.283,6222,),0,0,1
0:17.453,6283,(,0,0,2
0:17.542,6315,t,0,0,0
0:17.625,6345,),0,0,2
0:17.914,6449,(,0,0,0
0:17.953,6463,p,0,0,0
0:17.994,6478,),0,0,0
0:18.072,6506,(,0,0,1
0:18.111,6520,N,0,0,0
0:18.147,6533,),0,0,1
0:18.322,6596,(,0,0,2
0:18.422,6632,t,0,0,0
0:18.525,6669,),0,0,2
0:18.864,6791,(,0,0,0
0:18.908,6807,p,0,0,0
0:18.953,6823,),0,0,0
0:19.028,6850,(,0,0,1
0:19.064,6863,N,0,0,0
0:19.100,6876,),0,0,1
0:19.264,6935,(,0,0,2
0:19.367,6972,t,0,0,0
0:19.456,7004,),0,0,2
0:19.794,7126,(,0,0,0
0:19.836,7141,p,0,0,0
0:19.878,7156,),0,0,0
0:19.961,7186,(,0,0,1
0:19.997,7199,N,0,0,0
0:20.033,7212,),0,0,1
0:20.194,7270,(,0,0,2
0:20.289,7304,t,0,0,0
0:20.375,7335,),0,0,2
0:20.656,7436,(,0,0,0
0:20.700,7452,p,0,0,0
0:20.742,7467,),0,0,0
0:20.828,7498,(,0,0,1
0:20.867,7512,N,0,0,0
0:20.903,7525,),0,0,1
0:20.981,7553,t,0,0,2
0:21.169,7621,),0,0,2
0:21.322,7676,(,0,0,1
0:21.414,7709,N,0,0,0
0:21.483,7734,),0,0,1
0:21.622,7784,(,0,0,2
0:21.678,7804,t,0,0,1
0:21.772,7838,),0,0,2
0:22.533,8112,(,0,0,0
0:22.581,8129,p,0,0,0
0:22.625,8145,),0,0,0
0:22.681,8165,(,0,0,1
0:22.714,8177,N,0,0,0
0:22.753,8191,),0,0,1
0:22.933,8256,(,0,0,0
0:23.039,8294,p,0,0,0
0:23.100,8316,),0,0,0
0:23.203,8353,(,0,0,1
0:23.272,8378,N,0,0,0
0:23.344,8404,),0,0,1
0:23.503,8461,(,0,0,2
0:23.556,8480,t,0,0,1
0:23.653,8515,),0,0,2
0:24.428,8794,(,0,0,0
0:24.472,8810,p,0,0,0
0:24.517,8826,),0,0,0
0:24.572,8846,(,0,0,1
0:24.608,8859,N,0,0,0
0:24.644,8872,),0,0,1
0:24.750,8910,t,0,0,2
0:24.922,8972,),0,0,2
0:25.083,9030,(,0,0,1
0:25.144,9052,N,0,0,0
0:25.214,9077,),0,0,1
0:25.344,9124,(,0,0,2
0:25.403,9145,t,0,0,1
0:25.506,9182,),0,0,2
0:26.292,9465,(,0,0,0
0:26.333,9480,p,0,0,0
0:26.375,9495,),0,0,0
0:26.436,9517,(,0,0,1
0:26.472,9530,N,0,0,0
0:26.508,9543,),0,0,1
0:26.669,9601,(,0,0,2
0:26.781,9641,t,0,0,0
0:26.875,9675,),0,0,2
0:26.981,9713,(,0,0,1
0:27.047,9737,N,0,0,0
0:27.117,9762,),0,0,1
0:27.233,9804,(,0,0,2
0:27.311,9832,t,0,0,1
0:27.414,9869,),0,0,2
0:28.136,10129,(,0,0,0
0:28.175,10143,p,0,0,0
0:28.217,10158,),0,0,0
0:28.278,10180,(,0,0,1
0:28.314,10193,N,0,0,0
0:28.350,10206,),0,0,1
0:28.522,10268,(,0,0,2
0:28.644,10312,t,0,0,0
0:28.722,10340,),0,0,2
0:28.842,10383,(,0,0,1
0:28.914,10409,N,0,0,0
0:28.986,10435,),0,0,1
0:29.100,10476,(,0,0,2
0:29.175,10503,t,0,0,1
0:29.281,10541,),0,0,2
0:30.003,10801,(,0,0,0
0:30.047,10817,p,0,0,0
0:30.092,10833,),0,0,0
0:30.150,10854,(,0,0,1
0:30.186,10867,N,0,0,0
0:30.222,10880,),0,0,1
0:30.347,10925,t,0,0,2
0:30.508,10983,),0,0,2
0:30.531,10991,(,0,0,0
0:30.611,11020,p,0,0,0
0:30.653,11035,),0,0,0
0:30.672,11042,(,0,0,1
0:30.742,11067,N,0,0,0
0:30.814,11093,),0,0,1
0:30.978,11152,(,0,0,2
0:31.028,11170,t,0,0,1
0:31.125,11205,),0,0,2
0:31.894,11482,(,0,0,0
0:31.933,11496,p,0,0,0
0:31.975,11511,),0,0,0
0:32.033,11532,(,0,0,1
0:32.067,11544,N,0,0,0
0:32.103,11557,),0,0,1
0:32.264,11615,(,0,0,2
0:32.386,11659,t,0,0,0
0:32.475,11691,),0,0,2
0:32.758,11793,(,0,0,0
0:32.797,11807,p,0,0,0
0:32.839,11822,),0,0,0
0:32.911,11848,(,0,0,1
0:32.950,11862,N,0,0,0
0:32.986,11875,),0,0,1
0:33.150,11934,(,0,0,2
0:33.267,11976,t,0,0,0
0:33.361,12010,),0,0,2
0:33.658,12117,(,0,0,0
0:33.700,12132,p,0,0,0
0:33.742,12147,),0,0,0
0:33.814,12173,(,0,0,1
0:33.847,12185,N,0,0,0
0:33.883,12198,),0,0,1
0:34.044,12256,(,0,0,2
0:34.147,12293,t,0,0,0
0:34.236,12325,),0,0,2
0:34.533,12432,(,0,0,0
0:34.575,12447,p,0,0,0
0:34.619,12463,),0,0,0
0:34.689,12488,(,0,0,1
0:34.725,12501,N,0,0,0
0:34.761,12514,),0,0,1
0:34.925,12573,(,0,0,2
0:35.022,12608,t,0,0,0
0:35.108,12639,),0,0,2
0:35.369,12733,(,0,0,0
0:35.411,12748,p,0,0,0
0:35.453,12763,),0,0,0
0:35.506,12782,(,0,0,1
0:35.567,12804,N,0,0,0
0:35.606,12818,),0,0,1
0:35.694,12850,t,0,0,2
0:35.875,12915,),0,0,2
0:35.900,12924,(,0,0,0
0:35.992,12957,p,0,0,0
0:36.022,12968,),0,0,0
0:36.042,12975,(,0,0,1
0:36.111,13000,N,0,0,0
0:36.183,13026,),0,0,1
0:36.314,13073,(,0,0,2
0:36.369,13093,t,0,0,1
0:36.475,13131,),0,0,2
0:37.225,13401,(,0,0,0
0:37.261,13414,p,0,0,0
0:37.303,13429,),0,0,0
0:37.358,13449,(,0,0,1
0:37.394,13462,N,0,0,0
0:37.431,13475,),0,0,1
0:37.533,13512,t,0,0,2
0:37.706,13574,),0,0,2
0:37.836,13621,(,0,0,1
0:37.939,13658,N,0,0,0
0:38.008,13683,),0,0,1
0:38.136,13729,(,0,0,2
0:38.208,13755,t,0,0,1
0:38.314,13793,),0,0,2
0:39.044,14056,(,0,0,0
0:39.086,14071,p,0,0,0
0:39.131,14087,),0,0,0
0:39.183,14106,(,0,0,1
0:39.222,14120,N,0,0,0
0:39.258,14133,),0,0,1
0:39.358,14169,t,0,0,2
0:39.533,14232,),0,0,2
0:39.703,14293,(,0,0,1
0:39.794,14326,N,0,0,0
0:39.867,14352,),0,0,1
0:39.978,14392,(,0,0,2
0:40.053,14419,t,0,0,1
0:40.158,14457,),0,0,2
0:40.903,14725,(,0,0,0
0:40.942,14739,p,0,0,0
0:40.981,14753,),0,0,0
0:41.039,14774,(,0,0,1
0:41.075,14787,N,0,0,0
0:41.111,14800,),0,0,1
0:41.203,14833,t,0,0,2
0:41.383,14898,),0,0,2
0:41.547,14957,(,0,0,1
0:41.614,14981,N,0,0,0
0:41.683,15006,),0,0,1
0:41.819,15055,(,0,0,2
0:41.878,15076,t,0,0,1
0:41.983,15114,),0,0,2
0:42.731,15383,(,0,0,0
0:42.769,15397,p,0,0,0
0:42.814,15413,),0,0,0
0:42.878,15436,(,0,0,1
0:42.917,15450,N,0,0,0
0:42.956,15464,),0,0,1
0:43.139,15530,(,0,0,2
0:43.242,15567,t,0,0,0
0:43.339,15602,),0,0,2
0:43.611,15700,(,0,0,0
0:43.650,15714,p,0,0,0
0:43.689,15728,),0,0,0
0:43.761,15754,(,0,0,1
0:43.797,15767,N,0,0,0
0:43.833,15780,),0,0,1
0:44.003,15841,(,0,0,2
0:44.094,15874,t,0,0,0
0:44.192,15909,),0,0,2
0:44.472,16010,(,0,0,0
0:44.514,16025,p,0,0,0
0:44.556,16040,),0,0,0
0:44.628,16066,(,0,0,1
0:44.664,16079,N,0,0,0
0:44.703,16093,),0,0,1
0:44.872,16154,(,0,0,2
0:44.975,16191,t,0,0,0
0:45.061,16222,),0,0,2
0:45.367,16332,(,0,0,0
0:45.403,16345,p,0,0,0
0:45.444,16360,),0,0,0
0:45.528,16390,(,0,0,1
0:45.567,16404,N,0,0,0
0:45.606,16418,),0,0,1
0:45.775,16479,(,0,0,2
0:45.872,16514,t,0,0,0
0:45.972,16550,),0,0,2
0:46.247,16649,(,0,0,0
0:46.289,16664,p,0,0,0
0:46.331,16679,),0,0,0
0:46.408,16707,(,0,0,1
0:46.442,16719,N,0,0,0
0:46.481,16733,),0,0,1
0:46.572,16766,t,0,0,2
0:46.731,16823,),0,0,2
0:46.878,16876,(,0,0,1
0:46.969,16909,N,0,0,0
0:47.042,16935,),0,0,1
0:47.181,16985,(,0,0,2
0:47.236,17005,t,0,0,1
0:47.331,17039,),0,0,2
0:48.131,17327,(,0,0,0
0:48.172,17342,p,0,0,0
0:48.211,17356,),0,0,0
0:48.272,17378,(,0,0,1
0:48.308,17391,N,0,0,0
0:48.344,17404,),0,0,1
0:48.514,17465,(,0,0,2
0:48.619,17503,t,0,0,0
0:48.708,17535,),0,0,2
0:49.025,17649,(,0,0,0
0:49.067,17664,p,0,0,0
0:49.106,17678,),0,0,0
0:49.189,17708,(,0,0,1
0:49.225,17721,N,0,0,0
0:49.264,17735,),0,0,1
0:49.367,17772,t,0,0,2
0:49.517,17826,),0,0,2
0:49.675,17883,(,0,0,1
0:49.756,17912,N,0,0,0
0:49.819,17935,),0,0,1
0:49.972,17990,(,0,0,2
0:50.019,18007,t,0,0,1
0:50.106,18038,),0,0,2
0:50.908,18327,(,0,0,0
0:50.944,18340,p,0,0,0
0:50.986,18355,),0,0,0
0:51.042,18375,(,0,0,1
0:51.078,18388,N,0,0,0
0:51.111,18400,),0,0,1
0:51.272,18458,(,0,0,2
0:51.389,18500,t,0,0,0
0:51.475,18531,),0,0,2
0:51.817,18654,(,0,0,0
0:51.861,18670,p,0,0,0
0:51.906,18686,),0,0,0
0:51.947,18701,(,0,0,1
0:52.017,18726,N,0,0,0
0:52.053,18739,),0,0,1
0:52.161,18778,t,0,0,2
0:52.314,18833,),0,0,2
0:52.336,18841,(,0,0,0
0:52.425,18873,p,0,0,0
0:52.469,18889,),0,0,0
0:52.492,18897,(,0,0,1
0:52.561,18922,N,0,0,0
0:52.633,18948,),0,0,1
0:52.783,19002,(,0,0,2
0:52.836,19021,t,0,0,1
0:52.933,19056,),0,0,2
0:53.722,19340,(,0,0,0
0:53.761,19354,p,0,0,0
0:53.803,19369,),0,0,0
0:53.856,19388,(,0,0,1
0:53.894,19402,N,0,0,0
0:53.933,19416,),0,0,1
0:54.097,19475,(,0,0,2
0:54.219,19519,t,0,0,0
0:54.294,19546,),0,0,2
0:54.419,19591,(,0,0,1
0:54.492,19617,N,0,0,0
0:54.561,19642,),0,0,1
0:54.703,19693,(,0,0,2
0:54.761,19714,t,0,0,1
0:54.858,19749,),0,0,2
0:55.667,20040,(,0,0,0
0:55.708,20055,p,0,0,0
0:55.750,20070,),0,0,0
0:55.808,20091,(,0,0,1
0:55.844,20104,N,0,0,0
0:55.881,20117,),0,0,1
0:56.044,20176,(,0,0,2
0:56.158,20217,t,0,0,0
0:56.244,20248,),0,0,2
0:56.567,20364,(,0,0,0
0:56.608,20379,p,0,0,0
0:56.653,20395,),0,0,0
0:56.731,20423,(,0,0,1
0:56.767,20436,N,0,0,0
0:56.803,20449,),0,0,1
0:56.872,20474,t,0,0,2
0:57.064,20543,),0,0,2
0:57.214,20597,(,0,0,1
0:57.303,20629,N,0,0,0
0:57.369,20653,),0,0,1
0:57.511,20704,(,0,0,2
0:57.564,20723,t,0,0,1
0:57.661,20758,),0,0,2
0:58.439,21038,(,0,0,0
0:58.481,21053,p,0,0,0
0:58.522,21068,),0,0,0
0:58.578,21088,(,0,0,1
0:58.614,21101,N,0,0,0
0:58.650,21114,),0,0,1
0:58.758,21153,t,0,0,2
0:58.931,21215,),0,0,2
0:59.089,21272,(,0,0,1
0:59.158,21297,N,0,0,0
0:59.231,21323,),0,0,1
0:59.364,21371,(,0,0,2
0:59.422,21392,t,0,0,1
0:59.525,21429,),0,0,2
1:00.275,21699,(,0,0,0
1:00.314,21713,p,0,0,0
1:00.358,21729,),0,0,0
1:00.417,21750,(,0,0,1
1:00.453,21763,N,0,0,0
1:00.489,21776,),0,0,1
1:00.653,21835,(,0,0,2
1:00.772,21878,t,0,0,0
1:00.858,21909,),0,0,2
1:00.964,21947,(,0,0,1
1:01.031,21971,N,0,0,0
1:01.175,22023,),0,0,1
1:01.189,22028,(,0,0,2
1:01.286,22063,t,0,0,1
1:01.392,22101,),0,0,2
1:02.083,22350,(,0,0,0
1:02.114,22361,p,0,0,0
1:02.156,22376,),0,0,0
1:02.214,22397,(,0,0,1
1:02.250,22410,N,0,0,0
1:02.286,22423,),0,0,1
1:02.464,22487,(,0,0,2
1:02.567,22524,t,0,0,0
1:02.664,22559,),0,0,2
1:02.992,22677,(,0,0,0
1:03.025,22689,p,0,0,0
1:03.069,22705,),0,0,0
1:03.139,22730,(,0,0,1
1:03.175,22743,N,0,0,0
1:03.211,22756,),0,0,1
1:03.383,22818,(,0,0,2
1:03.475,22851,t,0,0,0
1:03.567,22884,),0,0,2
1:03.869,22993,(,0,0,0
1:03.906,23006,p,0,0,0
1:03.947,23021,),0,0,0
1:04.022,23048,(,0,0,1
1:04.061,23062,N,0,0,0
1:04.097,23075,),0,0,1
1:04.272,23138,(,0,0,2
1:04.361,23170,t,0,0,0
1:04.456,23204,),0,0,2
1:04.758,23313,(,0,0,0
1:04.792,23325,p,0,0,0
1:04.825,23337,),0,0,0
1:04.911,23368,(,0,0,1
1:04.944,23380,N,0,0,0
1:04.981,23393,),0,0,1
1:05.158,23457,(,0,0,2
1:05.250,23490,t,0,0,0
1:05.350,23526,),0,0,2
1:05.703,23653,(,0,0,0
1:05.739,23666,p,0,0,0
1:05.778,23680,),0,0,0
1:05.856,23708,(,0,0,1
1:05.892,23721,N,0,0,0
1:05.931,23735,),0,0,1
1:06.094,23794,(,0,0,2
1:06.189,23828,t,0,0,0
1:06.281,23861,),0,0,2
1:06.622,23984,(,0,0,0
1:06.656,23996,p,0,0,0
1:06.694,24010,),0,0,0
1:06.778,24040,(,0,0,1
1:06.814,24053,N,0,0,0
1:06.850,24066,),0,0,1
1:07.014,24125,(,0,0,2
1:07.117,24162,t,0,0,0
1:07.211,24196,),0,0,2
1:07.583,24330,(,0,0,0
1:07.622,24344,p,0,0,0
1:07.664,24359,),0,0,0
1:07.728,24382,(,0,0,1
1:07.792,24405,N,0,0,0
1:07.828,24418,),0,0,1
1:08.017,24486,(,0,0,2
1:08.103,24517,t,0,0,0
1:08.192,24549,),0,0,2
1:08.539,24674,(,0,0,0
1:08.581,24689,p,0,0,0
1:08.622,24704,),0,0,0
1:08.700,24732,(,0,0,1
1:08.739,24746,N,0,0,0
1:08.778,24760,),0,0,1
1:08.950,24822,(,0,0,2
1:09.039,24854,t,0,0,0
1:09.133,24888,),0,0,2
1:09.431,24995,(,0,0,0
1:09.472,25010,p,0,0,0
1:09.517,25026,),0,0,0
1:09.600,25056,(,0,0,1
1:09.636,25069,N,0,0,0
1:09.672,25082,),0,0,1
1:09.744,25108,t,0,0,2
1:09.922,25172,),0,0,2
1:10.092,25233,(,0,0,1
1:10.181,25265,N,0,0,0
1:10.253,25291,),0,0,1
1:10.417,25350,(,0,0,2
1:10.467,25368,t,0,0,1
1:10.553,25399,),0,0,2
1:11.358,25689,(,0,0,0
1:11.397,25703,p,0,0,0
1:11.439,25718,),0,0,0
1:11.503,25741,(,0,0,1
1:11.542,25755,N,0,0,0
1:11.578,25768,),0,0,1
1:11.753,25831,(,0,0,2
1:11.858,25869,t,0,0,0
1:11.950,25902,),0,0,2
1:12.228,26002,(,0,0,0
1:12.272,26018,p,0,0,0
1:12.311,26032,),0,0,0
1:12.386,26059,(,0,0,1
1:12.419,26071,N,0,0,0
1:12.458,26085,),0,0,1
1:12.622,26144,(,0,0,2
1:12.722,26180,t,0,0,0
1:12.819,26215,),0,0,2
1:13.147,26333,(,0,0,0
1:13.189,26348,p,0,0,0
1:13.231,26363,),0,0,0
1:13.300,26388,(,0,0,1
1:13.336,26401,N,0,0,0
1:13.372,26414,),0,0,1
1:13.533,26472,(,0,0,2
1:13.636,26509,t,0,0,0
1:13.719,26539,),0,0,2
1:14.053,26659,(,0,0,0
1:14.092,26673,p,0,0,0
1:14.131,26687,),0,0,0
1:14.208,26715,(,0,0,1
1:14.247,26729,N,0,0,0
1:14.283,26742,),0,0,1
1:14.453,26803,(,0,0,2
1:14.544,26836,t,0,0,0
1:14.631,26867,),0,0,2
1:14.928,26974,(,0,0,0
1:14.969,26989,p,0,0,0
1:15.011,27004,),0,0,0
1:15.094,27034,(,0,0,1
1:15.128,27046,N,0,0,0
1:15.164,27059,),0,0,1
1:15.328,27118,(,0,0,2
1:15.433,27156,t,0,0,0
1:15.531,27191,),0,0,2
1:15.819,27295,(,0,0,0
1:15.858,27309,p,0,0,0
1:15.900,27324,),0,0,0
1:15.981,27353,(,0,0,1
1:16.017,27366,N,0,0,0
1:16.053,27379,),0,0,1
1:16.225,27441,(,0,0,2
1:16.317,27474,t,0,0,0
1:16.400,27504,),0,0,2
1:16.728,27622,(,0,0,0
1:16.772,27638,p,0,0,0
1:16.814,27653,),0,0,0
1:16.894,27682,(,0,0,1
1:16.928,27694,N,0,0,0
1:16.964,27707,),0,0,1
1:17.050,27738,t,0,0,2
1:17.222,27800,),0,0,2
1:17.367,27852,(,0,0,1
1:17.456,27884,N,0,0,0
1:17.531,27911,),0,0,1
1:17.675,27963,(,0,0,2
1:17.733,27984,t,0,0,1
1:17.833,28020,),0,0,2
1:18.628,28306,(,0,0,0
1:18.669,28321,p,0,0,0
1:18.714,28337,),0,0,0
1:18.769,28357,(,0,0,1
1:18.806,28370,N,0,0,0
1:18.844,28384,),0,0,1
1:19.014,28445,(,0,0,2
1:19.128,28486,t,0,0,0
1:19.225,28521,),0,0,2
1:19.578,28648,(,0,0,0
1:19.622,28664,p,0,0,0
1:19.664,28679,),0,0,0
1:19.736,28705,(,0,0,1
1:19.772,28718,N,0,0,0
1:19.808,28731,),0,0,1
1:19.975,28791,(,0,0,2
1:20.069,28825,t,0,0,0
1:20.158,28857,),0,0,2
1:20.514,28985,(,0,0,0
1:20.553,28999,p,0,0,0
1:20.594,29014,),0,0,0
1:20.669,29041,(,0,0,1
1:20.708,29055,N,0,0,0
1:20.744,29068,),0,0,1
1:20.914,29129,(,0,0,2
1:21.006,29162,t,0,0,0
1:21.094,29194,),0,0,2
1:21.394,29302,(,0,0,0
1:21.436,29317,p,0,0,0
1:21.475,29331,),0,0,0
1:21.561,29362,(,0,0,1
1:21.597,29375,N,0,0,0
1:21.633,29388,),0,0,1
1:21.797,29447,(,0,0,2
1:21.892,29481,t,0,0,0
1:21.986,29515,),0,0,2
1:22.306,29630,(,0,0,0
1:22.356,29648,p,0,0,0
1:22.400,29664,),0,0,0
1:22.472,29690,(,0,0,1
1:22.511,29704,N,0,0,0
1:22.547,29717,),0,0,1
1:22.725,29781,(,0,0,2
1:22.819,29815,t,0,0,0
1:22.903,29845,),0,0,2
1:23.011,29884,(,0,0,1
1:23.083,29910,N,0,0,0
1:23.153,29935,),0,0,1
1:23.294,29986,(,0,0,2
1:23.353,30007,t,0,0,1
1:23.450,30042,),0,0,2
1:24.228,30322,(,0,0,0
1:24.267,30336,p,0,0,0
1:24.308,30351,),0,0,0
1:24.367,30372,(,0,0,1
1:24.403,30385,N,0,0,0
1:24.439,30398,),0,0,1
1:24.558,30441,t,0,0,2
1:24.708,30495,),0,0,2
1:24.839,30542,(,0,0,1
1:24.933,30576,N,0,0,0
1:25.008,30603,),0,0,1
1:25.169,30661,(,0,0,2
1:25.219,30679,t,0,0,1
1:25.311,30712,),0,0,2
1:26.106,30998,(,0,0,0
1:26.150,31014,p,0,0,0
1:26.194,31030,),0,0,0
1:26.258,31053,(,0,0,1
1:26.292,31065,N,0,0,0
1:26.328,31078,),0,0,1
1:26.506,31142,(,0,0,0
1:26.617,31182,p,0,0,0
1:26.683,31206,),0,0,0
1:26.772,31238,(,0,0,1
1:26.839,31262,N,0,0,0
1:26.908,31287,),0,0,1
1:27.028,31330,(,0,0,2
1:27.094,31354,t,0,0,1
1:27.186,31387,),0,0,2
1:27.956,31664,(,0,0,0
1:27.997,31679,p,0,0,0
1:28.039,31694,),0,0,0
1:28.094,31714,(,0,0,1
1:28.128,31726,N,0,0,0
1:28.164,31739,),0,0,1
1:28.336,31801,(,0,0,2
1:28.444,31840,t,0,0,0
1:28.536,31873,),0,0,2
1:28.864,31991,(,0,0,0
1:28.908,32007,p,0,0,0
1:28.950,32022,),0,0,0
1:29.028,32050,(,0,0,1
1:29.064,32063,N,0,0,0
1:29.100,32076,),0,0,1
1:29.264,32135,(,0,0,2
1:29.358,32169,t,0,0,0
1:29.442,32199,),0,0,2
1:29.731,32303,(,0,0,0
1:29.769,32317,p,0,0,0
1:29.811,32332,),0,0,0
1:29.892,32361,(,0,0,1
1:29.928,32374,N,0,0,0
1:29.964,32387,),0,0,1
1:30.131,32447,(,0,0,2
1:30.236,32485,t,0,0,0
1:30.336,32521,),0,0,2
1:30.639,32630,(,0,0,0
1:30.678,32644,p,0,0,0
1:30.717,32658,),0,0,0
1:30.789,32684,(,0,0,1
1:30.822,32696,N,0,0,0
1:30.858,32709,),0,0,1
1:31.031,32771,(,0,0,2
1:31.128,32806,t,0,0,0
1:31.214,32837,),0,0,2
1:31.533,32952,(,0,0,0
1:31.578,32968,p,0,0,0
1:31.617,32982,),0,0,0
1:31.697,33011,(,0,0,1
1:31.733,33024,N,0,0,0
1:31.769,33037,),0,0,1
1:31.931,33095,(,0,0,2
1:32.028,33130,t,0,0,0
1:32.111,33160,),0,0,2
1:32.408,33267,(,0,0,0
1:32.456,33284,p,0,0,0
1:32.500,33300,),0,0,0
1:32.583,33330,(,0,0,1
1:32.622,33344,N,0,0,0
1:32.658,33357,),0,0,1
1:32.819,33415,(,0,0,2
1:32.931,33455,t,0,0,0
1:33.031,33491,),0,0,2
1:33.319,33595,(,0,0,0
1:33.361,33610,p,0,0,0
1:33.403,33625,),0,0,0
1:33.481,33653,(,0,0,1
1:33.517,33666,N,0,0,0
1:33.556,33680,),0,0,1
1:33.714,33737,(,0,0,2
1:33.817,33774,t,0,0,0
1:33.906,33806,),0,0,2
1:34.242,33927,(,0,0,0
1:34.289,33944,p,0,0,0
1:34.333,33960,),0,0,0
1:34.411,33988,(,0,0,1
1:34.444,34000,N,0,0,0
1:34.481,34013,),0,0,1
1:34.636,34069,(,0,0,2
1:34.736,34105,t,0,0,0
1:34.814,34133,),0,0,2
1:35.150,34254,(,0,0,0
1:35.192,34269,p,0,0,0
1:35.233,34284,),0,0,0
1:35.317,34314,(,0,0,1
1:35.356,34328,N,0,0,0
1:35.394,34342,),0,0,1
1:35.572,34406,(,0,0,2
1:35.661,34438,t,0,0,0
1:35.742,34467,),0,0,2
1:36.061,34582,(,0,0,0
1:36.100,34596,p,0,0,0
1:36.142,34611,),0,0,0
1:36.233,34644,(,0,0,1
1:36.267,34656,N,0,0,0
1:36.303,34669,),0,0,1
1:36.467,34728,(,0,0,2
1:36.558,34761,t,0,0,0
1:36.650,34794,),0,0,2
1:37.006,34922,(,0,0,0
1:37.044,34936,p,0,0,0
1:37.086,34951,),0,0,0
1:37.169,34981,(,0,0,1
1:37.206,34994,N,0,0,0
1:37.242,35007,),0,0,1
1:37.414,35069,(,0,0,2
1:37.508,35103,t,0,0,0
1:37.603,35137,),0,0,2
1:37.953,35263,(,0,0,0
1:37.994,35278,p,0,0,0
1:38.036,35293,),0,0,0
1:38.125,35325,(,0,0,1
1:38.161,35338,N,0,0,0
1:38.197,35351,),0,0,1
1:38.369,35413,(,0,0,2
1:38.458,35445,t,0,0,0
1:38.547,35477,),0,0,2
1:38.869,35593,(,0,0,0
1:38.911,35608,p,0,0,0
1:38.950,35622,),0,0,0
1:39.036,35653,(,0,0,1
1:39.072,35666,N,0,0,0
1:39.108,35679,),0,0,1
1:39.275,35739,(,0,0,2
1:39.367,35772,t,0,0,0
1:39.456,35804,),0,0,2
1:39.828,35938,(,0,0,0
1:39.872,35954,p,0,0,0
1:39.914,35969,),0,0,0
1:40.006,36002,(,0,0,1
1:40.042,36015,N,0,0,0
1:40.078,36028,),0,0,1
1:40.264,36095,(,0,0,2
1:40.358,36129,t,0,0,0
1:40.453,36163,),0,0,2
1:40.778,36280,(,0,0,0
1:40.819,36295,p,0,0,0
1:40.861,36310,),0,0,0
1:40.944,36340,(,0,0,1
1:40.983,36354,N,0,0,0
1:41.019,36367,),0,0,1
1:41.178,36424,(,0,0,2
1:41.281,36461,t,0,0,0
1:41.372,36494,),0,0,2
1:41.694,36610,(,0,0,0
1:41.733,36624,p,0,0,0
1:41.775,36639,),0,0,0
1:41.864,36671,(,0,0,1
1:41.900,36684,N,0,0,0
1:41.936,36697,),0,0,1
1:42.097,36755,(,0,0,2
1:42.189,36788,t,0,0,0
1:42.272,36818,),0,0,2
1:42.639,36950,(,0,0,0
1:42.686,36967,p,0,0,0
1:42.728,36982,),0,0,0
1:42.817,37014,(,0,0,1
1:42.853,37027,N,0,0,0
1:42.892,37041,),0,0,1
1:43.050,37098,(,0,0,2
1:43.156,37136,t,0,0,0
1:43.239,37166,),0,0,2
1:43.558,37281,(,0,0,0
1:43.600,37296,p,0,0,0
1:43.644,37312,),0,0,0
1:43.728,37342,(,0,0,1
1:43.764,37355,N,0,0,0
1:43.800,37368,),0,0,1
1:43.967,37428,(,0,0,2
1:44.064,37463,t,0,0,0
1:44.153,37495,),0,0,2
1:44.467,37608,(,0,0,0
1:44.508,37623,p,0,0,0
1:44.550,37638,),0,0,0
1:44.633,37668,(,0,0,1
1:44.667,37680,N,0,0,0
1:44.706,37694,),0,0,1
1:44.878,37756,(,0,0,2
1:44.983,37794,t,0,0,0
1:45.075,37827,),0,0,2
1:45.422,37952,(,0,0,0
1:45.467,37968,p,0,0,0
1:45.511,37984,),0,0,0
1:45.594,38014,(,0,0,1
1:45.628,38026,N,0,0,0
1:45.664,38039,),0,0,1
1:45.833,38100,(,0,0,2
1:45.928,38134,t,0,0,0
1:46.011,38164,),0,0,2
1:46.336,38281,(,0,0,0
1:46.375,38295,p,0,0,0
1:46.414,38309,),0,0,0
1:46.497,38339,(,0,0,1
1:46.533,38352,N,0,0,0
1:46.569,38365,),0,0,1
1:46.736,38425,(,0,0,2
1:46.831,38459,t,0,0,0
1:46.917,38490,),0,0,2
1:47.214,38597,(,0,0,0
1:47.258,38613,p,0,0,0
1:47.300,38628,),0,0,0
1:47.392,38661,(,0,0,1
1:47.428,38674,N,0,0,0
1:47.467,38688,),0,0,1
1:47.639,38750,(,0,0,2
1:47.747,38789,t,0,0,0
1:47.844,38824,),0,0,2
1:48.178,38944,(,0,0,0
1:48.217,38958,p,0,0,0
1:48.258,38973,),0,0,0
1:48.339,39002,(,0,0,1
1:48.372,39014,N,0,0,0
1:48.408,39027,),0,0,1
1:48.569,39085,(,0,0,2
1:48.672,39122,t,0,0,0
1:48.761,39154,),0,0,2
1:49.078,39268,(,0,0,0
1:49.117,39282,p,0,0,0
1:49.158,39297,),0,0,0
1:49.242,39327,(,0,0,1
1:49.275,39339,N,0,0,0
1:49.311,39352,),0,0,1
1:49.472,39410,(,0,0,2
1:49.564,39443,t,0,0,0
1:49.644,39472,),0,0,2
1:49.950,39582,(,0,0,0
1:49.997,39599,p,0,0,0
1:50.042,39615,),0,0,0
1:50.119,39643,(,0,0,1
1:50.158,39657,N,0,0,0
1:50.197,39671,),0,0,1
1:50.361,39730,(,0,0,2
1:50.464,39767,t,0,0,0
1:50.550,39798,),0,0,2
1:50.864,39911,(,0,0,0
1:50.906,39926,p,0,0,0
1:50.947,39941,),0,0,0
1:51.028,39970,(,0,0,1
1:51.064,39983,N,0,0,0
1:51.103,39997,),0,0,1
1:51.258,40053,(,0,0,2
1:51.367,40092,t,0,0,0
1:51.453,40123,),0,0,2
1:51.736,40225,(,0,0,0
1:51.781,40241,p,0,0,0
1:51.822,40256,),0,0,0
1:51.908,40287,(,0,0,1
1:51.942,40299,N,0,0,0
1:51.978,40312,),0,0,1
1:52.144,40372,(,0,0,2
1:52.244,40408,t,0,0,0
1:52.333,40440,),0,0,2
1:52.647,40553,(,0,0,0
1:52.692,40569,p,0,0,0
1:52.736,40585,),0,0,0
1:52.814,40613,(,0,0,1
1:52.850,40626,N,0,0,0
1:52.886,40639,),0,0,1
1:53.053,40699,(,0,0,2
1:53.156,40736,t,0,0,0
1:53.236,40765,),0,0,2
1:53.550,40878,(,0,0,0
1:53.597,40895,p,0,0,0
1:53.639,40910,),0,0,0
1:53.717,40938,(,0,0,1
1:53.753,40951,N,0,0,0
1:53.789,40964,),0,0,1
1:53.956,41024,(,0,0,2
1:54.058,41061,t,0,0,0
1:54.142,41091,),0,0,2
1:54.456,41204,(,0,0,0
1:54.500,41220,p,0,0,0
1:54.542,41235,),0,0,0
1:54.622,41264,(,0,0,1
1:54.661,41278,N,0,0,0
1:54.697,41291,),0,0,1
1:54.869,41353,(,0,0,2
1:54.972,41390,t,0,0,0
1:55.064,41423,),0,0,2
1:55.375,41535,(,0,0,0
1:55.417,41550,p,0,0,0
1:55.461,41566,),0,0,0
1:55.539,41594,(,0,0,1
1:55.575,41607,N,0,0,0
1:55.611,41620,),0,0,1
1:55.778,41680,(,0,0,2
1:55.875,41715,t,0,0,0
1:55.958,41745,),0,0,2
1:56.289,41864,(,0,0,0
1:56.333,41880,p,0,0,0
1:56.375,41895,),0,0,0
1:56.453,41923,(,0,0,1
1:56.486,41935,N,0,0,0
1:56.525,41949,),0,0,1
1:56.608,41979,t,0,0,2
1:56.789,42044,),0,0,2
1:56.922,42092,(,0,0,1
1:57.019,42127,N,0,0,0
1:57.089,42152,),0,0,1
1:57.214,42197,(,0,0,2
1:57.278,42220,t,0,0,1
1:57.386,42259,),0,0,2
1:58.142,42531,(,0,0,0
1:58.181,42545,p,0,0,0
1:58.222,42560,),0,0,0
1:58.283,42582,(,0,0,1
1:58.317,42594,N,0,0,0
1:58.353,42607,),0,0,1
1:58.417,42630,(,0,0,2
1:58.456,42644,t,0,0,4
1:58.633,42708,t,0,0,4
1:58.728,42742,),0,0,2
1:59.039,42854,(,0,0,0
1:59.083,42870,p,0,0,0
1:59.128,42886,),0,0,0
1:59.203,42913,(,0,0,1
1:59.239,42926,N,0,0,0
1:59.275,42939,),0,0,1
1:59.439,42998,(,0,0,2
1:59.544,43036,t,0,0,0
1:59.639,43070,),0,0,2
1:59.942,43179,(,0,0,0
1:59.981,43193,p,0,0,0
2:00.022,43208,),0,0,0
2:00.097,43235,(,0,0,1
2:00.136,43249,N,0,0,0
2:00.172,43262,),0,0,1
2:00.344,43324,(,0,0,2
2:00.442,43359,t,0,0,0
2:00.525,43389,),0,0,2
2:00.803,43489,(,0,0,0
2:00.847,43505,p,0,0,0
2:00.886,43519,),0,0,0
2:00.967,43548,(,0,0,1
2:01.003,43561,N,0,0,0
2:01.039,43574,),0,0,1
2:01.203,43633,(,0,0,2
2:01.303,43669,t,0,0,0
2:01.386,43699,),0,0,2
2:01.692,43809,(,0,0,0
2:01.736,43825,p,0,0,0
2:01.778,43840,),0,0,0
2:01.856,43868,(,0,0,1
2:01.889,43880,N,0,0,0
2:01.925,43893,),0,0,1
2:02.086,43951,(,0,0,2
2:02.192,43989,t,0,0,0
2:02.286,44023,),0,0,2
2:02.592,44133,(,0,0,0
2:02.633,44148,p,0,0,0
2:02.678,44164,),0,0,0
2:02.756,44192,(,0,0,1
2:02.792,44205,N,0,0,0
2:02.831,44219,),0,0,1
2:02.992,44277,(,0,0,2
2:03.086,44311,t,0,0,0
2:03.167,44340,),0,0,2
2:03.456,44444,(,0,0,0
2:03.494,44458,p,0,0,0
2:03.536,44473,),0,0,0
2:03.622,44504,(,0,0,1
2:03.658,44517,N,0,0,0
2:03.694,44530,),0,0,1
2:03.864,44591,(,0,0,2
2:03.967,44628,t,0,0,0
2:04.053,44659,),0,0,2
2:04.342,44763,(,0,0,0
2:04.386,44779,p,0,0,0
2:04.431,44795,),0,0,0
2:04.503,44821,(,0,0,1
2:04.539,44834,N,0,0,0
2:04.575,44847,),0,0,1
2:04.708,44895,t,0,0,2
2:04.836,44941,),0,0,2
2:05.017,45006,(,0,0,1
2:05.083,45030,N,0,0,0
2:05.153,45055,),0,0,1
2:05.278,45100,(,0,0,2
2:05.344,45124,t,0,0,1
2:05.442,45159,),0,0,2
2:06.183,45426,(,0,0,0
2:06.225,45441,p,0,0,0
2:06.269,45457,),0,0,0
2:06.331,45479,(,0,0,1
2:06.364,45491,N,0,0,0
2:06.400,45504,),0,0,1
2:07.106,45758,(,0,0,0
2:07.147,45773,p,0,0,0
2:07.189,45788,),0,0,0
2:07.272,45818,(,0,0,1
2:07.308,45831,N,0,0,0
2:07.347,45845,),0,0,1
2:07.525,45909,(,0,0,2
2:07.622,45944,t,0,0,0
2:07.719,45979,),0,0,2
2:08.025,46089,(,0,0,0
2:08.069,46105,p,0,0,0
2:08.108,46119,),0,0,0
2:08.186,46147,(,0,0,1
2:08.222,46160,N,0,0,0
2:08.258,46173,),0,0,1
2:08.422,46232,(,0,0,2
2:08.522,46268,t,0,0,0
2:08.611,46300,),0,0,2
2:08.917,46410,(,0,0,0
2:08.958,46425,p,0,0,0
2:09.000,46440,),0,0,0
2:09.075,46467,(,0,0,1
2:09.111,46480,N,0,0,0
2:09.147,46493,),0,0,1
2:09.311,46552,(,0,0,2
2:09.408,46587,t,0,0,0
2:09.492,46617,),0,0,2
2:09.831,46739,(,0,0,0
2:09.875,46755,p,0,0,0
2:09.917,46770,),0,0,0
2:10.000,46800,(,0,0,1
2:10.036,46813,N,0,0,0
2:10.075,46827,),0,0,1
2:10.250,46890,(,0,0,2
2:10.344,46924,t,0,0,0
2:10.431,46955,),0,0,2
2:10.717,47058,(,0,0,0
2:10.758,47073,p,0,0,0
2:10.803,47089,),0,0,0
2:10.883,47118,(,0,0,1
2:10.922,47132,N,0,0,0
2:10.958,47145,),0,0,1
2:11.056,47180,t,0,0,2
2:11.219,47239,),0,0,2
2:11.367,47292,(,0,0,1
2:11.461,47326,N,0,0,0
2:11.533,47352,),0,0,1
2:11.669,47401,(,0,0,2
2:11.725,47421,t,0,0,1
2:11.819,47455,),0,0,2
2:12.589,47732,(,0,0,0
2:12.631,47747,p,0,0,0
2:12.672,47762,),0,0,0
2:12.728,47782,(,0,0,1
2:12.764,47795,N,0,0,0
2:12.797,47807,),0,0,1
2:12.950,47862,t,0,0,2
2:13.075,47907,),0,0,2
2:13.242,47967,(,0,0,1
2:13.311,47992,N,0,0,0
2:13.381,48017,),0,0,1
2:13.508,48063,(,0,0,2
2:13.569,48085,t,0,0,1
2:13.675,48123,),0,0,2
2:14.428,48394,(,0,0,0
2:14.472,48410,p,0,0,0
2:14.517,48426,),0,0,0
2:14.581,48449,(,0,0,1
2:14.617,48462,N,0,0,0
2:14.653,48475,),0,0,1
2:14.761,48514,t,0,0,2
2:14.939,48578,),0,0,2
2:14.958,48585,(,0,0,0
2:15.053,48619,p,0,0,0
2:15.083,48630,),0,0,0
2:15.200,48672,(,0,0,1
2:15.281,48701,N,0,0,0
2:15.381,48737,),0,0,1
2:15.389,48740,(,0,0,2
2:15.533,48792,t,0,0,1
2:15.644,48832,),0,0,2
2:16.350,49086,(,0,0,0
2:16.389,49100,p,0,0,0
2:16.431,49115,),0,0,0
2:16.486,49135,(,0,0,1
2:16.522,49148,N,0,0,0
2:16.556,49160,),0,0,1
2:16.728,49222,(,0,0,2
2:16.836,49261,t,0,0,0
2:16.928,49294,),0,0,2
2:17.272,49418,(,0,0,0
2:17.319,49435,p,0,0,0
2:17.361,49450,),0,0,0
2:17.433,49476,(,0,0,1
2:17.469,49489,N,0,0,0
2:17.506,49502,),0,0,1
2:17.669,49561,(,0,0,2
2:17.772,49598,t,0,0,0
2:17.858,49629,),0,0,2
2:18.153,49735,(,0,0,0
2:18.194,49750,p,0,0,0
2:18.239,49766,),0,0,0
2:18.314,49793,(,0,0,1
2:18.350,49806,N,0,0,0
2:18.386,49819,),0,0,1
2:18.489,49856,t,0,0,2
2:18.653,49915,),0,0,2
2:18.803,49969,(,0,0,1
2:18.897,50003,N,0,0,0
2:18.969,50029,),0,0,1
2:19.094,50074,(,0,0,2
2:19.153,50095,t,0,0,1
2:19.250,50130,),0,0,2
2:20.014,50405,(,0,0,0
2:20.056,50420,p,0,0,0
2:20.097,50435,),0,0,0
2:20.153,50455,(,0,0,1
2:20.186,50467,N,0,0,0
2:20.222,50480,),0,0,1
2:20.383,50538,(,0,0,2
2:20.508,50583,t,0,0,0
2:20.597,50615,),0,0,2
2:20.903,50725,(,0,0,0
2:20.944,50740,p,0,0,0
2:20.986,50755,),0,0,0
2:21.058,50781,(,0,0,1
2:21.094,50794,N,0,0,0
2:21.131,50807,),0,0,1
2:21.225,50841,t,0,0,2
2:21.394,50902,),0,0,2
2:21.536,50953,(,0,0,1
2:21.628,50986,N,0,0,0
2:21.700,51012,),0,0,1
2:21.850,51066,(,0,0,2
2:21.903,51085,t,0,0,1
2:22.006,51122,),0,0,2
2:22.769,51397,(,0,0,0
2:22.811,51412,p,0,0,0
2:22.850,51426,),0,0,0
2:22.906,51446,(,0,0,1
2:22.944,51460,N,0,0,0
2:22.981,51473,),0,0,1
2:23.039,51494,(,0,0,2
2:23.078,51508,t,0,0,4
2:23.267,51576,t,0,0,4
2:23.358,51609,),0,0,2
2:23.661,51718,(,0,0,0
2:23.703,51733,p,0,0,0
2:23.744,51748,),0,0,0
2:23.817,51774,(,0,0,1
2:23.853,51787,N,0,0,0
2:23.889,51800,),0,0,1
2:24.044,51856,(,0,0,2
2:24.150,51894,t,0,0,0
2:24.236,51925,),0,0,2
2:24.561,52042,(,0,0,0
2:24.606,52058,p,0,0,0
2:24.647,52073,),0,0,0
2:24.725,52101,(,0,0,1
2:24.761,52114,N,0,0,0
2:24.797,52127,),0,0,1
2:24.972,52190,(,0,0,2
2:25.067,52224,t,0,0,0
2:25.153,52255,),0,0,2
2:25.453,52363,(,0,0,0
2:25.494,52378,p,0,0,0
2:25.533,52392,),0,0,0
2:25.611,52420,(,0,0,1
2:25.650,52434,N,0,0,0
2:25.686,52447,),0,0,1
2:25.853,52507,(,0,0,2
2:25.956,52544,t,0,0,0
2:26.044,52576,),0,0,2
2:26.328,52678,(,0,0,0
2:26.367,52692,p,0,0,0
2:26.408,52707,),0,0,0
2:26.483,52734,(,0,0,1
2:26.517,52746,N,0,0,0
2:26.553,52759,),0,0,1
2:26.650,52794,t,0,0,2
2:26.808,52851,),0,0,2
2:26.992,52917,(,0,0,1
2:27.061,52942,N,0,0,0
2:27.128,52966,),0,0,1
2:27.261,53014,(,0,0,2
2:27.325,53037,t,0,0,1
2:27.428,53074,),0,0,2
2:28.178,53344,(,0,0,0
2:28.217,53358,p,0,0,0
2:28.258,53373,),0,0,0
2:28.314,53393,(,0,0,1
2:28.353,53407,N,0,0,0
2:28.389,53420,),0,0,1
2:28.542,53475,(,0,0,2
2:28.669,53521,t,0,0,0
2:28.753,53551,),0,0,2
2:29.108,53679,(,0,0,0
2:29.153,53695,p,0,0,0
2:29.197,53711,),0,0,0
2:29.272,53738,(,0,0,1
2:29.308,53751,N,0,0,0
2:29.344,53764,),0,0,1
2:29.514,53825,(,0,0,2
2:29.619,53863,t,0,0,0
2:29.711,53896,),0,0,2
2:30.031,54011,(,0,0,0
2:30.067,54024,p,0,0,0
2:30.108,54039,),0,0,0
2:30.183,54066,(,0,0,1
2:30.217,54078,N,0,0,0
2:30.253,54091,),0,0,1
2:30.422,54152,(,0,0,2
2:30.525,54189,t,0,0,0
2:30.608,54219,),0,0,2
2:30.897,54323,(,0,0,0
2:30.942,54339,p,0,0,0
2:30.986,54355,),0,0,0
2:31.053,54379,(,0,0,1
2:31.097,54395,N,0,0,0
2:31.133,54408,),0,0,1
2:31.300,54468,(,0,0,2
2:31.392,54501,t,0,0,0
2:31.475,54531,),0,0,2
2:31.808,54651,(,0,0,0
2:31.853,54667,p,0,0,0
2:31.894,54682,),0,0,0
2:31.978,54712,(,0,0,1
2:32.017,54726,N,0,0,0
2:32.056,54740,),0,0,1
2:32.233,54804,(,0,0,2
2:32.328,54838,t,0,0,0
2:32.414,54869,),0,0,2
2:32.703,54973,(,0,0,0
2:32.744,54988,p,0,0,0
2:32.786,55003,),0,0,0
2:32.869,55033,(,0,0,1
2:32.906,55046,N,0,0,0
2:32.942,55059,),0,0,1
2:33.114,55121,(,0,0,2
2:33.211,55156,t,0,0,0
2:33.306,55190,),0,0,2
2:33.600,55296,(,0,0,0
2:33.644,55312,p,0,0,0
2:33.686,55327,),0,0,0
2:33.758,55353,(,0,0,1
2:33.794,55366,N,0,0,0
2:33.828,55378,),0,0,1
2:33.981,55433,(,0,0,2
2:34.083,55470,t,0,0,0
2:34.175,55503,),0,0,2
2:34.508,55623,(,0,0,0
2:34.556,55640,p,0,0,0
2:34.597,55655,),0,0,0
2:34.678,55684,(,0,0,1
2:34.714,55697,N,0,0,0
2:34.750,55710,),0,0,1
2:34.908,55767,(,0,0,2
2:35.011,55804,t,0,0,0
2:35.086,55831,),0,0,2
2:35.403,55945,(,0,0,0
2:35.447,55961,p,0,0,0
2:35.486,55975,),0,0,0
2:35.550,55998,(,0,0,1
2:35.606,56018,N,0,0,0
2:35.644,56032,),0,0,1
2:35.811,56092,(,0,0,2
2:35.906,56126,t,0,0,0
2:35.994,56158,),0,0,2
2:36.286,56263,(,0,0,0
2:36.333,56280,p,0,0,0
2:36.375,56295,),0,0,0
2:36.453,56323,(,0,0,1
2:36.489,56336,N,0,0,0
2:36.528,56350,),0,0,1
2:36.689,56408,(,0,0,2
2:36.797,56447,t,0,0,0
2:36.883,56478,),0,0,2
2:37.214,56597,(,0,0,0
2:37.258,56613,p,0,0,0
2:37.303,56629,),0,0,0
2:37.383,56658,(,0,0,1
2:37.419,56671,N,0,0,0
2:37.456,56684,),0,0,1
2:37.617,56742,(,0,0,2
2:37.714,56777,t,0,0,0
2:37.797,56807,),0,0,2
2:38.092,56913,(,0,0,0
2:38.133,56928,p,0,0,0
2:38.178,56944,),0,0,0
2:38.258,56973,(,0,0,1
2:38.294,56986,N,0,0,0
2:38.331,56999,),0,0,1
2:38.425,57033,t,0,0,2
2:38.586,57091,),0,0,2
2:38.717,57138,(,0,0,1
2:38.817,57174,N,0,0,0
2:38.886,57199,),0,0,1
2:39.022,57248,(,0,0,2
2:39.081,57269,t,0,0,1
2:39.183,57306,),0,0,2
2:39.964,57587,(,0,0,0
2:40.006,57602,p,0,0,0
2:40.047,57617,),0,0,0
2:40.108,57639,(,0,0,1
2:40.142,57651,N,0,0,0
2:40.178,57664,),0,0,1
2:40.342,57723,(,0,0,2
2:40.464,57767,t,0,0,0
2:40.561,57802,),0,0,2
2:40.839,57902,(,0,0,0
2:40.878,57916,p,0,0,0
2:40.919,57931,),0,0,0
2:40.994,57958,(,0,0,1
2:41.028,57970,N,0,0,0
2:41.064,57983,),0,0,1
2:41.117,58002,t,0,0,2
2:41.308,58071,),0,0,2
2:41.453,58123,(,0,0,1
2:41.550,58158,N,0,0,0
2:41.625,58185,),0,0,1
2:41.758,58233,(,0,0,2
2:41.825,58257,t,0,0,1
2:41.933,58296,),0,0,2
2:42.664,58559,(,0,0,0
2:42.706,58574,p,0,0,0
2:42.750,58590,),0,0,0
2:42.808,58611,(,0,0,1
2:42.842,58623,N,0,0,0
2:42.878,58636,),0,0,1
2:43.050,58698,(,0,0,2
2:43.161,58738,t,0,0,0
2:43.261,58774,),0,0,2
2:43.528,58870,(,0,0,0
2:43.572,58886,p,0,0,0
2:43.614,58901,),0,0,0
2:43.692,58929,(,0,0,1
2:43.728,58942,N,0,0,0
2:43.764,58955,),0,0,1
2:43.847,58985,t,0,0,2
2:44.028,59050,),0,0,2
2:44.189,59108,(,0,0,1
2:44.275,59139,N,0,0,0
2:44.350,59166,),0,0,1
2:44.467,59208,(,0,0,2
2:44.550,59238,t,0,0,1
2:44.656,59276,),0,0,2
2:45.358,59529,(,0,0,0
2:45.400,59544,p,0,0,0
2:45.439,59558,),0,0,0
2:45.494,59578,(,0,0,1
2:45.531,59591,N,0,0,0
2:45.567,59604,),0,0,1
2:45.669,59641,t,0,0,2
2:45.839,59702,),0,0,2
2:45.989,59756,(,0,0,1
2:46.086,59791,N,0,0,0
2:46.158,59817,),0,0,1
2:46.281,59861,(,0,0,2
2:46.353,59887,t,0,0,1
2:46.458,59925,),0,0,2
2:47.206,60194,(,0,0,0
2:47.244,60208,p,0,0,0
2:47.286,60223,),0,0,0
2:47.344,60244,(,0,0,1
2:47.378,60256,N,0,0,0
2:47.414,60269,),0,0,1
2:48.064,60503,(,0,0,0
2:48.103,60517,p,0,0,0
2:48.142,60531,),0,0,0
2:48.214,60557,(,0,0,1
2:48.247,60569,N,0,0,0
2:48.283,60582,),0,0,1
2:48.381,60617,t,0,0,2
2:48.531,60671,),0,0,2
2:48.694,60730,(,0,0,1
2:48.761,60754,N,0,0,0
2:48.833,60780,),0,0,1
2:48.956,60824,(,0,0,2
2:49.028,60850,t,0,0,1
2:49.136,60889,),0,0,2
2:49.842,61143,(,0,0,0
2:49.881,61157,p,0,0,0
2:49.922,61172,),0,0,0
2:49.983,61194,(,0,0,1
2:50.019,61207,N,0,0,0
2:50.056,61220,),0,0,1
2:50.219,61279,(,0,0,2
2:50.331,61319,t,0,0,0
2:50.417,61350,),0,0,2
2:50.686,61447,(,0,0,0
2:50.728,61462,p,0,0,0
2:50.769,61477,),0,0,0
2:50.844,61504,(,0,0,1
2:50.878,61516,N,0,0,0
2:50.914,61529,),0,0,1
2:51.075,61587,(,0,0,2
2:51.178,61624,t,0,0,0
2:51.261,61654,),0,0,2
2:51.589,61772,(,0,0,0
2:51.633,61788,p,0,0,0
2:51.675,61803,),0,0,0
2:51.728,61822,(,0,0,1
2:51.789,61844,N,0,0,0
2:51.825,61857,),0,0,1
2:52.003,61921,(,0,0,2
2:52.097,61955,t,0,0,0
2:52.183,61986,),0,0,2
2:52.506,62102,(,0,0,0
2:52.544,62116,p,0,0,0
2:52.583,62130,),0,0,0
2:52.667,62160,(,0,0,1
2:52.700,62172,N,0,0,0
2:52.736,62185,),0,0,1
2:52.903,62245,(,0,0,2
2:52.997,62279,t,0,0,0
2:53.094,62314,),0,0,2
2:53.383,62418,(,0,0,0
2:53.425,62433,p,0,0,0
2:53.467,62448,),0,0,0
2:53.550,62478,(,0,0,1
2:53.586,62491,N,0,0,0
2:53.622,62504,),0,0,1
2:53.697,62531,t,0,0,2
2:53.875,62595,),0,0,2
2:53.900,62604,(,0,0,0
2:53.994,62638,p,0,0,0
2:54.044,62656,),0,0,0
2:54.064,62663,(,0,0,1
2:54.139,62690,N,0,0,0
2:54.211,62716,),0,0,1
2:54.386,62779,(,0,0,2
2:54.431,62795,t,0,0,1
2:54.517,62826,),0,0,2
2:55.358,63129,(,0,0,0
2:55.397,63143,p,0,0,0
2:55.439,63158,),0,0,0
2:55.503,63181,(,0,0,1
2:55.539,63194,N,0,0,0
2:55.575,63207,),0,0,1
2:55.753,63271,(,0,0,2
2:55.850,63306,t,0,0,0
2:55.939,63338,),0,0,2
2:56.236,63445,(,0,0,0
2:56.278,63460,p,0,0,0
2:56.322,63476,),0,0,0
2:56.403,63505,(,0,0,1
2:56.442,63519,N,0,0,0
2:56.478,63532,),0,0,1
2:56.581,63569,t,0,0,2
2:56.747,63629,),0,0,2
2:56.894,63682,(,0,0,1
2:56.992,63717,N,0,0,0
2:57.061,63742,),0,0,1
2:57.108,63759,(,0,0,2
2:57.272,63818,t,0,0,1
2:57.358,63849,),0,0,2
2:58.183,64146,(,0,0,0
2:58.225,64161,p,0,0,0
2:58.267,64176,),0,0,0
2:58.331,64199,(,0,0,1
2:58.367,64212,N,0,0,0
2:58.403,64225,),0,0,1
2:58.481,64253,(,0,0,2
2:58.506,64262,t,0,0,4
2:58.686,64327,t,0,0,4
2:58.781,64361,),0,0,2
2:59.156,64496,(,0,0,0
2:59.194,64510,p,0,0,0
2:59.239,64526,),0,0,0
2:59.319,64555,(,0,0,1
2:59.356,64568,N,0,0,0
2:59.392,64581,),0,0,1
2:59.481,64613,t,0,0,2
2:59.656,64676,),0,0,2
2:59.797,64727,(,0,0,1
2:59.894,64762,N,0,0,0
2:59.969,64789,),0,0,1
3:00.125,64845,(,0,0,2
3:00.172,64862,t,0,0,1
3:00.261,64894,),0,0,2
3:01.067,65184,(,0,0,0
3:01.108,65199,p,0,0,0
3:01.150,65214,),0,0,0
3:01.211,65236,(,0,0,1
3:01.244,65248,N,0,0,0
3:01.281,65261,),0,0,1
3:01.383,65298,t,0,0,2
3:01.569,65365,),0,0,2
3:01.994,65518,(,0,0,0
3:02.033,65532,p,0,0,0
3:02.075,65547,),0,0,0
3:02.147,65573,(,0,0,1
3:02.181,65585,N,0,0,0
3:02.217,65598,),0,0,1
3:02.297,65627,t,0,0,2
3:02.475,65691,),0,0,2
3:02.631,65747,(,0,0,1
3:02.714,65777,N,0,0,0
3:02.786,65803,),0,0,1
3:02.936,65857,(,0,0,2
3:02.986,65875,t,0,0,1
3:03.081,65909,),0,0,2
3:03.850,66186,(,0,0,0
3:03.892,66201,p,0,0,0
3:03.933,66216,),0,0,0
3:03.997,66239,(,0,0,1
3:04.033,66252,N,0,0,0
3:04.069,66265,),0,0,1
3:04.172,66302,t,0,0,2
3:04.350,66366,),0,0,2
3:04.769,66517,(,0,0,0
3:04.814,66533,p,0,0,0
3:04.853,66547,),0,0,0
3:04.897,66563,(,0,0,1
3:04.961,66586,N,0,0,0
3:04.997,66599,),0,0,1
3:05.114,66641,t,0,0,2
3:05.256,66692,),0,0,2
3:05.281,66701,(,0,0,0
3:05.372,66734,p,0,0,0
3:05.419,66751,),0,0,0
3:05.442,66759,(,0,0,1
3:05.508,66783,N,0,0,0
3:05.578,66808,),0,0,1
3:05.706,66854,(,0,0,2
3:05.772,66878,t,0,0,1
3:05.878,66916,),0,0,2
3:06.656,67196,(,0,0,0
3:06.700,67212,p,0,0,0
3:06.742,67227,),0,0,0
3:06.800,67248,(,0,0,1
3:06.836,67261,N,0,0,0
3:06.875,67275,),0,0,1
3:06.942,67299,(,0,0,2
3:06.975,67311,t,0,0,1
3:07.156,67376,),0,0,2
3:07.322,67436,(,0,0,1
3:07.386,67459,N,0,0,0
3:07.461,67486,),0,0,1
3:07.614,67541,(,0,0,2
3:07.667,67560,t,0,0,1
3:07.753,67591,),0,0,2
3:08.531,67871,(,0,0,0
3:08.569,67885,p,0,0,0
3:08.611,67900,),0,0,0
3:08.672,67922,(,0,0,1
3:08.708,67935,N,0,0,0
3:08.744,67948,),0,0,1
3:08.842,67983,t,0,0,2
3:09.039,68054,),0,0,2
3:09.431,68195,(,0,0,0
3:09.472,68210,p,0,0,0
3:09.514,68225,),0,0,0
3:09.589,68252,(,0,0,1
3:09.625,68265,N,0,0,0
3:09.661,68278,),0,0,1
3:09.753,68311,t,0,0,2
3:09.911,68368,),0,0,2
3:10.086,68431,(,0,0,1
3:10.156,68456,N,0,0,0
3:10.225,68481,),0,0,1
3:10.358,68529,(,0,0,2
3:10.428,68554,t,0,0,1
3:10.533,68592,),0,0,2
3:11.250,68850,(,0,0,0
3:11.292,68865,p,0,0,0
3:11.333,68880,),0,0,0
3:11.394,68902,(,0,0,1
3:11.428,68914,N,0,0,0
3:11.467,68928,),0,0,1
3:11.617,68982,t,0,0,2
3:11.758,69033,),0,0,2
3:11.781,69041,(,0,0,0
3:11.850,69066,p,0,0,0
3:11.908,69087,),0,0,0
3:11.933,69096,(,0,0,1
3:11.997,69119,N,0,0,0
3:12.067,69144,),0,0,1
3:12.200,69192,(,0,0,2
3:12.256,69212,t,0,0,1
3:12.356,69248,),0,0,2
3:13.106,69518,(,0,0,0
3:13.153,69535,p,0,0,0
3:13.194,69550,),0,0,0
3:13.250,69570,(,0,0,1
3:13.286,69583,N,0,0,0
3:13.322,69596,),0,0,1
3:13.408,69627,t,0,0,2
3:13.597,69695,),0,0,2
3:13.792,69765,(,0,0,1
3:13.856,69788,N,0,0,0
3:13.925,69813,),0,0,1
3:14.056,69860,(,0,0,2
3:14.125,69885,t,0,0,1
3:14.231,69923,),0,0,2
3:14.964,70187,(,0,0,0
3:15.003,70201,p,0,0,0
3:15.042,70215,),0,0,0
3:15.103,70237,(,0,0,1
3:15.139,70250,N,0,0,0
3:15.175,70263,),0,0,1
3:15.344,70324,(,0,0,2
3:15.453,70363,t,0,0,0
3:15.536,70393,),0,0,2
3:15.706,70454,(,0,0,1
3:15.781,70481,N,0,0,0
3:15.883,70518,),0,0,1
3:15.892,70521,(,0,0,2
3:16.042,70575,t,0,0,1
3:16.144,70612,),0,0,2
3:16.850,70866,(,0,0,0
3:16.889,70880,p,0,0,0
3:16.931,70895,),0,0,0
3:16.994,70918,(,0,0,1
3:17.031,70931,N,0,0,0
3:17.064,70943,),0,0,1
3:17.197,70991,t,0,0,2
3:17.333,71040,),0,0,2
3:17.500,71100,(,0,0,1
3:17.564,71123,N,0,0,0
3:17.639,71150,),0,0,1
3:17.764,71195,(,0,0,2
3:17.833,71220,t,0,0,1
3:17.939,71258,),0,0,2
3:18.703,71533,(,0,0,0
3:18.742,71547,p,0,0,0
3:18.786,71563,),0,0,0
3:18.847,71585,(,0,0,1
3:18.881,71597,N,0,0,0
3:18.917,71610,),0,0,1
3:19.008,71643,t,0,0,2
3:19.203,71713,),0,0,2
3:19.344,71764,(,0,0,1
3:19.447,71801,N,0,0,0
3:19.514,71825,),0,0,1
3:19.639,71870,(,0,0,2
3:19.708,71895,t,0,0,1
3:19.806,71930,),0,0,2
3:20.558,72201,(,0,0,0
3:20.597,72215,p,0,0,0
3:20.639,72230,),0,0,0
3:20.706,72254,(,0,0,1
3:20.739,72266,N,0,0,0
3:20.775,72279,),0,0,1
3:20.953,72343,(,0,0,2
3:21.061,72382,t,0,0,0
3:21.153,72415,),0,0,2
3:21.472,72530,(,0,0,0
3:21.519,72547,p,0,0,0
3:21.561,72562,),0,0,0
3:21.642,72591,(,0,0,1
3:21.678,72604,N,0,0,0
3:21.717,72618,),0,0,1
3:21.881,72677,(,0,0,2
3:21.986,72715,t,0,0,0
3:22.078,72748,),0,0,2
3:22.378,72856,(,0,0,0
3:22.419,72871,p,0,0,0
3:22.464,72887,),0,0,0
3:22.539,72914,(,0,0,1
3:22.575,72927,N,0,0,0
3:22.614,72941,),0,0,1
3:22.772,72998,(,0,0,2
3:22.878,73036,t,0,0,0
3:22.969,73069,),0,0,2
3:23.275,73179,(,0,0,0
3:23.317,73194,p,0,0,0
3:23.358,73209,),0,0,0
3:23.436,73237,(,0,0,1
3:23.469,73249,N,0,0,0
3:23.508,73263,),0,0,1
3:23.672,73322,(,0,0,2
3:23.772,73358,t,0,0,0
3:23.858,73389,),0,0,2
3:24.219,73519,(,0,0,0
3:24.264,73535,p,0,0,0
3:24.306,73550,),0,0,0
3:24.392,73581,(,0,0,1
3:24.428,73594,N,0,0,0
3:24.464,73607,),0,0,1
3:24.614,73661,(,0,0,2
3:24.722,73700,t,0,0,0
3:24.808,73731,),0,0,2
3:25.133,73848,(,0,0,0
3:25.175,73863,p,0,0,0
3:25.214,73877,),0,0,0
3:25.300,73908,N,0,0,0
3:25.303,73909,(,0,0,1
3:25.375,73935,),0,0,1
3:25.464,73967,t,0,0,2
3:25.633,74028,),0,0,2
3:25.800,74088,(,0,0,1
3:25.861,74110,N,0,0,0
3:25.928,74134,),0,0,1
3:26.081,74189,(,0,0,2
3:26.125,74205,t,0,0,1
3:26.211,74236,),0,0,2
3:27.036,74533,(,0,0,0
3:27.075,74547,p,0,0,0
3:27.117,74562,),0,0,0
3:27.181,74585,(,0,0,1
3:27.317,74634,N,0,0,0
3:27.442,74679,(,0,0,0
3:27.525,74709,p,0,0,0
3:27.525,74709,),0,0,1
3:27.589,74732,),0,0,0
3:27.681,74765,(,0,0,1
3:27.778,74800,N,0,0,0
3:27.964,74867,),0,0,1
3:27.978,74872,(,0,0,2
3:28.047,74897,t,0,0,1
3:28.147,74933,),0,0,2
3:28.922,75212,(,0,0,0
3:28.969,75229,p,0,0,0
3:29.014,75245,),0,0,0
3:29.086,75271,(,0,0,1
3:29.250,75330,N,0,0,0
3:29.431,75395,),0,0,1
3:29.433,75396,t,0,0,3
3:29.514,75425,),0,0,2
3:29.839,75542,(,0,0,0
3:29.883,75558,p,0,0,0
3:29.922,75572,),0,0,0
3:29.997,75599,N,0,0,0
3:30.000,75600,(,0,0,1
3:30.072,75626,),0,0,1
3:30.242,75687,(,0,0,2
3:30.339,75722,t,0,0,0
3:30.425,75753,),0,0,2
3:30.731,75863,(,0,0,0
3:30.772,75878,p,0,0,0
3:30.814,75893,),0,0,0
3:30.883,75918,N,0,0,0
3:30.886,75919,(,0,0,1
3:30.958,75945,),0,0,1
3:31.028,75970,t,0,0,2
3:31.219,76039,),0,0,2
3:31.381,76097,(,0,0,1
3:31.481,76133,N,0,0,0
3:31.553,76159,),0,0,1
3:31.692,76209,(,0,0,2
3:31.758,76233,t,0,0,1
3:31.867,76272,),0,0,2
3:32.631,76547,(,0,0,0
3:32.672,76562,p,0,0,0
3:32.717,76578,),0,0,0
3:32.783,76602,(,0,0,1
3:32.947,76661,N,0,0,0
3:33.031,76691,(,0,0,0
3:33.133,76728,p,0,0,0
3:33.133,76728,),0,0,1
3:33.194,76750,),0,0,0
3:33.256,76772,(,0,0,1
3:33.356,76808,N,0,0,0
3:33.422,76832,),0,0,1
3:33.567,76884,(,0,0,2
3:33.617,76902,t,0,0,1
3:33.711,76936,),0,0,2
3:34.506,77222,(,0,0,0
3:34.544,77236,p,0,0,0
3:34.586,77251,),0,0,0
3:34.658,77277,(,0,0,1
3:34.819,77335,N,0,0,0
3:34.897,77363,(,0,0,0
3:34.997,77399,),0,0,1
3:35.000,77400,p,0,0,0
3:35.067,77424,),0,0,0
3:35.167,77460,(,0,0,1
3:35.236,77485,N,0,0,0
3:35.306,77510,),0,0,1
3:35.436,77557,(,0,0,2
3:35.500,77580,t,0,0,1
3:35.606,77618,),0,0,2
3:36.367,77892,(,0,0,0
3:36.408,77907,p,0,0,0
3:36.450,77922,),0,0,0
3:36.519,77947,(,0,0,1
3:36.686,78007,N,0,0,0
3:36.869,78073,),0,0,1
3:36.872,78074,t,0,0,3
3:36.953,78103,),0,0,2
3:37.283,78222,(,0,0,0
3:37.325,78237,p,0,0,0
3:37.367,78252,),0,0,0
3:37.453,78283,(,0,0,1
3:37.589,78332,N,0,0,0
3:37.775,78399,),0,0,1
3:37.786,78403,(,0,0,2
3:37.881,78437,t,0,0,1
3:37.936,78457,),0,0,2
3:38.156,78536,(,0,0,0
3:38.197,78551,p,0,0,0
3:38.236,78565,),0,0,0
3:38.289,78584,(,0,0,1
3:38.311,78592,N,0,0,0
3:38.383,78618,),0,0,1
3:38.544,78676,(,0,0,2
3:38.647,78713,t,0,0,0
3:38.739,78746,),0,0,2
3:39.078,78868,(,0,0,0
3:39.119,78883,p,0,0,0
3:39.164,78899,),0,0,0
3:39.256,78932,(,0,0,1
3:39.389,78980,N,0,0,0
3:39.581,79049,),0,0,1
3:39.594,79054,(,0,0,2
3:39.697,79091,t,0,0,1
3:39.769,79117,),0,0,2
3:40.006,79202,(,0,0,0
3:40.044,79216,p,0,0,0
3:40.086,79231,),0,0,0
3:40.181,79265,(,0,0,1
3:40.322,79316,N,0,0,0
3:40.503,79381,),0,0,1
3:40.506,79382,t,0,0,3
3:40.592,79413,),0,0,2
3:40.883,79518,(,0,0,0
3:40.925,79533,p,0,0,0
3:40.964,79547,),0,0,0
3:41.047,79577,N,0,0,0
3:41.047,79577,(,0,0,1
3:41.117,79602,),0,0,1
3:41.286,79663,(,0,0,2
3:41.392,79701,t,0,0,0
3:41.483,79734,),0,0,2
3:41.806,79850,(,0,0,0
3:41.847,79865,p,0,0,0
3:41.889,79880,),0,0,0
3:41.983,79914,(,0,0,1
3:42.122,79964,N,0,0,0
3:42.308,80031,),0,0,1
3:42.319,80035,(,0,0,2
3:42.431,80075,t,0,0,1
3:42.492,80097,),0,0,2
3:42.750,80190,(,0,0,0
3:42.794,80206,p,0,0,0
3:42.833,80220,),0,0,0
3:42.925,80253,(,0,0,1
3:43.061,80302,N,0,0,0
3:43.247,80369,),0,0,1
3:43.253,80371,t,0,0,3
3:43.347,80405,),0,0,2
3:43.681,80525,(,0,0,0
3:43.719,80539,p,0,0,0
3:43.761,80554,),0,0,0
3:43.867,80592,(,0,0,1
3:44.025,80649,N,0,0,0
3:44.200,80712,),0,0,1
3:44.211,80716,(,0,0,2
3:44.314,80753,t,0,0,1
3:44.392,80781,),0,0,2
3:44.681,80885,(,0,0,0
3:44.758,80913,p,0,0,0
3:44.825,80937,),0,0,0
3:44.861,80950,(,0,0,1
3:44.928,80974,N,0,0,0
3:45.139,81050,),0,0,1
3:45.142,81051,t,0,0,3
3:45.225,81081,),0,0,2
3:45.592,81213,(,0,0,0
3:45.636,81229,p,0,0,0
3:45.678,81244,),0,0,0
3:45.767,81276,(,0,0,1
3:45.922,81332,N,0,0,0
3:46.100,81396,),0,0,1
3:46.108,81399,(,0,0,2
3:46.219,81439,t,0,0,1
3:46.294,81466,),0,0,2
3:46.556,81560,(,0,0,0
3:46.600,81576,p,0,0,0
3:46.642,81591,),0,0,0
3:46.725,81621,N,0,0,0
3:46.725,81621,(,0,0,1
3:46.797,81647,),0,0,1
3:46.911,81688,t,0,0,2
3:47.053,81739,),0,0,2
3:47.194,81790,(,0,0,1
3:47.289,81824,N,0,0,0
3:47.361,81850,),0,0,1
3:47.511,81904,(,0,0,2
3:47.567,81924,t,0,0,1
3:47.664,81959,),0,0,2
3:48.419,82231,(,0,0,0
3:48.464,82247,p,0,0,0
3:48.506,82262,),0,0,0
3:48.578,82288,(,0,0,1
3:48.728,82342,N,0,0,0
3:48.931,82415,),0,0,1
3:48.933,82416,t,0,0,3
3:49.022,82448,),0,0,2
3:49.361,82570,(,0,0,0
3:49.406,82586,p,0,0,0
3:49.447,82601,),0,0,0
3:49.519,82627,N,0,0,0
3:49.519,82627,(,0,0,1
3:49.592,82653,),0,0,1
3:49.753,82711,(,0,0,2
3:49.853,82747,t,0,0,0
3:49.936,82777,),0,0,2
3:50.247,82889,(,0,0,0
3:50.286,82903,p,0,0,0
3:50.328,82918,),0,0,0
3:50.403,82945,N,0,0,0
3:50.406,82946,(,0,0,1
3:50.478,82972,),0,0,1
3:50.564,83003,t,0,0,2
3:50.742,83067,),0,0,2
3:50.914,83129,(,0,0,1
3:50.983,83154,N,0,0,0
3:51.058,83181,),0,0,1
3:51.200,83232,(,0,0,2
3:51.258,83253,t,0,0,1
3:51.361,83290,),0,0,2
3:52.128,83566,(,0,0,0
3:52.169,83581,p,0,0,0
3:52.211,83596,),0,0,0
3:52.278,83620,(,0,0,1
3:52.431,83675,N,0,0,0
3:52.528,83710,(,0,0,0
3:52.619,83743,),0,0,1
3:52.625,83745,p,0,0,0
3:52.686,83767,),0,0,0
3:52.783,83802,(,0,0,1
3:52.850,83826,N,0,0,0
3:52.917,83850,),0,0,1
3:53.042,83895,(,0,0,2
3:53.108,83919,t,0,0,1
3:53.208,83955,),0,0,2
3:53.997,84239,(,0,0,0
3:54.039,84254,p,0,0,0
3:54.081,84269,),0,0,0
3:54.153,84295,(,0,0,1
3:54.331,84359,N,0,0,0
3:54.497,84419,),0,0,1
3:54.500,84420,t,0,0,3
3:54.583,84450,),0,0,2
3:54.894,84562,(,0,0,0
3:54.936,84577,p,0,0,0
3:54.975,84591,),0,0,0
3:55.069,84625,(,0,0,1
3:55.197,84671,N,0,0,0
3:55.386,84739,),0,0,1
3:55.392,84741,t,0,0,3
3:55.475,84771,),0,0,2
3:55.742,84867,(,0,0,0
3:55.783,84882,p,0,0,0
3:55.828,84898,),0,0,0
3:55.900,84924,N,0,0,0
3:55.903,84925,(,0,0,1
3:55.975,84951,),0,0,1
3:56.086,84991,t,0,0,2
3:56.250,85050,),0,0,2
3:56.400,85104,(,0,0,1
3:56.494,85138,N,0,0,0
3:56.564,85163,),0,0,1
3:56.700,85212,(,0,0,2
3:56.764,85235,t,0,0,1
3:56.861,85270,),0,0,2
3:57.661,85558,(,0,0,0
3:57.733,85584,p,0,0,0
3:57.775,85599,),0,0,0
3:57.814,85613,(,0,0,1
3:57.875,85635,N,0,0,0
3:58.000,85680,(,0,0,0
3:58.092,85713,),0,0,1
3:58.103,85717,p,0,0,0
3:58.169,85741,),0,0,0
3:58.233,85764,(,0,0,1
3:58.331,85799,N,0,0,0
3:58.403,85825,),0,0,1
3:58.547,85877,(,0,0,2
3:58.606,85898,t,0,0,1
3:58.714,85937,),0,0,2
3:59.467,86208,(,0,0,0
3:59.508,86223,p,0,0,0
3:59.550,86238,),0,0,0
3:59.617,86262,(,0,0,1
3:59.797,86327,N,0,0,0
3:59.964,86387,),0,0,1
3:59.967,86388,t,0,0,3
4:00.042,86415,),0,0,2
4:00.331,86519,(,0,0,0
4:00.372,86534,p,0,0,0
4:00.414,86549,),0,0,0
4:00.481,86573,N,0,0,0
4:00.483,86574,(,0,0,1
4:00.556,86600,),0,0,1
4:00.719,86659,t,0,0,2
4:00.819,86695,),0,0,2
4:00.969,86749,(,0,0,1
4:01.069,86785,N,0,0,0
4:01.144,86812,),0,0,1
4:01.286,86863,(,0,0,2
4:01.347,86885,t,0,0,1
4:01.450,86922,),0,0,2
4:02.339,87242,(,0,0,0
4:02.367,87252,p,0,0,0
4:02.394,87262,),0,0,0
4:02.469,87289,(,0,0,1
4:02.503,87301,N,0,0,0
4:02.531,87311,),0,0,1
4:02.575,87327,(,0,0,2
4:02.686,87367,t,0,0,0
4:02.761,87394,),0,0,2
4:03.058,87501,(,0,0,0
4:03.100,87516,p,0,0,0
4:03.142,87531,),0,0,0
4:03.214,87557,N,0,0,0
4:03.217,87558,(,0,0,1
4:03.289,87584,),0,0,1
4:03.397,87623,t,0,0,2
4:03.561,87682,),0,0,2
4:03.706,87734,(,0,0,1
4:03.806,87770,N,0,0,0
4:03.875,87795,),0,0,1
4:04.017,87846,(,0,0,2
4:04.072,87866,t,0,0,1
4:04.169,87901,),0,0,2
4:05.075,88227,(,0,0,0
4:05.100,88236,p,0,0,0
4:05.131,88247,),0,0,0
4:05.186,88267,(,0,0,1
4:05.242,88287,N,0,0,0
4:05.428,88354,),0,0,1
4:05.431,88355,t,0,0,3
4:05.503,88381,),0,0,2
4:05.833,88500,(,0,0,0
4:05.878,88516,p,0,0,0
4:05.919,88531,),0,0,0
4:05.997,88559,N,0,0,0
4:06.000,88560,(,0,0,1
4:06.072,88586,),0,0,1
4:06.156,88616,t,0,0,2
4:06.339,88682,),0,0,2
4:06.367,88692,(,0,0,0
4:06.453,88723,p,0,0,0
4:06.494,88738,),0,0,0
4:06.514,88745,(,0,0,1
4:06.578,88768,N,0,0,0
4:06.647,88793,),0,0,1
4:06.797,88847,(,0,0,2
4:06.847,88865,t,0,0,1
4:06.944,88900,),0,0,2
4:07.711,89176,(,0,0,0
4:07.753,89191,p,0,0,0
4:07.794,89206,),0,0,0
4:07.864,89231,(,0,0,1
4:08.008,89283,N,0,0,0
4:08.219,89359,),0,0,1
4:08.222,89360,t,0,0,3
4:08.303,89389,),0,0,2
4:08.511,89464,(,0,0,0
4:08.528,89470,p,0,0,0
4:08.606,89498,),0,0,0
4:08.644,89512,(,0,0,1
4:08.772,89558,N,0,0,0
4:08.992,89637,),0,0,1
4:09.136,89689,(,0,0,2
4:09.219,89719,t,0,0,0
4:09.275,89739,),0,0,2
4:09.825,89937,(,0,0,0
4:09.853,89947,p,0,0,0
4:09.881,89957,),0,0,0
4:09.925,89973,(,0,0,1
4:09.975,89991,N,0,0,0
4:10.161,90058,),0,0,1
4:10.167,90060,t,0,0,3
4:10.242,90087,),0,0,2
4:10.533,90192,(,0,0,0
4:10.575,90207,p,0,0,0
4:10.617,90222,),0,0,0
4:10.697,90251,N,0,0,0
4:10.700,90252,(,0,0,1
4:10.769,90277,),0,0,1
4:10.897,90323,t,0,0,2
4:11.039,90374,),0,0,2
4:11.178,90424,(,0,0,1
4:11.275,90459,N,0,0,0
4:11.344,90484,),0,0,1
4:11.514,90545,(,0,0,2
4:11.553,90559,t,0,0,1
4:11.639,90590,),0,0,2
4:12.569,90925,(,0,0,0
4:12.597,90935,p,0,0,0
4:12.625,90945,),0,0,0
4:12.664,90959,(,0,0,1
4:12.742,90987,N,0,0,0
4:12.922,91052,),0,0,1
4:12.925,91053,t,0,0,3
4:13.000,91080,),0,0,2
4:13.375,91215,(,0,0,0
4:13.417,91230,p,0,0,0
4:13.458,91245,),0,0,0
4:13.542,91275,(,0,0,1
4:13.678,91324,N,0,0,0
4:13.864,91391,),0,0,1
4:13.867,91392,t,0,0,3
4:13.950,91422,),0,0,2
4:14.431,91595,(,0,0,0
4:14.456,91604,p,0,0,0
4:14.483,91614,),0,0,0
4:14.544,91636,(,0,0,1
4:14.578,91648,N,0,0,0
4:14.608,91659,),0,0,1
4:14.656,91676,(,0,0,2
4:14.758,91713,t,0,0,0
4:14.842,91743,),0,0,2
4:15.133,91848,(,0,0,0
4:15.175,91863,p,0,0,0
4:15.214,91877,),0,0,0
4:15.289,91904,N,0,0,0
4:15.289,91904,(,0,0,1
4:15.364,91931,),0,0,1
4:15.533,91992,(,0,0,2
4:15.639,92030,t,0,0,0
4:15.736,92065,),0,0,2
4:16.081,92189,(,0,0,0
4:16.125,92205,p,0,0,0
4:16.169,92221,),0,0,0
4:16.253,92251,(,0,0,1
4:16.378,92296,N,0,0,0
4:16.572,92366,),0,0,1
4:16.836,92461,(,0,0,1
4:16.964,92507,N,0,0,0
4:17.167,92580,),0,0,1
4:17.289,92624,(,0,0,2
4:17.461,92686,t,0,0,0
4:17.475,92691,),0,0,2
4:18.075,92907,(,0,0,0
4:18.103,92917,p,0,0,0
4:18.133,92928,),0,0,0
4:18.197,92951,(,0,0,1
4:18.214,92957,N,0,0,0
4:18.278,92980,),0,0,1
4:18.322,92996,(,0,0,2
4:18.439,93038,t,0,0,0
4:18.517,93066,),0,0,2
4:19.031,93251,(,0,0,0
4:19.058,93261,p,0,0,0
4:19.086,93271,),0,0,0
4:19.131,93287,(,0,0,1
4:19.178,93304,N,0,0,0
4:19.364,93371,),0,0,1
4:19.367,93372,t,0,0,3
4:19.450,93402,),0,0,2
4:19.783,93522,(,0,0,0
4:19.825,93537,p,0,0,0
4:19.867,93552,),0,0,0
4:19.939,93578,N,0,0,0
4:19.939,93578,(,0,0,1
4:20.014,93605,),0,0,1
4:20.178,93664,(,0,0,2
4:20.286,93703,t,0,0,0
4:20.367,93732,),0,0,2
4:20.853,93907,(,0,0,0
4:20.881,93917,p,0,0,0
4:20.908,93927,),0,0,0
4:20.925,93933,(,0,0,1
4:20.981,93953,N,0,0,0
4:21.175,94023,),0,0,1
4:21.194,94030,(,0,0,2
4:21.300,94068,t,0,0,1
4:21.364,94091,),0,0,2
4:21.581,94169,(,0,0,0
4:21.622,94184,p,0,0,0
4:21.664,94199,),0,0,0
4:21.742,94227,N,0,0,0
4:21.742,94227,(,0,0,1
4:21.814,94253,),0,0,1
4:22.261,94414,(,0,0,0
4:22.311,94432,p,0,0,0
4:22.375,94455,),0,0,0
4:22.428,94474,(,0,0,1
4:22.464,94487,N,0,0,0
4:22.658,94557,),0,0,1
4:22.661,94558,t,0,0,2
4:22.761,94594,),0,0,2
4:23.458,94845,(,0,0,0
4:23.500,94860,p,0,0,0
4:23.542,94875,),0,0,0
4:23.608,94899,(,0,0,1
4:23.783,94962,N,0,0,0
4:23.953,95023,),0,0,1
4:23.958,95025,(,0,0,2
4:24.192,95109,t,0,0,1
4:24.411,95188,),0,0,2
4:24.539,95234,(,0,0,0
4:24.567,95244,p,0,0,0
4:24.597,95255,),0,0,0
4:24.608,95259,(,0,0,1
4:24.683,95286,N,0,0,0
4:24.864,95351,),0,0,1
4:24.875,95355,(,0,0,2
4:24.981,95393,t,0,0,1
4:25.033,95412,),0,0,2
4:25.258,95493,(,0,0,0
4:25.300,95508,p,0,0,0
4:25.344,95524,),0,0,0
4:25.422,95552,N,0,0,0
4:25.422,95552,(,0,0,1
4:25.497,95579,),0,0,1
4:25.661,95638,(,0,0,2
4:25.767,95676,t,0,0,0
4:25.853,95707,),0,0,2
4:26.142,95811,(,0,0,0
4:26.181,95825,p,0,0,0
4:26.219,95839,),0,0,0
4:26.308,95871,(,0,0,1
4:26.450,95922,N,0,0,0
4:26.633,95988,),0,0,1
4:26.644,95992,(,0,0,2
4:26.861,96070,t,0,0,1
4:27.078,96148,),0,0,2
4:27.211,96196,(,0,0,1
4:27.350,96246,N,0,0,0
4:27.539,96314,),0,0,1
4:27.781,96401,(,0,0,1
4:27.939,96458,N,0,0,0
4:27.983,96474,),0,0,1
4:28.056,96500,t,0,0,2
4:28.156,96536,),0,0,2
4:28.986,96835,(,0,0,0
4:29.053,96859,p,0,0,0
4:29.094,96874,),0,0,0
4:29.133,96888,(,0,0,1
4:29.217,96918,N,0,0,0
4:29.250,96930,),0,0,1
4:29.311,96952,(,0,0,2
4:29.422,96992,t,0,0,0
4:29.497,97019,),0,0,2
4:29.847,97145,(,0,0,0
4:29.886,97159,p,0,0,0
4:29.925,97173,),0,0,0
4:30.011,97204,(,0,0,1
4:30.153,97255,N,0,0,0
4:30.342,97323,),0,0,1
4:30.361,97330,(,0,0,2
4:30.603,97417,t,0,0,1
4:30.817,97494,),0,0,2
4:30.950,97542,(,0,0,1
4:31.089,97592,N,0,0,0
4:31.269,97657,),0,0,1
4:31.272,97658,t,0,0,3
4:31.361,97690,),0,0,2
4:31.667,97800,(,0,0,0
4:31.708,97815,p,0,0,0
4:31.753,97831,),0,0,0
4:31.825,97857,N,0,0,0
4:31.828,97858,(,0,0,1
4:31.903,97885,),0,0,1
4:32.075,97947,(,0,0,2
4:32.169,97981,t,0,0,0
4:32.250,98010,),0,0,2
4:32.353,98047,(,0,0,0
4:32.403,98065,p,0,0,0
4:32.469,98089,),0,0,0
4:32.528,98110,(,0,0,1
4:32.556,98120,N,0,0,0
4:32.744,98188,),0,0,1
4:32.783,98202,(,0,0,2
4:33.139,98330,t,0,0,0
4:33.256,98372,),0,0,2
4:33.522,98468,(,0,0,0
4:33.564,98483,p,0,0,0
4:33.606,98498,),0,0,0
4:33.675,98523,(,0,0,1
4:33.822,98576,N,0,0,0
4:34.008,98643,),0,0,1
4:34.189,98708,(,0,0,0
4:34.239,98726,p,0,0,0
4:34.303,98749,),0,0,0
4:34.364,98771,(,0,0,1
4:34.392,98781,N,0,0,0
4:34.433,98796,),0,0,1
4:34.503,98821,t,0,0,2
4:34.603,98857,),0,0,2
4:37.811,100012,(,0,0,1
4:37.881,100037,N,0,0,0
4:37.906,100046,),0,0,1
4:38.108,100119,(,0,0,2
4:38.164,100139,t,0,0,1
4:38.264,100175,),0,0,2
4:45.147,102653,(,0,0,1
4:45.228,102682,N,0,0,0
4:45.283,102702,),0,0,1
4:45.433,102756,(,0,0,2
4:45.506,102782,t,0,0,1
4:45.608,102819,),0,0,2
5:01.467,108528,(,0,0,1
5:01.539,108554,N,0,0,0
5:01.592,108573,),0,0,1
5:01.758,108633,(,0,0,2
5:01.811,108652,t,0,0,1
5:01.906,108686,),0,0,2
5:06.897,110483,(,0,0,1
5:06.964,110507,N,0,0,0
5:06.986,110515,),0,0,1
5:07.153,110575,(,0,0,2
5:07.225,110601,t,0,0,1
5:07.322,110636,),0,0,2
5:12.367,112452,(,0,0,1
5:12.422,112472,N,0,0,0
5:12.447,112481,),0,0,1
5:12.631,112547,(,0,0,2
5:12.694,112570,t,0,0,1
5:12.797,112607,),0,0,2
5:14.189,113108,(,0,0,1
5:14.244,113128,N,0,0,0
5:14.269,113137,),0,0,1
5:14.458,113205,(,0,0,2
5:14.514,113225,t,0,0,1
5:14.603,113257,),0,0,2
5:27.572,117926,(,0,0,1
5:27.631,117947,N,0,0,0
5:27.656,117956,),0,0,1
5:27.847,118025,(,0,0,2
5:27.911,118048,t,0,0,1
5:28.011,118084,),0,0,2
5:30.306,118910,(,0,0,1
5:30.367,118932,N,0,0,0
5:30.422,118952,),0,0,1
5:30.569,119005,(,0,0,2
5:30.633,119028,t,0,0,1
5:30.736,119065,),0,0,2
5:33.000,119880,(,0,0,1
5:33.058,119901,N,0,0,0
5:33.114,119921,),0,0,1
5:33.253,119971,(,0,0,2
5:33.319,119995,t,0,0,1
5:33.422,120032,),0,0,2
5:38.347,121805,(,0,0,1
5:38.408,121827,N,0,0,0
5:38.431,121835,),0,0,1
5:38.589,121892,(,0,0,2
5:38.672,121922,t,0,0,1
5:38.778,121960,),0,0,2
5:40.981,122753,(,0,0,1
5:41.039,122774,N,0,0,0
5:41.064,122783,),0,0,1
5:41.233,122844,(,0,0,2
5:41.303,122869,t,0,0,1
5:41.408,122907,),0,0,2
6:01.336,130081,(,0,0,1
6:01.408,130107,N,0,0,0
6:01.461,130126,),0,0,1
6:01.606,130178,(,0,0,2
6:01.661,130198,t,0,0,1
6:01.764,130235,),0,0,2
6:11.283,133662,(,0,0,1
6:11.361,133690,N,0,0,0
6:11.414,133709,),0,0,1
6:11.561,133762,(,0,0,2
6:11.631,133787,t,0,0,1
6:11.733,133824,),0,0,2
6:13.964,134627,(,0,0,1
6:14.025,134649,N,0,0,0
6:14.081,134669,),0,0,1
6:14.231,134723,(,0,0,2
6:14.300,134748,t,0,0,1
6:14.400,134784,),0,0,2
6:16.639,135590,(,0,0,1
6:16.697,135611,N,0,0,0
6:16.753,135631,),0,0,1
6:16.894,135682,(,0,0,2
6:16.969,135709,t,0,0,1
6:17.075,135747,),0,0,2
6:22.050,137538,(,0,0,1
6:22.114,137561,N,0,0,0
6:22.167,137580,),0,0,1
6:22.319,137635,(,0,0,2
6:22.378,137656,t,0,0,1
6:22.481,137693,),0,0,2
6:26.886,139279,(,0,0,1
6:26.925,139293,N,0,0,0
6:26.961,139306,),0,0,1
6:27.125,139365,(,0,0,2
6:27.217,139398,t,0,0,0
6:27.311,139432,),0,0,2
6:27.758,139593,(,0,0,1
6:27.800,139608,N,0,0,0
6:27.836,139621,),0,0,1
6:27.992,139677,(,0,0,2
6:28.097,139715,t,0,0,0
6:28.183,139746,),0,0,2
6:28.656,139916,(,0,0,1
6:28.694,139930,N,0,0,0
6:28.731,139943,),0,0,1
6:28.903,140005,(,0,0,2
6:29.000,140040,t,0,0,0
6:29.094,140074,),0,0,2
6:29.583,140250,(,0,0,1
6:29.619,140263,N,0,0,0
6:29.675,140283,),0,0,1
6:29.822,140336,(,0,0,2
6:29.917,140370,t,0,0,0
6:30.014,140405,),0,0,2
6:30.481,140573,(,0,0,1
6:30.517,140586,N,0,0,0
6:30.572,140606,),0,0,1
6:30.719,140659,(,0,0,2
6:30.814,140693,t,0,0,0
6:30.903,140725,),0,0,2
6:31.389,140900,(,0,0,1
6:31.428,140914,N,0,0,0
6:31.464,140927,),0,0,1
6:31.636,140989,(,0,0,2
6:31.739,141026,t,0,0,0
6:31.833,141060,),0,0,2
6:32.292,141225,(,0,0,1
6:32.331,141239,N,0,0,0
6:32.367,141252,),0,0,1
6:32.533,141312,(,0,0,2
6:32.631,141347,t,0,0,0
6:32.719,141379,),0,0,2
6:33.192,141549,(,0,0,1
6:33.228,141562,N,0,0,0
6:33.264,141575,),0,0,1
6:33.436,141637,(,0,0,2
6:33.522,141668,t,0,0,0
6:33.614,141701,),0,0,2
6:34.122,141884,(,0,0,1
6:34.161,141898,N,0,0,0
6:34.197,141911,),0,0,1
6:34.325,141957,t,0,0,2
6:34.467,142008,),0,0,2
6:34.631,142067,(,0,0,1
6:34.708,142095,N,0,0,0
6:34.761,142114,),0,0,1
6:34.914,142169,(,0,0,2
6:34.967,142188,t,0,0,1
6:35.064,142223,),0,0,2
6:35.964,142547,(,0,0,1
6:36.008,142563,N,0,0,0
6:36.069,142585,),0,0,1
6:36.219,142639,(,0,0,2
6:36.317,142674,t,0,0,0
6:36.403,142705,),0,0,2
6:36.931,142895,(,0,0,1
6:36.969,142909,N,0,0,0
6:37.031,142931,),0,0,1
6:37.181,142985,(,0,0,2
6:37.272,143018,t,0,0,0
6:37.358,143049,),0,0,2
6:37.822,143216,(,0,0,1
6:37.858,143229,N,0,0,0
6:37.894,143242,),0,0,1
6:38.061,143302,(,0,0,2
6:38.158,143337,t,0,0,0
6:38.247,143369,),0,0,2
6:38.664,143519,(,0,0,1
6:38.708,143535,N,0,0,0
6:38.744,143548,),0,0,1
6:38.908,143607,(,0,0,2
6:39.006,143642,t,0,0,0
6:39.094,143674,),0,0,2
6:39.583,143850,(,0,0,1
6:39.622,143864,N,0,0,0
6:39.678,143884,),0,0,1
6:39.822,143936,(,0,0,2
6:39.917,143970,t,0,0,0
6:40.003,144001,),0,0,2
6:40.433,144156,(,0,0,1
6:40.486,144175,N,0,0,0
6:40.522,144188,),0,0,1
6:40.672,144242,(,0,0,2
6:40.778,144280,t,0,0,0
6:40.867,144312,),0,0,2
6:41.331,144479,(,0,0,1
6:41.372,144494,N,0,0,0
6:41.431,144515,),0,0,1
6:41.575,144567,(,0,0,2
6:41.681,144605,t,0,0,0
6:41.772,144638,),0,0,2
6:42.247,144809,(,0,0,1
6:42.286,144823,N,0,0,0
6:42.342,144843,),0,0,1
6:42.483,144894,(,0,0,2
6:42.586,144931,t,0,0,0
6:42.675,144963,),0,0,2
6:43.097,145115,(,0,0,1
6:43.153,145135,N,0,0,0
6:43.208,145155,),0,0,1
6:43.347,145205,(,0,0,2
6:43.447,145241,t,0,0,0
6:43.533,145272,),0,0,2
6:44.006,145442,(,0,0,1
6:44.047,145457,N,0,0,0
6:44.086,145471,),0,0,1
6:44.256,145532,(,0,0,2
6:44.364,145571,t,0,0,0
6:44.450,145602,),0,0,2
6:44.933,145776,(,0,0,1
6:44.972,145790,N,0,0,0
6:45.008,145803,),0,0,1
6:45.178,145864,(,0,0,2
6:45.275,145899,t,0,0,0
6:45.361,145930,),0,0,2
6:45.819,146095,(,0,0,1
6:45.856,146108,N,0,0,0
6:45.889,146120,),0,0,1
6:46.044,146176,(,0,0,2
6:46.133,146208,t,0,0,0
6:46.219,146239,),0,0,2
6:46.692,146409,(,0,0,1
6:46.731,146423,N,0,0,0
6:46.767,146436,),0,0,1
6:46.936,146497,(,0,0,2
6:47.033,146532,t,0,0,0
6:47.111,146560,),0,0,2
6:47.603,146737,(,0,0,1
6:47.644,146752,N,0,0,0
6:47.683,146766,),0,0,1
6:47.850,146826,(,0,0,2
6:47.944,146860,t,0,0,0
6:48.036,146893,),0,0,2
6:48.503,147061,(,0,0,1
6:48.542,147075,N,0,0,0
6:48.578,147088,),0,0,1
6:48.736,147145,(,0,0,2
6:48.842,147183,t,0,0,0
6:48.928,147214,),0,0,2
6:49.406,147386,(,0,0,1
6:49.447,147401,N,0,0,0
6:49.483,147414,),0,0,1
6:49.644,147472,(,0,0,2
6:49.739,147506,t,0,0,0
6:49.819,147535,),0,0,2
6:50.306,147710,(,0,0,1
6:50.344,147724,N,0,0,0
6:50.381,147737,),0,0,1
6:50.544,147796,(,0,0,2
6:50.644,147832,t,0,0,0
6:50.733,147864,),0,0,2
6:51.181,148025,(,0,0,1
6:51.225,148041,N,0,0,0
6:51.261,148054,),0,0,1
6:51.436,148117,(,0,0,2
6:51.539,148154,t,0,0,0
6:51.625,148185,),0,0,2
6:52.081,148349,(,0,0,1
6:52.125,148365,N,0,0,0
6:52.161,148378,),0,0,1
6:52.319,148435,(,0,0,2
6:52.417,148470,t,0,0,0
6:52.497,148499,),0,0,2
6:52.978,148672,(,0,0,1
6:53.019,148687,N,0,0,0
6:53.056,148700,),0,0,1
6:53.219,148759,(,0,0,2
6:53.319,148795,t,0,0,0
6:53.406,148826,),0,0,2
6:53.836,148981,(,0,0,1
6:53.878,148996,N,0,0,0
6:53.917,149010,),0,0,1
6:54.092,149073,(,0,0,2
6:54.189,149108,t,0,0,0
6:54.275,149139,),0,0,2
6:54.733,149304,(,0,0,1
6:54.767,149316,N,0,0,0
6:54.803,149329,),0,0,1
6:54.975,149391,(,0,0,2
6:55.061,149422,t,0,0,0
6:55.147,149453,),0,0,2
6:55.639,149630,(,0,0,1
6:55.678,149644,N,0,0,0
6:55.714,149657,),0,0,1
6:55.881,149717,(,0,0,2
6:55.986,149755,t,0,0,0
6:56.072,149786,),0,0,2
6:56.531,149951,(,0,0,1
6:56.572,149966,N,0,0,0
6:56.608,149979,),0,0,1
6:56.778,150040,(,0,0,2
6:56.878,150076,t,0,0,0
6:56.964,150107,),0,0,2
6:57.406,150266,(,0,0,1
6:57.442,150279,N,0,0,0
6:57.475,150291,),0,0,1
6:57.642,150351,(,0,0,2
6:57.739,150386,t,0,0,0
6:57.825,150417,),0,0,2
6:58.306,150590,(,0,0,1
6:58.342,150603,N,0,0,0
6:58.378,150616,),0,0,1
6:58.542,150675,(,0,0,2
6:58.644,150712,t,0,0,0
6:58.725,150741,),0,0,2
6:59.214,150917,(,0,0,1
6:59.253,150931,N,0,0,0
6:59.289,150944,),0,0,1
6:59.447,151001,(,0,0,2
6:59.553,151039,t,0,0,0
6:59.639,151070,),0,0,2
7:00.042,151215,(,0,0,1
7:00.092,151233,N,0,0,0
7:00.131,151247,),0,0,1
7:00.294,151306,(,0,0,2
7:00.394,151342,t,0,0,0
7:00.481,151373,),0,0,2
7:00.928,151534,(,0,0,1
7:00.961,151546,N,0,0,0
7:00.997,151559,),0,0,1
7:01.083,151590,t,0,0,2
7:01.256,151652,),0,0,2
7:01.414,151709,(,0,0,1
7:01.497,151739,N,0,0,0
7:01.547,151757,),0,0,1
7:01.692,151809,(,0,0,2
7:01.761,151834,t,0,0,1
7:01.867,151872,),0,0,2
7:02.719,152179,(,0,0,1
7:02.761,152194,N,0,0,0
7:02.819,152215,),0,0,1
7:02.956,152264,(,0,0,2
7:03.078,152308,t,0,0,0
7:03.153,152335,),0,0,2
7:03.661,152518,(,0,0,1
7:03.700,152532,N,0,0,0
7:03.756,152552,),0,0,1
7:03.897,152603,(,0,0,2
7:04.014,152645,t,0,0,0
7:04.100,152676,),0,0,2
7:04.569,152845,(,0,0,1
7:04.603,152857,N,0,0,0
7:04.658,152877,),0,0,1
7:04.794,152926,(,0,0,2
7:04.903,152965,t,0,0,0
7:04.989,152996,),0,0,2
7:05.417,153150,(,0,0,1
7:05.458,153165,N,0,0,0
7:05.494,153178,),0,0,1
7:05.653,153235,(,0,0,2
7:05.756,153272,t,0,0,0
7:05.839,153302,),0,0,2
7:06.319,153475,(,0,0,1
7:06.361,153490,N,0,0,0
7:06.422,153512,),0,0,1
7:06.481,153533,t,0,0,2
7:06.667,153600,),0,0,2
7:06.844,153664,(,0,0,1
7:06.917,153690,N,0,0,0
7:06.969,153709,),0,0,1
7:07.092,153753,(,0,0,2
7:07.172,153782,t,0,0,1
7:07.272,153818,),0,0,2
7:08.167,154140,(,0,0,1
7:08.206,154154,N,0,0,0
7:08.258,154173,),0,0,1
7:08.397,154223,(,0,0,2
7:08.511,154264,t,0,0,0
7:08.589,154292,),0,0,2
7:09.100,154476,(,0,0,1
7:09.136,154489,N,0,0,0
7:09.172,154502,),0,0,1
7:09.325,154557,(,0,0,2
7:09.433,154596,t,0,0,0
7:09.519,154627,),0,0,2
7:09.958,154785,(,0,0,1
7:10.006,154802,N,0,0,0
7:10.061,154822,),0,0,1
7:10.203,154873,(,0,0,2
7:10.303,154909,t,0,0,0
7:10.394,154942,),0,0,2
7:10.856,155108,(,0,0,1
7:10.897,155123,N,0,0,0
7:10.936,155137,),0,0,1
7:11.097,155195,(,0,0,2
7:11.203,155233,t,0,0,0
7:11.289,155264,),0,0,2
7:11.783,155442,(,0,0,1
7:11.819,155455,N,0,0,0
7:11.856,155468,),0,0,1
7:12.011,155524,(,0,0,2
7:12.117,155562,t,0,0,0
7:12.203,155593,),0,0,2
7:12.647,155753,(,0,0,1
7:12.686,155767,N,0,0,0
7:12.722,155780,),0,0,1
7:12.883,155838,(,0,0,2
7:12.986,155875,t,0,0,0
7:13.072,155906,),0,0,2
7:13.561,156082,(,0,0,1
7:13.606,156098,N,0,0,0
7:13.664,156119,),0,0,1
7:13.819,156175,(,0,0,2
7:13.917,156210,t,0,0,0
7:13.997,156239,),0,0,2
7:14.514,156425,(,0,0,1
7:14.550,156438,N,0,0,0
7:14.586,156451,),0,0,1
7:14.747,156509,(,0,0,2
7:14.856,156548,t,0,0,0
7:14.950,156582,),0,0,2
7:15.397,156743,(,0,0,1
7:15.442,156759,N,0,0,0
7:15.497,156779,),0,0,1
7:15.578,156808,t,0,0,2
7:15.725,156861,),0,0,2
7:15.883,156918,(,0,0,1
7:15.958,156945,N,0,0,0
7:15.983,156954,),0,0,1
7:16.183,157026,(,0,0,2
7:16.236,157045,t,0,0,1
7:16.333,157080,),0,0,2
7:17.250,157410,(,0,0,1
7:17.286,157423,N,0,0,0
7:17.344,157444,),0,0,1
7:17.494,157498,(,0,0,2
7:17.611,157540,t,0,0,0
7:17.689,157568,),0,0,2
7:18.158,157737,(,0,0,1
7:18.194,157750,N,0,0,0
7:18.231,157763,),0,0,1
7:18.356,157808,t,0,0,2
7:18.497,157859,),0,0,2
7:18.689,157928,(,0,0,1
7:18.747,157949,N,0,0,0
7:18.772,157958,),0,0,1
7:18.969,158029,(,0,0,2
7:19.022,158048,t,0,0,1
7:19.125,158085,),0,0,2
7:20.028,158410,(,0,0,1
7:20.067,158424,N,0,0,0
7:20.125,158445,),0,0,1
7:20.278,158500,(,0,0,2
7:20.389,158540,t,0,0,0
7:20.469,158569,),0,0,2
7:20.925,158733,(,0,0,1
7:20.964,158747,N,0,0,0
7:21.003,158761,),0,0,1
7:21.172,158822,(,0,0,2
7:21.283,158862,t,0,0,0
7:21.369,158893,),0,0,2
7:22.817,159414,(,0,0,1
7:22.853,159427,N,0,0,0
7:22.906,159446,),0,0,1
7:23.036,159493,(,0,0,2
7:23.156,159536,t,0,0,0
7:23.228,159562,),0,0,2
7:23.689,159728,(,0,0,1
7:23.733,159744,N,0,0,0
7:23.769,159757,),0,0,1
7:23.886,159799,t,0,0,2
7:24.033,159852,),0,0,2
7:24.192,159909,(,0,0,1
7:24.267,159936,N,0,0,0
7:24.319,159955,),0,0,1
7:24.469,160009,(,0,0,2
7:24.533,160032,t,0,0,1
7:24.633,160068,),0,0,2
7:25.492,160377,(,0,0,1
7:25.533,160392,N,0,0,0
7:25.569,160405,),0,0,1
7:25.731,160463,(,0,0,2
7:25.853,160507,t,0,0,0
7:25.933,160536,),0,0,2
7:26.392,160701,(,0,0,1
7:26.431,160715,N,0,0,0
7:26.486,160735,),0,0,1
7:26.622,160784,t,0,0,2
7:26.722,160820,),0,0,2
7:26.903,160885,(,0,0,1
7:26.958,160905,N,0,0,0
7:27.008,160923,),0,0,1
7:27.144,160972,(,0,0,2
7:27.219,160999,t,0,0,1
7:27.325,161037,),0,0,2
7:28.161,161338,(,0,0,1
7:28.206,161354,N,0,0,0
7:28.242,161367,),0,0,1
7:28.317,161394,(,0,0,2
7:28.344,161404,t,0,0,1
7:28.531,161471,),0,0,2
7:28.694,161530,(,0,0,1
7:28.769,161557,N,0,0,0
7:28.822,161576,),0,0,1
7:28.956,161624,(,0,0,2
7:29.036,161653,t,0,0,1
7:29.139,161690,),0,0,2
7:31.731,162623,(,0,0,1
7:31.772,162638,N,0,0,0
7:31.808,162651,),0,0,1
7:31.928,162694,t,0,0,2
7:32.067,162744,),0,0,2
7:32.231,162803,(,0,0,1
7:32.303,162829,N,0,0,0
7:32.325,162837,),0,0,1
7:32.508,162903,(,0,0,2
7:32.569,162925,t,0,0,1
7:32.667,162960,),0,0,2
7:33.586,163291,(,0,0,1
7:33.622,163304,N,0,0,0
7:33.678,163324,),0,0,1
7:33.814,163373,(,0,0,2
7:33.939,163418,t,0,0,0
7:34.019,163447,),0,0,2
7:34.467,163608,(,0,0,1
7:34.508,163623,N,0,0,0
7:34.547,163637,),0,0,1
7:34.711,163696,(,0,0,2
7:34.811,163732,t,0,0,0
7:34.903,163765,),0,0,2
7:35.369,163933,(,0,0,1
7:35.414,163949,N,0,0,0
7:35.450,163962,),0,0,1
7:35.617,164022,(,0,0,2
7:35.719,164059,t,0,0,0
7:35.806,164090,),0,0,2
7:36.325,164277,(,0,0,1
7:36.361,164290,N,0,0,0
7:36.397,164303,),0,0,1
7:36.558,164361,(,0,0,2
7:36.656,164396,t,0,0,0
7:36.750,164430,),0,0,2
7:37.203,164593,(,0,0,1
7:37.247,164609,N,0,0,0
7:37.286,164623,),0,0,1
7:37.450,164682,(,0,0,2
7:37.542,164715,t,0,0,0
7:37.631,164747,),0,0,2
7:38.100,164916,(,0,0,1
7:38.136,164929,N,0,0,0
7:38.175,164943,),0,0,1
7:38.347,165005,(,0,0,2
7:38.447,165041,t,0,0,0
7:38.536,165073,),0,0,2
7:39.028,165250,(,0,0,1
7:39.067,165264,N,0,0,0
7:39.103,165277,),0,0,1
7:39.267,165336,(,0,0,2
7:39.364,165371,t,0,0,0
7:39.456,165404,),0,0,2
7:40.431,165755,(,0,0,1
7:40.489,165776,N,0,0,0
7:40.542,165795,),0,0,1
7:40.717,165858,(,0,0,2
7:40.769,165877,t,0,0,1
7:40.867,165912,),0,0,2
7:42.306,166430,(,0,0,1
7:42.364,166451,N,0,0,0
7:42.411,166468,),0,0,1
7:42.556,166520,(,0,0,2
7:42.617,166542,t,0,0,1
7:42.719,166579,),0,0,2
7:44.592,167253,(,0,0,1
7:44.628,167266,N,0,0,0
7:44.664,167279,),0,0,1
7:44.822,167336,(,0,0,2
7:44.931,167375,t,0,0,0
7:45.011,167404,),0,0,2
7:45.447,167561,(,0,0,1
7:45.489,167576,N,0,0,0
7:45.547,167597,),0,0,1
7:45.603,167617,t,0,0,2
7:45.794,167686,),0,0,2
7:45.969,167749,(,0,0,1
7:46.042,167775,N,0,0,0
7:46.089,167792,),0,0,1
7:46.244,167848,(,0,0,2
7:46.303,167869,t,0,0,1
7:46.411,167908,),0,0,2
7:47.811,168412,(,0,0,1
7:47.894,168442,N,0,0,0
7:47.947,168461,),0,0,1
7:48.106,168518,(,0,0,2
7:48.169,168541,t,0,0,1
7:48.275,168579,),0,0,2
7:49.678,169084,(,0,0,1
7:49.753,169111,N,0,0,0
7:49.803,169129,),0,0,1
7:49.939,169178,(,0,0,2
7:50.011,169204,t,0,0,1
7:50.114,169241,),0,0,2
7:51.019,169567,(,0,0,1
7:51.058,169581,N,0,0,0
7:51.117,169602,),0,0,1
7:51.256,169652,(,0,0,2
7:51.375,169695,t,0,0,0
7:51.450,169722,),0,0,2
7:55.075,171027,(,0,0,1
7:55.147,171053,N,0,0,0
7:55.197,171071,),0,0,1
7:55.356,171128,(,0,0,2
7:55.414,171149,t,0,0,1
7:55.525,171189,),0,0,2
7:59.175,172503,(,0,0,1
7:59.211,172516,N,0,0,0
7:59.267,172536,),0,0,1
7:59.411,172588,(,0,0,2
7:59.508,172623,t,0,0,0
7:59.594,172654,),0,0,2
8:00.581,173009,(,0,0,1
8:00.656,173036,N,0,0,0
8:00.706,173054,),0,0,1
8:00.861,173110,(,0,0,2
8:00.917,173130,t,0,0,1
8:01.011,173164,),0,0,2
8:01.914,173489,(,0,0,1
8:01.950,173502,N,0,0,0
8:01.986,173515,),0,0,1
8:02.153,173575,(,0,0,2
8:02.272,173618,t,0,0,0
8:02.358,173649,),0,0,2
8:04.672,174482,(,0,0,1
8:04.708,174495,N,0,0,0
8:04.764,174515,),0,0,1
8:04.911,174568,(,0,0,2
8:05.006,174602,t,0,0,0
8:05.089,174632,),0,0,2
8:05.608,174819,(,0,0,1
8:05.647,174833,N,0,0,0
8:05.706,174854,),0,0,1
8:05.856,174908,(,0,0,2
8:05.950,174942,t,0,0,0
8:06.028,174970,),0,0,2
8:07.369,175453,(,0,0,1
8:07.408,175467,N,0,0,0
8:07.444,175480,),0,0,1
8:07.597,175535,(,0,0,2
8:07.711,175576,t,0,0,0
8:07.803,175609,),0,0,2
8:08.308,175791,(,0,0,1
8:08.344,175804,N,0,0,0
8:08.400,175824,),0,0,1
8:08.544,175876,(,0,0,2
8:08.636,175909,t,0,0,0
8:08.725,175941,),0,0,2
8:09.183,176106,(,0,0,1
8:09.219,176119,N,0,0,0
8:09.256,176132,),0,0,1
8:09.417,176190,(,0,0,2
8:09.525,176229,t,0,0,0
8:09.608,176259,),0,0,2
8:10.078,176428,(,0,0,1
8:10.117,176442,N,0,0,0
8:10.156,176456,),0,0,1
8:10.333,176520,(,0,0,2
8:10.431,176555,t,0,0,0
8:10.519,176587,),0,0,2
8:11.022,176768,(,0,0,1
8:11.056,176780,N,0,0,0
8:11.092,176793,),0,0,1
8:11.253,176851,(,0,0,2
8:11.353,176887,t,0,0,0
8:11.439,176918,),0,0,2
8:11.925,177093,(,0,0,1
8:11.964,177107,N,0,0,0
8:12.019,177127,),0,0,1
8:12.172,177182,(,0,0,2
8:12.261,177214,t,0,0,0
8:12.342,177243,),0,0,2
8:12.822,177416,(,0,0,1
8:12.861,177430,N,0,0,0
8:12.897,177443,),0,0,1
8:13.072,177506,(,0,0,2
8:13.175,177543,t,0,0,0
8:13.261,177574,),0,0,2
8:13.753,177751,(,0,0,1
8:13.789,177764,N,0,0,0
8:13.825,177777,),0,0,1
8:13.994,177838,(,0,0,2
8:14.089,177872,t,0,0,0
8:14.181,177905,),0,0,2
8:14.647,178073,(,0,0,1
8:14.686,178087,N,0,0,0
8:14.722,178100,),0,0,1
8:14.872,178154,(,0,0,2
8:14.972,178190,t,0,0,0
8:15.064,178223,),0,0,2
8:15.525,178389,(,0,0,1
8:15.564,178403,N,0,0,0
8:15.600,178416,),0,0,1
8:15.761,178474,(,0,0,2
8:15.861,178510,t,0,0,0
8:15.944,178540,),0,0,2
8:16.422,178712,(,0,0,1
8:16.461,178726,N,0,0,0
8:16.519,178747,),0,0,1
8:16.669,178801,(,0,0,2
8:16.758,178833,t,0,0,0
8:16.839,178862,),0,0,2
8:18.228,179362,(,0,0,1
8:18.264,179375,N,0,0,0
8:18.300,179388,),0,0,1
8:18.456,179444,(,0,0,2
8:18.564,179483,t,0,0,0
8:18.644,179512,),0,0,2
8:19.114,179681,(,0,0,1
8:19.153,179695,N,0,0,0
8:19.211,179716,),0,0,1
8:19.364,179771,(,0,0,2
8:19.456,179804,t,0,0,0
8:19.542,179835,),0,0,2
8:20.889,180320,(,0,0,1
8:20.931,180335,N,0,0,0
8:20.983,180354,),0,0,1
8:21.119,180403,(,0,0,2
8:21.225,180441,t,0,0,0
8:21.308,180471,),0,0,2
8:21.792,180645,(,0,0,1
8:21.828,180658,N,0,0,0
8:21.886,180679,),0,0,1
8:22.028,180730,(,0,0,2
8:22.128,180766,t,0,0,0
8:22.211,180796,),0,0,2
8:23.531,181271,(,0,0,1
8:23.572,181286,N,0,0,0
8:23.608,181299,),0,0,1
8:23.786,181363,(,0,0,2
8:23.878,181396,t,0,0,0
8:23.961,181426,),0,0,2
8:24.436,181597,(,0,0,1
8:24.475,181611,N,0,0,0
8:24.511,181624,),0,0,1
8:24.675,181683,(,0,0,2
8:24.778,181720,t,0,0,0
8:24.869,181753,),0,0,2
8:26.208,182235,(,0,0,1
8:26.253,182251,N,0,0,0
8:26.289,182264,),0,0,1
8:26.447,182321,(,0,0,2
8:26.550,182358,t,0,0,0
8:26.636,182389,),0,0,2
8:27.117,182562,(,0,0,1
8:27.153,182575,N,0,0,0
8:27.189,182588,),0,0,1
8:27.347,182645,(,0,0,2
8:27.453,182683,t,0,0,0
8:27.539,182714,),0,0,2
8:28.006,182882,(,0,0,1
8:28.050,182898,N,0,0,0
8:28.086,182911,),0,0,1
8:28.256,182972,(,0,0,2
8:28.347,183005,t,0,0,0
8:28.425,183033,),0,0,2
8:28.906,183206,(,0,0,1
8:28.953,183223,N,0,0,0
8:29.008,183243,),0,0,1
8:29.164,183299,(,0,0,2
8:29.258,183333,t,0,0,0
8:29.344,183364,),0,0,2
8:29.819,183535,(,0,0,1
8:29.861,183550,N,0,0,0
8:29.897,183563,),0,0,1
8:30.053,183619,(,0,0,2
8:30.161,183658,t,0,0,0
8:30.247,183689,),0,0,2
8:30.708,183855,(,0,0,1
8:30.756,183872,N,0,0,0
8:30.792,183885,),0,0,1
8:30.950,183942,(,0,0,2
8:31.056,183980,t,0,0,0
8:31.139,184010,),0,0,2
8:31.603,184177,(,0,0,1
8:31.639,184190,N,0,0,0
8:31.678,184204,),0,0,1
8:31.850,184266,(,0,0,2
8:31.950,184302,t,0,0,0
8:32.036,184333,),0,0,2
8:32.533,184512,(,0,0,1
8:32.569,184525,N,0,0,0
8:32.606,184538,),0,0,1
8:32.775,184599,(,0,0,2
8:32.875,184635,t,0,0,0
8:32.964,184667,),0,0,2
8:33.425,184833,(,0,0,1
8:33.464,184847,N,0,0,0
8:33.500,184860,),0,0,1
8:33.658,184917,(,0,0,2
8:33.761,184954,t,0,0,0
8:33.844,184984,),0,0,2
8:34.325,185157,(,0,0,1
8:34.361,185170,N,0,0,0
8:34.419,185191,),0,0,1
8:34.564,185243,(,0,0,2
8:34.664,185279,t,0,0,0
8:34.747,185309,),0,0,2
8:36.133,185808,(,0,0,1
8:36.169,185821,N,0,0,0
8:36.206,185834,),0,0,1
8:36.372,185894,(,0,0,2
8:36.469,185929,t,0,0,0
8:36.561,185962,),0,0,2
8:37.033,186132,(,0,0,1
8:37.067,186144,N,0,0,0
8:37.103,186157,),0,0,1
8:37.258,186213,(,0,0,2
8:37.353,186247,t,0,0,0
8:37.442,186279,),0,0,2
8:37.931,186455,(,0,0,1
8:37.967,186468,N,0,0,0
8:38.022,186488,),0,0,1
8:38.161,186538,(,0,0,2
8:38.264,186575,t,0,0,0
8:38.342,186603,),0,0,2
8:38.803,186769,(,0,0,1
8:38.842,186783,N,0,0,0
8:38.881,186797,),0,0,1
8:39.042,186855,(,0,0,2
8:39.139,186890,t,0,0,0
8:39.222,186920,),0,0,2
8:39.694,187090,(,0,0,1
8:39.731,187103,N,0,0,0
8:39.767,187116,),0,0,1
8:39.928,187174,(,0,0,2
8:40.033,187212,t,0,0,0
8:40.119,187243,),0,0,2
8:42.397,188063,(,0,0,1
8:42.436,188077,N,0,0,0
8:42.492,188097,),0,0,1
8:42.650,188154,(,0,0,2
8:42.753,188191,t,0,0,0
8:42.839,188222,),0,0,2
8:43.344,188404,(,0,0,1
8:43.381,188417,N,0,0,0
8:43.417,188430,),0,0,1
8:44.094,188674,(,0,0,2
8:44.147,188693,t,0,0,0
8:44.197,188711,),0,0,2
8:45.139,189050,(,0,0,1
8:45.175,189063,N,0,0,0
8:45.211,189076,),0,0,1
8:45.383,189138,(,0,0,2
8:45.483,189174,t,0,0,0
8:45.569,189205,),0,0,2
8:46.050,189378,(,0,0,1
8:46.092,189393,N,0,0,0
8:46.128,189406,),0,0,1
8:46.772,189638,(,0,0,2
8:46.822,189656,t,0,0,0
8:46.878,189676,),0,0,2
8:47.833,190020,(,0,0,1
8:47.872,190034,N,0,0,0
8:47.928,190054,),0,0,1
8:48.067,190104,(,0,0,2
8:48.178,190144,t,0,0,0
8:48.258,190173,),0,0,2
8:48.744,190348,(,0,0,1
8:48.781,190361,N,0,0,0
8:48.817,190374,),0,0,1
8:49.467,190608,(,0,0,2
8:49.514,190625,t,0,0,0
8:49.567,190644,),0,0,2
8:50.519,190987,(,0,0,1
8:50.567,191004,N,0,0,0
8:50.603,191017,),0,0,1
8:50.756,191072,(,0,0,2
8:50.867,191112,t,0,0,0
8:50.944,191140,),0,0,2
8:51.444,191320,(,0,0,1
8:51.478,191332,N,0,0,0
8:51.514,191345,),0,0,1
8:51.683,191406,(,0,0,2
8:51.778,191440,t,0,0,0
8:51.858,191469,),0,0,2
8:52.319,191635,(,0,0,1
8:52.358,191649,N,0,0,0
8:52.394,191662,),0,0,1
8:52.567,191724,(,0,0,2
8:52.675,191763,t,0,0,0
8:52.758,191793,),0,0,2
8:53.186,191947,(,0,0,1
8:53.242,191967,N,0,0,0
8:53.278,191980,),0,0,1
8:53.453,192043,(,0,0,2
8:53.544,192076,t,0,0,0
8:53.622,192104,),0,0,2
8:54.108,192279,(,0,0,1
8:54.142,192291,N,0,0,0
8:54.197,192311,),0,0,1
8:54.339,192362,(,0,0,2
8:54.444,192400,t,0,0,0
8:54.531,192431,),0,0,2
8:55.000,192600,(,0,0,1
8:55.044,192616,N,0,0,0
8:55.100,192636,),0,0,1
8:55.250,192690,(,0,0,2
8:55.356,192728,t,0,0,0
8:55.436,192757,),0,0,2
8:55.906,192926,(,0,0,1
8:55.944,192940,N,0,0,0
8:55.981,192953,),0,0,1
8:56.142,193011,(,0,0,2
8:56.250,193050,t,0,0,0
8:56.331,193079,),0,0,2
8:56.811,193252,(,0,0,1
8:56.847,193265,N,0,0,0
8:56.900,193284,),0,0,1
8:57.047,193337,(,0,0,2
8:57.153,193375,t,0,0,0
8:57.233,193404,),0,0,2
8:57.714,193577,(,0,0,1
8:57.750,193590,N,0,0,0
8:57.786,193603,),0,0,1
8:57.942,193659,(,0,0,2
8:58.047,193697,t,0,0,0
8:58.125,193725,),0,0,2
8:58.586,193891,(,0,0,1
8:58.628,193906,N,0,0,0
8:58.664,193919,),0,0,1
8:58.831,193979,(,0,0,2
8:58.936,194017,t,0,0,0
8:59.019,194047,),0,0,2
8:59.456,194204,(,0,0,1
8:59.494,194218,N,0,0,0
8:59.553,194239,),0,0,1
8:59.697,194291,(,0,0,2
8:59.806,194330,t,0,0,0
8:59.894,194362,),0,0,2
9:00.319,194515,(,0,0,1
9:00.358,194529,N,0,0,0
9:00.394,194542,),0,0,1
9:00.556,194600,(,0,0,2
9:00.653,194635,t,0,0,0
9:00.733,194664,),0,0,2
9:01.181,194825,(,0,0,1
9:01.219,194839,N,0,0,0
9:01.275,194859,),0,0,1
9:01.411,194908,(,0,0,2
9:01.514,194945,t,0,0,0
9:01.597,194975,),0,0,2
9:02.056,195140,(,0,0,1
9:02.092,195153,N,0,0,0
9:02.128,195166,),0,0,1
9:02.294,195226,(,0,0,2
9:02.406,195266,t,0,0,0
9:02.489,195296,),0,0,2
9:02.950,195462,(,0,0,1
9:02.983,195474,N,0,0,0
9:03.019,195487,),0,0,1
9:03.183,195546,(,0,0,2
9:03.283,195582,t,0,0,0
9:03.367,195612,),0,0,2
9:03.797,195767,(,0,0,1
9:03.839,195782,N,0,0,0
9:03.875,195795,),0,0,1
9:04.036,195853,(,0,0,2
9:04.131,195887,t,0,0,0
9:04.211,195916,),0,0,2
9:04.706,196094,(,0,0,1
9:04.747,196109,N,0,0,0
9:04.783,196122,),0,0,1
9:04.867,196152,t,0,0,2
9:05.058,196221,),0,0,2
9:05.225,196281,(,0,0,1
9:05.306,196310,N,0,0,0
9:05.356,196328,),0,0,1
9:05.506,196382,(,0,0,2
9:05.561,196402,t,0,0,1
9:05.667,196440,),0,0,2
9:06.556,196760,(,0,0,1
9:06.594,196774,N,0,0,0
9:06.628,196786,),0,0,1
9:06.783,196842,(,0,0,2
9:06.906,196886,t,0,0,0
9:06.983,196914,),0,0,2
9:07.497,197099,(,0,0,1
9:07.539,197114,N,0,0,0
9:07.575,197127,),0,0,1
9:07.742,197187,(,0,0,2
9:07.842,197223,t,0,0,0
9:07.928,197254,),0,0,2
9:09.283,197742,(,0,0,1
9:09.322,197756,N,0,0,0
9:09.358,197769,),0,0,1
9:09.528,197830,(,0,0,2
9:09.628,197866,t,0,0,0
9:09.711,197896,),0,0,2
9:10.217,198078,(,0,0,1
9:10.253,198091,N,0,0,0
9:10.308,198111,),0,0,1
9:10.369,198133,t,0,0,2
9:10.547,198197,),0,0,2
9:12.064,198743,(,0,0,1
9:12.092,198753,N,0,0,0
9:12.147,198773,),0,0,1
9:12.297,198827,(,0,0,2
9:12.428,198874,t,0,0,0
9:12.503,198901,),0,0,2
9:13.036,199093,(,0,0,1
9:13.061,199102,N,0,0,0
9:13.117,199122,),0,0,1
9:13.256,199172,(,0,0,2
9:13.367,199212,t,0,0,0
9:13.453,199243,),0,0,2
9:13.958,199425,(,0,0,1
9:13.983,199434,N,0,0,0
9:14.039,199454,),0,0,1
9:14.167,199500,(,0,0,2
9:14.269,199537,t,0,0,0
9:14.356,199568,),0,0,2
9:14.853,199747,(,0,0,1
9:14.878,199756,N,0,0,0
9:14.900,199764,),0,0,1
9:15.075,199827,(,0,0,2
9:15.172,199862,t,0,0,0
9:15.256,199892,),0,0,2
9:15.761,200074,(,0,0,1
9:15.789,200084,N,0,0,0
9:15.811,200092,),0,0,1
9:16.264,200255,(,0,0,2
9:16.319,200275,t,0,0,0
9:16.403,200305,),0,0,2
9:17.636,200749,(,0,0,1
9:17.664,200759,N,0,0,0
9:17.717,200778,),0,0,1
9:17.861,200830,(,0,0,2
9:17.983,200874,t,0,0,0
9:18.058,200901,),0,0,2
9:18.586,201091,(,0,0,1
9:18.614,201101,N,0,0,0
9:18.639,201110,),0,0,1
9:19.314,201353,(,0,0,2
9:19.367,201372,t,0,0,0
9:19.417,201390,),0,0,2
9:19.717,201498,(,0,0,1
9:19.856,201548,N,0,0,0
9:19.956,201584,),0,0,1
9:20.406,201746,(,0,0,1
9:20.428,201754,N,0,0,0
9:20.453,201763,),0,0,1
9:20.642,201831,(,0,0,2
9:20.736,201865,t,0,0,0
9:20.822,201896,),0,0,2
9:21.314,202073,(,0,0,1
9:21.336,202081,N,0,0,0
9:21.361,202090,),0,0,1
9:21.469,202129,t,0,0,2
9:21.625,202185,),0,0,2
9:21.789,202244,(,0,0,1
9:21.861,202270,N,0,0,0
9:21.886,202279,),0,0,1
9:22.081,202349,(,0,0,2
9:22.136,202369,t,0,0,1
9:22.236,202405,),0,0,2
9:28.158,204537,(,0,0,1
9:28.222,204560,N,0,0,0
9:28.247,204569,),0,0,1
9:28.444,204640,(,0,0,2
9:28.494,204658,t,0,0,1
9:28.589,204692,),0,0,2
9:36.528,207550,(,0,0,1
9:36.589,207572,N,0,0,0
9:36.614,207581,),0,0,1
9:36.817,207654,(,0,0,2
9:36.869,207673,t,0,0,1
9:36.964,207707,),0,0,2
9:43.944,210220,(,0,0,1
9:44.008,210243,N,0,0,0
9:44.033,210252,),0,0,1
9:44.250,210330,(,0,0,2
9:44.303,210349,t,0,0,1
9:44.392,210381,),0,0,2
9:52.139,213170,(,0,0,1
9:52.197,213191,N,0,0,0
9:52.222,213200,),0,0,1
9:52.403,213265,(,0,0,2
9:52.467,213288,t,0,0,1
9:52.569,213325,),0,0,2
9:59.314,215753,(,0,0,1
9:59.369,215773,N,0,0,0
9:59.422,215792,),0,0,1
9:59.569,215845,(,0,0,2
9:59.631,215867,t,0,0,1
9:59.736,215905,),0,0,2
10:02.114,216761,(,0,0,1
10:02.169,216781,N,0,0,0
10:02.225,216801,),0,0,1
10:02.389,216860,(,0,0,2
10:02.439,216878,t,0,0,1
10:02.533,216912,),0,0,2
10:27.528,225910,(,0,0,1
10:27.589,225932,N,0,0,0
10:27.644,225952,),0,0,1
10:27.800,226008,(,0,0,2
10:27.856,226028,t,0,0,1
10:27.956,226064,),0,0,2
11:03.333,238800,(,0,0,1
11:03.361,238810,N,0,0,0
11:03.417,238830,),0,0,1
11:03.553,238879,(,0,0,2
11:03.653,238915,t,0,0,0
11:03.742,238947,),0,0,2
11:04.242,239127,(,0,0,1
11:04.267,239136,N,0,0,0
11:04.292,239145,),0,0,1
11:04.472,239210,(,0,0,2
11:04.572,239246,t,0,0,0
11:04.658,239277,),0,0,2
11:05.156,239456,(,0,0,1
11:05.181,239465,N,0,0,0
11:05.206,239474,),0,0,1
11:05.389,239540,(,0,0,2
11:05.489,239576,t,0,0,0
11:05.583,239610,),0,0,2
11:05.867,239712,(,0,0,0
11:05.883,239718,p,0,0,0
11:05.914,239729,),0,0,0
11:06.058,239781,(,0,0,1
11:06.086,239791,N,0,0,0
11:06.108,239799,),0,0,1
11:06.281,239861,(,0,0,2
11:06.381,239897,t,0,0,0
11:06.472,239930,),0,0,2
11:06.958,240105,(,0,0,1
11:06.986,240115,N,0,0,0
11:07.044,240136,),0,0,1
11:07.189,240188,(,0,0,2
11:07.294,240226,t,0,0,0
11:07.378,240256,),0,0,2
11:07.908,240447,(,0,0,1
11:07.933,240456,N,0,0,0
11:07.989,240476,),0,0,1
11:08.144,240532,(,0,0,2
11:08.250,240570,t,0,0,0
11:08.339,240602,),0,0,2
11:08.794,240766,(,0,0,1
11:08.822,240776,N,0,0,0
11:08.847,240785,),0,0,1
11:08.942,240819,t,0,0,2
11:09.117,240882,),0,0,2
11:09.292,240945,(,0,0,1
11:09.361,240970,N,0,0,0
11:09.386,240979,),0,0,1
11:09.583,241050,(,0,0,2
11:09.636,241069,t,0,0,1
11:09.731,241103,),0,0,2
11:10.689,241448,(,0,0,1
11:10.714,241457,N,0,0,0
11:10.739,241466,),0,0,1
11:10.911,241528,(,0,0,2
11:11.036,241573,t,0,0,0
11:11.111,241600,),0,0,2
11:11.603,241777,(,0,0,1
11:11.631,241787,N,0,0,0
11:11.686,241807,),0,0,1
11:11.772,241838,t,0,0,2
11:11.936,241897,),0,0,2
11:12.117,241962,(,0,0,1
11:12.172,241982,N,0,0,0
11:12.194,241990,),0,0,1
11:12.375,242055,(,0,0,2
11:12.431,242075,t,0,0,1
11:12.533,242112,),0,0,2
11:13.447,242441,(,0,0,1
11:13.469,242449,N,0,0,0
11:13.525,242469,),0,0,1
11:13.650,242514,(,0,0,2
11:13.794,242566,t,0,0,0
11:13.864,242591,),0,0,2
11:14.350,242766,(,0,0,1
11:14.375,242775,N,0,0,0
11:14.431,242795,),0,0,1
11:14.539,242834,t,0,0,2
11:14.672,242882,),0,0,2
11:14.856,242948,(,0,0,1
11:14.917,242970,N,0,0,0
11:14.972,242990,),0,0,1
11:15.139,243050,(,0,0,2
11:15.192,243069,t,0,0,1
11:15.289,243104,),0,0,2
11:16.181,243425,(,0,0,1
11:16.236,243445,N,0,0,0
11:16.292,243465,),0,0,1
11:16.431,243515,(,0,0,2
11:16.561,243562,t,0,0,0
11:16.633,243588,),0,0,2
11:17.094,243754,(,0,0,1
11:17.119,243763,N,0,0,0
11:17.142,243771,),0,0,1
11:17.319,243835,(,0,0,2
11:17.422,243872,t,0,0,0
11:17.508,243903,),0,0,2
11:18.017,244086,(,0,0,1
11:18.042,244095,N,0,0,0
11:18.097,244115,),0,0,1
11:18.233,244164,(,0,0,2
11:18.339,244202,t,0,0,0
11:18.425,244233,),0,0,2
11:18.897,244403,(,0,0,1
11:18.925,244413,N,0,0,0
11:18.950,244422,),0,0,1
11:19.139,244490,(,0,0,2
11:19.233,244524,t,0,0,0
11:19.322,244556,),0,0,2
11:19.750,244710,(,0,0,1
11:19.775,244719,N,0,0,0
11:19.800,244728,),0,0,1
11:19.972,244790,t,0,0,2
11:20.075,244827,),0,0,2
11:20.264,244895,(,0,0,1
11:20.322,244916,N,0,0,0
11:20.347,244925,),0,0,1
11:20.536,244993,(,0,0,2
11:20.592,245013,t,0,0,1
11:20.694,245050,),0,0,2
11:21.608,245379,(,0,0,1
11:21.639,245390,N,0,0,0
11:21.697,245411,),0,0,1
11:21.828,245458,(,0,0,2
11:21.956,245504,t,0,0,0
11:22.036,245533,),0,0,2
11:22.522,245708,(,0,0,1
11:22.547,245717,N,0,0,0
11:22.569,245725,),0,0,1
11:22.736,245785,t,0,0,2
11:22.853,245827,),0,0,2
11:23.033,245892,(,0,0,1
11:23.092,245913,N,0,0,0
11:23.117,245922,),0,0,1
11:23.311,245992,(,0,0,2
11:23.361,246010,t,0,0,1
11:23.458,246045,),0,0,2
11:24.375,246375,(,0,0,1
11:24.400,246384,N,0,0,0
11:24.456,246404,),0,0,1
11:24.592,246453,(,0,0,2
11:24.711,246496,t,0,0,0
11:24.794,246526,),0,0,2
11:25.267,246696,(,0,0,1
11:25.294,246706,N,0,0,0
11:25.319,246715,),0,0,1
11:25.489,246776,(,0,0,2
11:25.600,246816,t,0,0,0
11:25.683,246846,),0,0,2
11:26.164,247019,(,0,0,1
11:26.189,247028,N,0,0,0
11:26.214,247037,),0,0,1
11:26.403,247105,(,0,0,2
11:26.497,247139,t,0,0,0
11:26.586,247171,),0,0,2
11:27.047,247337,(,0,0,1
11:27.072,247346,N,0,0,0
11:27.097,247355,),0,0,1
11:27.264,247415,(,0,0,2
11:27.369,247453,t,0,0,0
11:27.453,247483,),0,0,2
11:27.931,247655,(,0,0,1
11:27.956,247664,N,0,0,0
11:28.014,247685,),0,0,1
11:28.064,247703,t,0,0,2
11:28.244,247768,),0,0,2
11:28.431,247835,(,0,0,1
11:28.483,247854,N,0,0,0
11:28.506,247862,),0,0,1
11:28.683,247926,(,0,0,2
11:28.750,247950,t,0,0,1
11:28.850,247986,),0,0,2
11:29.750,248310,(,0,0,1
11:29.778,248320,N,0,0,0
11:29.833,248340,),0,0,1
11:29.989,248396,(,0,0,2
11:30.100,248436,t,0,0,0
11:30.183,248466,),0,0,2
11:30.667,248640,(,0,0,1
11:30.692,248649,N,0,0,0
11:30.714,248657,),0,0,1
11:30.856,248708,t,0,0,2
11:30.986,248755,),0,0,2
11:31.172,248822,(,0,0,1
11:31.231,248843,N,0,0,0
11:31.286,248863,),0,0,1
11:31.433,248916,(,0,0,2
11:31.494,248938,t,0,0,1
11:31.597,248975,),0,0,2
11:32.494,249298,(,0,0,1
11:32.519,249307,N,0,0,0
11:32.542,249315,),0,0,1
11:32.731,249383,(,0,0,2
11:32.853,249427,t,0,0,0
11:32.933,249456,),0,0,2
11:33.436,249637,(,0,0,1
11:33.461,249646,N,0,0,0
11:33.486,249655,),0,0,1
11:33.675,249723,(,0,0,2
11:33.767,249756,t,0,0,0
11:33.853,249787,),0,0,2
11:34.347,249965,(,0,0,1
11:34.372,249974,N,0,0,0
11:34.397,249983,),0,0,1
11:34.567,250044,(,0,0,2
11:34.661,250078,t,0,0,0
11:34.750,250110,),0,0,2
11:35.200,250272,(,0,0,1
11:35.228,250282,N,0,0,0
11:35.253,250291,),0,0,1
11:35.425,250353,(,0,0,2
11:35.528,250390,t,0,0,0
11:35.606,250418,),0,0,2
11:36.083,250590,(,0,0,1
11:36.106,250598,N,0,0,0
11:36.131,250607,),0,0,1
11:36.308,250671,(,0,0,2
11:36.406,250706,t,0,0,0
11:36.492,250737,),0,0,2
11:36.978,250912,(,0,0,1
11:37.006,250922,N,0,0,0
11:37.031,250931,),0,0,1
11:37.203,250993,(,0,0,2
11:37.306,251030,t,0,0,0
11:37.392,251061,),0,0,2
11:37.861,251230,(,0,0,1
11:37.886,251239,N,0,0,0
11:37.942,251259,),0,0,1
11:38.089,251312,(,0,0,2
11:38.183,251346,t,0,0,0
11:38.264,251375,),0,0,2
11:38.742,251547,(,0,0,1
11:38.764,251555,N,0,0,0
11:38.789,251564,),0,0,1
11:38.975,251631,(,0,0,2
11:39.061,251662,t,0,0,0
11:39.147,251693,),0,0,2
11:39.639,251870,(,0,0,1
11:39.664,251879,N,0,0,0
11:39.722,251900,),0,0,1
11:39.869,251953,(,0,0,2
11:39.978,251992,t,0,0,0
11:40.067,252024,),0,0,2
11:40.539,252194,(,0,0,1
11:40.564,252203,N,0,0,0
11:40.586,252211,),0,0,1
11:40.767,252276,(,0,0,2
11:40.858,252309,t,0,0,0
11:40.947,252341,),0,0,2
11:41.436,252517,(,0,0,1
11:41.461,252526,N,0,0,0
11:41.486,252535,),0,0,1
11:41.664,252599,(,0,0,2
11:41.761,252634,t,0,0,0
11:41.842,252663,),0,0,2
11:42.311,252832,(,0,0,1
11:42.336,252841,N,0,0,0
11:42.403,252865,),0,0,1
11:42.547,252917,(,0,0,2
11:42.650,252954,t,0,0,0
11:42.733,252984,),0,0,2
11:43.206,253154,(,0,0,1
11:43.231,253163,N,0,0,0
11:43.253,253171,),0,0,1
11:43.436,253237,(,0,0,2
11:43.528,253270,t,0,0,0
11:43.614,253301,),0,0,2
11:43.889,253400,(,0,0,0
11:43.894,253402,p,0,0,0
11:43.939,253418,),0,0,0
11:44.081,253469,(,0,0,1
11:44.106,253478,N,0,0,0
11:44.128,253486,),0,0,1
11:44.308,253551,(,0,0,2
11:44.411,253588,t,0,0,0
11:44.492,253617,),0,0,2
11:44.994,253798,(,0,0,1
11:45.022,253808,N,0,0,0
11:45.078,253828,),0,0,1
11:45.233,253884,(,0,0,2
11:45.336,253921,t,0,0,0
11:45.419,253951,),0,0,2
11:45.906,254126,(,0,0,1
11:45.931,254135,N,0,0,0
11:45.983,254154,),0,0,1
11:46.111,254200,(,0,0,2
11:46.222,254240,t,0,0,0
11:46.314,254273,),0,0,2
11:46.761,254434,(,0,0,1
11:46.786,254443,N,0,0,0
11:46.808,254451,),0,0,1
11:46.983,254514,(,0,0,2
11:47.083,254550,t,0,0,0
11:47.169,254581,),0,0,2
11:47.681,254765,(,0,0,1
11:47.706,254774,N,0,0,0
11:47.731,254783,),0,0,1
11:47.833,254820,t,0,0,2
11:48.008,254883,),0,0,2
11:48.178,254944,(,0,0,1
11:48.239,254966,N,0,0,0
11:48.292,254985,),0,0,1
11:48.439,255038,(,0,0,2
11:48.500,255060,t,0,0,1
11:48.603,255097,),0,0,2
11:49.508,255423,(,0,0,1
11:49.531,255431,N,0,0,0
11:49.586,255451,),0,0,1
11:49.744,255508,(,0,0,2
11:49.850,255546,t,0,0,0
11:49.936,255577,),0,0,2
11:50.456,255764,(,0,0,1
11:50.478,255772,N,0,0,0
11:50.503,255781,),0,0,1
11:50.683,255846,(,0,0,2
11:50.786,255883,t,0,0,0
11:50.856,255908,),0,0,2
11:51.142,256011,(,0,0,0
11:51.158,256017,p,0,0,0
11:51.200,256032,),0,0,0
11:51.333,256080,(,0,0,1
11:51.361,256090,N,0,0,0
11:51.383,256098,),0,0,1
11:51.547,256157,(,0,0,2
11:51.653,256195,t,0,0,0
11:51.736,256225,),0,0,2
11:52.236,256405,(,0,0,1
11:52.264,256415,N,0,0,0
11:52.286,256423,),0,0,1
11:52.464,256487,(,0,0,2
11:52.575,256527,t,0,0,0
11:52.658,256557,),0,0,2
11:53.158,256737,(,0,0,1
11:53.183,256746,N,0,0,0
11:53.206,256754,),0,0,1
11:53.336,256801,t,0,0,2
11:53.483,256854,),0,0,2
11:53.653,256915,(,0,0,1
11:53.708,256935,N,0,0,0
11:53.761,256954,),0,0,1
11:53.911,257008,(,0,0,2
11:53.972,257030,t,0,0,1
11:54.075,257067,),0,0,2
11:55.003,257401,(,0,0,1
11:55.031,257411,N,0,0,0
11:55.086,257431,),0,0,1
11:55.242,257487,(,0,0,2
11:55.361,257530,t,0,0,0
11:55.433,257556,),0,0,2
11:55.953,257743,(,0,0,1
11:55.981,257753,N,0,0,0
11:56.006,257762,),0,0,1
11:56.186,257827,(,0,0,2
11:56.292,257865,t,0,0,0
11:56.372,257894,),0,0,2
11:56.831,258059,(,0,0,1
11:56.858,258069,N,0,0,0
11:56.911,258088,),0,0,1
11:57.047,258137,(,0,0,2
11:57.156,258176,t,0,0,0
11:57.242,258207,),0,0,2
11:57.706,258374,(,0,0,1
11:57.731,258383,N,0,0,0
11:57.753,258391,),0,0,1
11:57.917,258450,(,0,0,2
11:58.025,258489,t,0,0,0
11:58.108,258519,),0,0,2
11:58.578,258688,(,0,0,1
11:58.600,258696,N,0,0,0
11:58.656,258716,),0,0,1
11:58.739,258746,t,0,0,2
11:58.894,258802,),0,0,2
11:59.083,258870,(,0,0,1
11:59.136,258889,N,0,0,0
11:59.186,258907,),0,0,1
11:59.317,258954,(,0,0,2
11:59.394,258982,t,0,0,1
11:59.500,259020,),0,0,2
12:00.411,259348,(,0,0,1
12:00.436,259357,N,0,0,0
12:00.461,259366,),0,0,1
12:00.636,259429,(,0,0,2
12:00.747,259469,t,0,0,0
12:00.819,259495,),0,0,2
12:01.331,259679,(,0,0,1
12:01.356,259688,N,0,0,0
12:01.378,259696,),0,0,1
12:01.550,259758,(,0,0,2
12:01.653,259795,t,0,0,0
12:01.739,259826,),0,0,2
12:02.222,260000,(,0,0,1
12:02.247,260009,N,0,0,0
12:02.272,260018,),0,0,1
12:02.453,260083,(,0,0,2
12:02.564,260123,t,0,0,0
12:02.653,260155,),0,0,2
12:03.108,260319,(,0,0,1
12:03.133,260328,N,0,0,0
12:03.189,260348,),0,0,1
12:03.322,260396,(,0,0,2
12:03.428,260434,t,0,0,0
12:03.519,260467,),0,0,2
12:04.025,260649,(,0,0,1
12:04.047,260657,N,0,0,0
12:04.069,260665,),0,0,1
12:04.231,260723,t,0,0,2
12:04.336,260761,),0,0,2
12:04.506,260822,(,0,0,1
12:04.564,260843,N,0,0,0
12:04.619,260863,),0,0,1
12:04.778,260920,(,0,0,2
12:04.836,260941,t,0,0,1
12:04.939,260978,),0,0,2
12:05.867,261312,(,0,0,1
12:05.892,261321,N,0,0,0
12:05.914,261329,),0,0,1
12:06.089,261392,(,0,0,2
12:06.211,261436,t,0,0,0
12:06.289,261464,),0,0,2
12:07.750,261990,(,0,0,1
12:07.778,262000,N,0,0,0
12:07.803,262009,),0,0,1
12:07.969,262069,(,0,0,2
12:08.075,262107,t,0,0,0
12:08.161,262138,),0,0,2
12:08.656,262316,(,0,0,1
12:08.681,262325,N,0,0,0
12:08.706,262334,),0,0,1
12:08.872,262394,(,0,0,2
12:08.981,262433,t,0,0,0
12:09.067,262464,),0,0,2
12:10.492,262977,(,0,0,1
12:10.517,262986,N,0,0,0
12:10.539,262994,),0,0,1
12:10.675,263043,t,0,0,2
12:10.811,263092,),0,0,2
12:10.989,263156,(,0,0,1
12:11.050,263178,N,0,0,0
12:11.103,263197,),0,0,1
12:11.264,263255,(,0,0,2
12:11.319,263275,t,0,0,1
12:11.417,263310,),0,0,2
12:12.356,263648,(,0,0,1
12:12.381,263657,N,0,0,0
12:12.433,263676,),0,0,1
12:12.583,263730,(,0,0,2
12:12.700,263772,t,0,0,0
12:12.781,263801,),0,0,2
12:13.258,263973,(,0,0,1
12:13.283,263982,N,0,0,0
12:13.339,264002,),0,0,1
12:13.394,264022,t,0,0,2
12:13.581,264089,),0,0,2
12:13.758,264153,(,0,0,1
12:13.814,264173,N,0,0,0
12:13.867,264192,),0,0,1
12:14.031,264251,(,0,0,2
12:14.083,264270,t,0,0,1
12:14.181,264305,),0,0,2
12:16.039,264974,(,0,0,1
12:16.064,264983,N,0,0,0
12:16.089,264992,),0,0,1
12:16.186,265027,t,0,0,2
12:16.361,265090,),0,0,2
12:16.536,265153,(,0,0,1
12:16.594,265174,N,0,0,0
12:16.644,265192,),0,0,1
12:16.806,265250,(,0,0,2
12:16.858,265269,t,0,0,1
12:16.961,265306,),0,0,2
12:17.900,265644,(,0,0,1
12:17.925,265653,N,0,0,0
12:17.983,265674,),0,0,1
12:18.153,265735,t,0,0,2
12:18.244,265768,),0,0,2
12:18.422,265832,(,0,0,1
12:18.481,265853,N,0,0,0
12:18.506,265862,),0,0,1
12:18.628,265906,(,0,0,2
12:18.769,265957,t,0,0,1
12:18.853,265987,),0,0,2
12:20.717,266658,(,0,0,1
12:20.742,266667,N,0,0,0
12:20.767,266676,),0,0,1
12:20.922,266732,(,0,0,2
12:21.044,266776,t,0,0,0
12:21.125,266805,),0,0,2
12:21.639,266990,(,0,0,1
12:21.667,267000,N,0,0,0
12:21.692,267009,),0,0,1
12:21.858,267069,(,0,0,2
12:21.972,267110,t,0,0,0
12:22.061,267142,),0,0,2
12:22.581,267329,(,0,0,1
12:22.608,267339,N,0,0,0
12:22.631,267347,),0,0,1
12:22.803,267409,(,0,0,2
12:22.903,267445,t,0,0,0
12:22.992,267477,),0,0,2
12:23.458,267645,(,0,0,1
12:23.483,267654,N,0,0,0
12:23.506,267662,),0,0,1
12:23.619,267703,t,0,0,2
12:23.775,267759,),0,0,2
12:23.942,267819,(,0,0,1
12:24.014,267845,N,0,0,0
12:24.039,267854,),0,0,1
12:24.233,267924,(,0,0,2
12:24.289,267944,t,0,0,1
12:24.389,267980,),0,0,2
12:25.833,268500,(,0,0,1
12:25.892,268521,N,0,0,0
12:25.942,268539,),0,0,1
12:26.094,268594,(,0,0,2
12:26.156,268616,t,0,0,1
12:26.256,268652,),0,0,2
12:28.967,269628,(,0,0,1
12:28.992,269637,N,0,0,0
12:29.017,269646,),0,0,1
12:29.094,269674,t,0,0,2
12:29.289,269744,),0,0,2
12:29.475,269811,(,0,0,1
12:29.533,269832,N,0,0,0
12:29.589,269852,),0,0,1
12:29.750,269910,(,0,0,2
12:29.808,269931,t,0,0,1
12:29.911,269968,),0,0,2
12:31.317,270474,(,0,0,1
12:31.383,270498,N,0,0,0
12:31.431,270515,),0,0,1
12:31.575,270567,(,0,0,2
12:31.642,270591,t,0,0,1
12:31.756,270632,),0,0,2
12:32.683,270966,(,0,0,1
12:32.708,270975,N,0,0,0
12:32.769,270997,),0,0,1
12:32.906,271046,(,0,0,2
12:33.033,271092,t,0,0,0
12:33.117,271122,),0,0,2
12:34.489,271616,(,0,0,1
12:34.517,271626,N,0,0,0
12:34.572,271646,),0,0,1
12:34.711,271696,(,0,0,2
12:34.814,271733,t,0,0,0
12:34.894,271762,),0,0,2
12:35.389,271940,(,0,0,1
12:35.417,271950,N,0,0,0
12:35.442,271959,),0,0,1
12:35.617,272022,(,0,0,2
12:35.717,272058,t,0,0,0
12:35.800,272088,),0,0,2
12:37.206,272594,(,0,0,1
12:37.231,272603,N,0,0,0
12:37.253,272611,),0,0,1
12:37.339,272642,t,0,0,2
12:37.522,272708,),0,0,2
12:37.700,272772,(,0,0,1
12:37.758,272793,N,0,0,0
12:37.808,272811,),0,0,1
12:37.964,272867,(,0,0,2
12:38.019,272887,t,0,0,1
12:38.125,272925,),0,0,2
12:39.961,273586,(,0,0,1
12:39.989,273596,N,0,0,0
12:40.014,273605,),0,0,1
12:40.133,273648,t,0,0,2
12:40.289,273704,),0,0,2
12:40.458,273765,(,0,0,1
12:40.528,273790,N,0,0,0
12:40.553,273799,),0,0,1
12:40.744,273868,(,0,0,2
12:40.800,273888,t,0,0,1
12:40.897,273923,),0,0,2
12:42.706,274574,(,0,0,1
12:42.731,274583,N,0,0,0
12:42.786,274603,),0,0,1
12:42.842,274623,t,0,0,2
12:43.025,274689,),0,0,2
12:43.197,274751,(,0,0,1
12:43.264,274775,N,0,0,0
12:43.286,274783,),0,0,1
12:43.469,274849,(,0,0,2
12:43.531,274871,t,0,0,1
12:43.633,274908,),0,0,2
12:45.958,275745,(,0,0,1
12:46.019,275767,N,0,0,0
12:46.072,275786,),0,0,1
12:46.233,275844,(,0,0,2
12:46.286,275863,t,0,0,1
12:46.389,275900,),0,0,2
12:47.306,276230,(,0,0,1
12:47.333,276240,N,0,0,0
12:47.389,276260,),0,0,1
12:47.564,276323,t,0,0,2
12:47.650,276354,),0,0,2
12:47.836,276421,(,0,0,1
12:47.894,276442,N,0,0,0
12:47.919,276451,),0,0,1
12:48.125,276525,(,0,0,2
12:48.175,276543,t,0,0,1
12:48.267,276576,),0,0,2
12:49.694,277090,(,0,0,1
12:49.753,277111,N,0,0,0
12:49.800,277128,),0,0,1
12:49.944,277180,(,0,0,2
12:50.011,277204,t,0,0,1
12:50.119,277243,),0,0,2
12:52.800,278208,(,0,0,1
12:52.825,278217,N,0,0,0
12:52.847,278225,),0,0,1
12:53.025,278289,(,0,0,2
12:53.119,278323,t,0,0,0
12:53.194,278350,),0,0,2
12:53.300,278388,(,0,0,1
12:53.358,278409,N,0,0,0
12:53.411,278428,),0,0,1
12:53.556,278480,(,0,0,2
12:53.619,278503,t,0,0,1
12:53.725,278541,),0,0,2
12:55.564,279203,(,0,0,1
12:55.589,279212,N,0,0,0
12:55.611,279220,),0,0,1
12:55.783,279282,(,0,0,2
12:55.878,279316,t,0,0,0
12:55.956,279344,),0,0,2
12:57.408,279867,(,0,0,1
12:57.433,279876,N,0,0,0
12:57.492,279897,),0,0,1
12:57.633,279948,(,0,0,2
12:57.758,279993,t,0,0,0
12:57.833,280020,),0,0,2
12:58.311,280192,(,0,0,1
12:58.339,280202,N,0,0,0
12:58.361,280210,),0,0,1
12:58.481,280253,t,0,0,2
12:58.639,280310,),0,0,2
12:58.822,280376,(,0,0,1
12:58.881,280397,N,0,0,0
12:58.933,280416,),0,0,1
12:59.106,280478,(,0,0,2
12:59.161,280498,t,0,0,1
12:59.258,280533,),0,0,2
13:00.181,280865,(,0,0,1
13:00.208,280875,N,0,0,0
13:00.264,280895,),0,0,1
13:00.392,280941,(,0,0,2
13:00.525,280989,t,0,0,0
13:00.603,281017,),0,0,2
13:01.078,281188,(,0,0,1
13:01.106,281198,N,0,0,0
13:01.164,281219,),0,0,1
13:01.247,281249,t,0,0,2
13:01.414,281309,),0,0,2
13:01.597,281375,(,0,0,1
13:01.656,281396,N,0,0,0
13:01.681,281405,),0,0,1
13:01.864,281471,(,0,0,2
13:01.919,281491,t,0,0,1
13:02.022,281528,),0,0,2
13:02.922,281852,(,0,0,1
13:02.947,281861,N,0,0,0
13:03.003,281881,),0,0,1
13:03.136,281929,(,0,0,2
13:03.253,281971,t,0,0,0
13:03.331,281999,),0,0,2
13:03.822,282176,(,0,0,1
13:03.850,282186,N,0,0,0
13:03.906,282206,),0,0,1
13:03.994,282238,t,0,0,2
13:04.147,282293,),0,0,2
13:04.331,282359,(,0,0,1
13:04.383,282378,N,0,0,0
13:04.436,282397,),0,0,1
13:04.583,282450,(,0,0,2
13:04.647,282473,t,0,0,1
13:04.756,282512,),0,0,2
13:06.142,283011,(,0,0,1
13:06.211,283036,N,0,0,0
13:06.261,283054,),0,0,1
13:06.425,283113,(,0,0,2
13:06.483,283134,t,0,0,1
13:06.589,283172,),0,0,2
13:07.986,283675,(,0,0,1
13:08.044,283696,N,0,0,0
13:08.092,283713,),0,0,1
13:08.231,283763,(,0,0,2
13:08.303,283789,t,0,0,1
13:08.419,283831,),0,0,2
13:09.319,284155,(,0,0,1
13:09.344,284164,N,0,0,0
13:09.400,284184,),0,0,1
13:09.556,284240,(,0,0,2
13:09.664,284279,t,0,0,0
13:09.744,284308,),0,0,2
13:11.214,284837,(,0,0,1
13:11.242,284847,N,0,0,0
13:11.300,284868,),0,0,1
13:11.444,284920,(,0,0,2
13:11.553,284959,t,0,0,0
13:11.636,284989,),0,0,2
13:12.172,285182,(,0,0,1
13:12.194,285190,N,0,0,0
13:12.253,285211,),0,0,1
13:12.400,285264,(,0,0,2
13:12.500,285300,t,0,0,0
13:12.586,285331,),0,0,2
13:13.072,285506,(,0,0,1
13:13.097,285515,N,0,0,0
13:13.153,285535,),0,0,1
13:13.306,285590,(,0,0,2
13:13.397,285623,t,0,0,0
13:13.500,285660,),0,0,2
13:13.967,285828,(,0,0,1
13:13.994,285838,N,0,0,0
13:14.019,285847,),0,0,1
13:14.183,285906,(,0,0,2
13:14.283,285942,t,0,0,0
13:14.369,285973,),0,0,2
13:14.875,286155,(,0,0,1
13:14.900,286164,N,0,0,0
13:14.925,286173,),0,0,1
13:15.053,286219,t,0,0,2
13:15.189,286268,),0,0,2
13:15.367,286332,(,0,0,1
13:15.417,286350,N,0,0,0
13:15.514,286385,),0,0,1
13:15.633,286428,(,0,0,2
13:15.686,286447,t,0,0,1
13:15.783,286482,),0,0,2
13:16.733,286824,(,0,0,1
13:16.758,286833,N,0,0,0
13:16.814,286853,),0,0,1
13:16.961,286906,(,0,0,2
13:17.075,286947,t,0,0,0
13:17.167,286980,),0,0,2
13:17.692,287169,(,0,0,1
13:17.719,287179,N,0,0,0
13:17.772,287198,),0,0,1
13:17.903,287245,(,0,0,2
13:18.006,287282,t,0,0,0
13:18.086,287311,),0,0,2
13:18.586,287491,(,0,0,1
13:18.614,287501,N,0,0,0
13:18.672,287522,),0,0,1
13:18.808,287571,(,0,0,2
13:18.919,287611,t,0,0,0
13:19.008,287643,),0,0,2
13:19.481,287813,(,0,0,1
13:19.506,287822,N,0,0,0
13:19.531,287831,),0,0,1
13:19.711,287896,(,0,0,2
13:19.811,287932,t,0,0,0
13:19.900,287964,),0,0,2
13:20.408,288147,(,0,0,1
13:20.433,288156,N,0,0,0
13:20.458,288165,),0,0,1
13:20.647,288233,(,0,0,2
13:20.739,288266,t,0,0,0
13:20.831,288299,),0,0,2
13:21.325,288477,(,0,0,1
13:21.350,288486,N,0,0,0
13:21.375,288495,),0,0,1
13:21.561,288562,(,0,0,2
13:21.647,288593,t,0,0,0
13:21.733,288624,),0,0,2
13:22.197,288791,(,0,0,1
13:22.222,288800,N,0,0,0
13:22.278,288820,),0,0,1
13:22.419,288871,(,0,0,2
13:22.519,288907,t,0,0,0
13:22.603,288937,),0,0,2
13:23.108,289119,(,0,0,1
13:23.133,289128,N,0,0,0
13:23.156,289136,),0,0,1
13:23.339,289202,(,0,0,2
13:23.444,289240,t,0,0,0
13:23.539,289274,),0,0,2
13:24.019,289447,(,0,0,1
13:24.044,289456,N,0,0,0
13:24.069,289465,),0,0,1
13:24.244,289528,(,0,0,2
13:24.347,289565,t,0,0,0
13:24.436,289597,),0,0,2
13:24.928,289774,(,0,0,1
13:24.953,289783,N,0,0,0
13:25.008,289803,),0,0,1
13:25.150,289854,(,0,0,2
13:25.250,289890,t,0,0,0
13:25.331,289919,),0,0,2
13:25.828,290098,(,0,0,1
13:25.853,290107,N,0,0,0
13:25.908,290127,),0,0,1
13:26.064,290183,(,0,0,2
13:26.158,290217,t,0,0,0
13:26.244,290248,),0,0,2
13:26.714,290417,(,0,0,1
13:26.739,290426,N,0,0,0
13:26.794,290446,),0,0,1
13:26.931,290495,(,0,0,2
13:27.036,290533,t,0,0,0
13:27.119,290563,),0,0,2
13:27.594,290734,(,0,0,1
13:27.619,290743,N,0,0,0
13:27.644,290752,),0,0,1
13:27.825,290817,(,0,0,2
13:27.925,290853,t,0,0,0
13:28.008,290883,),0,0,2
13:28.519,291067,(,0,0,1
13:28.544,291076,N,0,0,0
13:28.567,291084,),0,0,1
13:28.750,291150,(,0,0,2
13:28.850,291186,t,0,0,0
13:28.936,291217,),0,0,2
13:29.381,291377,(,0,0,1
13:29.406,291386,N,0,0,0
13:29.428,291394,),0,0,1
13:29.600,291456,(,0,0,2
13:29.700,291492,t,0,0,0
13:29.786,291523,),0,0,2
13:30.250,291690,(,0,0,1
13:30.275,291699,N,0,0,0
13:30.300,291708,),0,0,1
13:30.478,291772,(,0,0,2
13:30.575,291807,t,0,0,0
13:30.653,291835,),0,0,2
13:31.181,292025,(,0,0,1
13:31.206,292034,N,0,0,0
13:31.258,292053,),0,0,1
13:31.408,292107,(,0,0,2
13:31.503,292141,t,0,0,0
13:31.589,292172,),0,0,2
13:32.053,292339,(,0,0,1
13:32.078,292348,N,0,0,0
13:32.103,292357,),0,0,1
13:32.275,292419,(,0,0,2
13:32.386,292459,t,0,0,0
13:32.472,292490,),0,0,2
13:32.922,292652,(,0,0,1
13:32.944,292660,N,0,0,0
13:32.967,292668,),0,0,1
13:33.144,292732,(,0,0,2
13:33.244,292768,t,0,0,0
13:33.331,292799,),0,0,2
13:33.839,292982,(,0,0,1
13:33.864,292991,N,0,0,0
13:33.917,293010,),0,0,1
13:34.064,293063,(,0,0,2
13:34.156,293096,t,0,0,0
13:34.239,293126,),0,0,2
13:34.675,293283,(,0,0,1
13:34.728,293302,N,0,0,0
13:34.753,293311,),0,0,1
13:34.917,293370,(,0,0,2
13:35.031,293411,t,0,0,0
13:35.117,293442,),0,0,2
13:35.597,293615,(,0,0,1
13:35.622,293624,N,0,0,0
13:35.647,293633,),0,0,1
13:35.825,293697,(,0,0,2
13:35.931,293735,t,0,0,0
13:36.017,293766,),0,0,2
13:36.517,293946,(,0,0,1
13:36.539,293954,N,0,0,0
13:36.561,293962,),0,0,1
13:36.642,293991,t,0,0,2
13:36.828,294058,),0,0,2
13:36.992,294117,(,0,0,1
13:37.061,294142,N,0,0,0
13:37.111,294160,),0,0,1
13:37.258,294213,(,0,0,2
13:37.319,294235,t,0,0,1
13:37.422,294272,),0,0,2
13:38.333,294600,(,0,0,1
13:38.361,294610,N,0,0,0
13:38.419,294631,),0,0,1
13:38.572,294686,(,0,0,2
13:38.694,294730,t,0,0,0
13:38.778,294760,),0,0,2
13:39.286,294943,(,0,0,1
13:39.311,294952,N,0,0,0
13:39.367,294972,),0,0,1
13:39.517,295026,(,0,0,2
13:39.619,295063,t,0,0,0
13:39.697,295091,),0,0,2
13:40.172,295262,(,0,0,1
13:40.197,295271,N,0,0,0
13:40.219,295279,),0,0,1
13:40.383,295338,(,0,0,2
13:40.489,295376,t,0,0,0
13:40.569,295405,),0,0,2
13:41.069,295585,(,0,0,1
13:41.103,295597,N,0,0,0
13:41.158,295617,),0,0,1
13:41.294,295666,(,0,0,2
13:41.397,295703,t,0,0,0
13:41.478,295732,),0,0,2
13:41.975,295911,(,0,0,1
13:42.000,295920,N,0,0,0
13:42.058,295941,),0,0,1
13:42.206,295994,(,0,0,2
13:42.300,296028,t,0,0,0
13:42.389,296060,),0,0,2
13:42.858,296229,(,0,0,1
13:42.883,296238,N,0,0,0
13:42.908,296247,),0,0,1
13:43.042,296295,t,0,0,2
13:43.189,296348,),0,0,2
13:43.361,296410,(,0,0,1
13:43.428,296434,N,0,0,0
13:43.453,296443,),0,0,1
13:43.667,296520,(,0,0,2
13:43.717,296538,t,0,0,1
13:43.811,296572,),0,0,2
13:44.747,296909,(,0,0,1
13:44.775,296919,N,0,0,0
13:44.831,296939,),0,0,1
13:44.894,296962,t,0,0,2
13:45.086,297031,),0,0,2
13:45.256,297092,(,0,0,1
13:45.314,297113,N,0,0,0
13:45.364,297131,),0,0,1
13:45.517,297186,(,0,0,2
13:45.581,297209,t,0,0,1
13:45.686,297247,),0,0,2
13:47.567,297924,(,0,0,1
13:47.592,297933,N,0,0,0
13:47.628,297946,),0,0,1
13:47.772,297998,(,0,0,2
13:47.883,298038,t,0,0,0
13:47.958,298065,),0,0,2
13:48.269,298177,(,0,0,0
13:48.314,298193,p,0,0,0
13:48.369,298213,),0,0,0
13:48.447,298241,(,0,0,1
13:48.475,298251,N,0,0,0
13:48.511,298264,),0,0,1
13:48.619,298303,t,0,0,2
13:48.764,298355,),0,0,2
13:48.936,298417,(,0,0,1
13:48.994,298438,N,0,0,0
13:49.064,298463,),0,0,1
13:49.211,298516,(,0,0,2
13:49.264,298535,t,0,0,1
13:49.358,298569,),0,0,2
13:50.017,298806,(,0,0,0
13:50.128,298846,p,0,0,0
13:50.194,298870,),0,0,0
13:50.314,298913,(,0,0,1
13:50.342,298923,N,0,0,0
13:50.364,298931,),0,0,1
13:50.486,298975,t,0,0,2
13:50.656,299036,),0,0,2
13:50.836,299101,(,0,0,1
13:50.897,299123,N,0,0,0
13:50.964,299147,),0,0,1
13:51.117,299202,(,0,0,2
13:51.167,299220,t,0,0,1
13:51.267,299256,),0,0,2
13:51.914,299489,(,0,0,0
13:51.994,299518,p,0,0,0
13:52.067,299544,),0,0,0
13:52.183,299586,(,0,0,1
13:52.208,299595,N,0,0,0
13:52.244,299608,),0,0,1
13:52.417,299670,(,0,0,2
13:52.528,299710,t,0,0,0
13:52.603,299737,),0,0,2
13:53.114,299921,(,0,0,1
13:53.142,299931,N,0,0,0
13:53.178,299944,),0,0,1
13:53.356,300008,(,0,0,2
13:53.458,300045,t,0,0,0
13:53.542,300075,),0,0,2
13:54.014,300245,(,0,0,1
13:54.039,300254,N,0,0,0
13:54.078,300268,),0,0,1
13:54.183,300306,t,0,0,2
13:54.336,300361,),0,0,2
13:54.511,300424,(,0,0,1
13:54.575,300447,N,0,0,0
13:54.644,300472,),0,0,1
13:54.803,300529,(,0,0,2
13:54.856,300548,t,0,0,1
13:54.944,300580,),0,0,2
13:55.578,300808,(,0,0,0
13:55.636,300829,p,0,0,0
13:55.747,300869,),0,0,0
13:55.867,300912,(,0,0,1
13:55.894,300922,N,0,0,0
13:55.933,300936,),0,0,1
13:56.083,300990,(,0,0,2
13:56.217,301038,t,0,0,0
13:56.294,301066,),0,0,2
13:56.811,301252,(,0,0,1
13:56.839,301262,N,0,0,0
13:56.875,301275,),0,0,1
13:57.022,301328,t,0,0,2
13:57.139,301370,),0,0,2
13:57.308,301431,(,0,0,1
13:57.372,301454,N,0,0,0
13:57.444,301480,),0,0,1
13:57.597,301535,(,0,0,2
13:57.650,301554,t,0,0,1
13:57.733,301584,),0,0,2
13:58.533,301872,(,0,0,0
13:58.578,301888,p,0,0,0
13:58.619,301903,),0,0,0
13:58.681,301925,(,0,0,1
13:58.714,301937,N,0,0,0
13:58.750,301950,),0,0,1
13:58.861,301990,t,0,0,2
13:59.025,302049,),0,0,2
13:59.194,302110,(,0,0,1
13:59.253,302131,N,0,0,0
13:59.319,302155,),0,0,1
13:59.375,302175,(,0,0,2
13:59.528,302230,t,0,0,1
13:59.617,302262,),0,0,2
14:00.556,302600,(,0,0,1
14:00.583,302610,N,0,0,0
14:00.619,302623,),0,0,1
14:00.803,302689,(,0,0,2
14:00.911,302728,t,0,0,0
14:00.992,302757,),0,0,2
14:01.467,302928,(,0,0,1
14:01.492,302937,N,0,0,0
14:01.517,302946,),0,0,1
14:01.686,303007,(,0,0,2
14:01.797,303047,t,0,0,0
14:01.881,303077,),0,0,2
14:02.344,303244,(,0,0,1
14:02.369,303253,N,0,0,0
14:02.406,303266,),0,0,1
14:02.564,303323,(,0,0,2
14:02.658,303357,t,0,0,0
14:02.736,303385,),0,0,2
14:03.044,303496,(,0,0,0
14:03.092,303513,p,0,0,0
14:03.147,303533,),0,0,0
14:03.228,303562,(,0,0,1
14:03.253,303571,N,0,0,0
14:03.289,303584,),0,0,1
14:03.450,303642,(,0,0,2
14:03.550,303678,t,0,0,0
14:03.628,303706,),0,0,2
14:03.928,303814,(,0,0,0
14:03.967,303828,p,0,0,0
14:04.031,303851,),0,0,0
14:04.100,303876,(,0,0,1
14:04.128,303886,N,0,0,0
14:04.150,303894,),0,0,1
14:04.328,303958,(,0,0,2
14:04.422,303992,t,0,0,0
14:04.508,304023,),0,0,2
14:04.969,304189,(,0,0,1
14:04.992,304197,N,0,0,0
14:05.028,304210,),0,0,1
14:05.194,304270,(,0,0,2
14:05.294,304306,t,0,0,0
14:05.375,304335,),0,0,2
14:05.711,304456,(,0,0,0
14:05.758,304473,p,0,0,0
14:05.808,304491,),0,0,0
14:05.894,304522,(,0,0,1
14:05.919,304531,N,0,0,0
14:05.956,304544,),0,0,1
14:06.133,304608,(,0,0,2
14:06.217,304638,t,0,0,0
14:06.294,304666,),0,0,2
14:06.617,304782,(,0,0,0
14:06.661,304798,p,0,0,0
14:06.706,304814,),0,0,0
14:06.800,304848,(,0,0,1
14:06.825,304857,N,0,0,0
14:06.861,304870,),0,0,1
14:07.019,304927,(,0,0,2
14:07.125,304965,t,0,0,0
14:07.211,304996,),0,0,2
14:07.506,305102,(,0,0,0
14:07.550,305118,p,0,0,0
14:07.597,305135,),0,0,0
14:07.689,305168,(,0,0,1
14:07.717,305178,N,0,0,0
14:07.756,305192,),0,0,1
14:07.942,305259,(,0,0,2
14:08.031,305291,t,0,0,0
14:08.111,305320,),0,0,2
14:08.472,305450,(,0,0,0
14:08.517,305466,p,0,0,0
14:08.567,305484,),0,0,0
14:08.653,305515,(,0,0,1
14:08.678,305524,N,0,0,0
14:08.717,305538,),0,0,1
14:08.881,305597,(,0,0,2
14:08.978,305632,t,0,0,0
14:09.064,305663,),0,0,2
14:09.581,305849,(,0,0,1
14:09.606,305858,N,0,0,0
14:09.644,305872,),0,0,1
14:09.806,305930,(,0,0,2
14:09.892,305961,t,0,0,0
14:09.972,305990,),0,0,2
14:10.281,306101,(,0,0,0
14:10.328,306118,p,0,0,0
14:10.378,306136,),0,0,0
14:10.472,306170,(,0,0,1
14:10.497,306179,N,0,0,0
14:10.522,306188,),0,0,1
14:10.711,306256,(,0,0,2
14:10.806,306290,t,0,0,0
14:10.886,306319,),0,0,2
14:11.225,306441,(,0,0,0
14:11.269,306457,p,0,0,0
14:11.314,306473,),0,0,0
14:11.411,306508,(,0,0,1
14:11.439,306518,N,0,0,0
14:11.475,306531,),0,0,1
14:11.639,306590,(,0,0,2
14:11.736,306625,t,0,0,0
14:11.817,306654,),0,0,2
14:12.131,306767,(,0,0,0
14:12.178,306784,p,0,0,0
14:12.228,306802,),0,0,0
14:12.317,306834,(,0,0,1
14:12.342,306843,N,0,0,0
14:12.378,306856,),0,0,1
14:12.542,306915,(,0,0,2
14:12.636,306949,t,0,0,0
14:12.719,306979,),0,0,2
14:13.053,307099,(,0,0,0
14:13.094,307114,p,0,0,0
14:13.144,307132,),0,0,0
14:13.236,307165,(,0,0,1
14:13.261,307174,N,0,0,0
14:13.297,307187,),0,0,1
14:13.467,307248,(,0,0,2
14:13.561,307282,t,0,0,0
14:13.639,307310,),0,0,2
14:13.972,307430,(,0,0,0
14:14.011,307444,p,0,0,0
14:14.058,307461,),0,0,0
14:14.147,307493,(,0,0,1
14:14.169,307501,N,0,0,0
14:14.206,307514,),0,0,1
14:14.372,307574,(,0,0,2
14:14.467,307608,t,0,0,0
14:14.544,307636,),0,0,2
14:14.842,307743,(,0,0,0
14:14.881,307757,p,0,0,0
14:14.933,307776,),0,0,0
14:15.019,307807,(,0,0,1
14:15.047,307817,N,0,0,0
14:15.086,307831,),0,0,1
14:15.203,307873,t,0,0,2
14:15.347,307925,),0,0,2
14:15.533,307992,(,0,0,1
14:15.594,308014,N,0,0,0
14:15.667,308040,),0,0,1
14:15.825,308097,(,0,0,2
14:15.875,308115,t,0,0,1
14:15.967,308148,),0,0,2
14:16.664,308399,(,0,0,0
14:16.725,308421,p,0,0,0
14:16.792,308445,),0,0,0
14:16.914,308489,(,0,0,1
14:16.939,308498,N,0,0,0
14:16.975,308511,),0,0,1
14:17.147,308573,(,0,0,2
14:17.244,308608,t,0,0,0
14:17.314,308633,),0,0,2
14:17.628,308746,(,0,0,0
14:17.669,308761,p,0,0,0
14:17.719,308779,),0,0,0
14:17.808,308811,(,0,0,1
14:17.836,308821,N,0,0,0
14:17.875,308835,),0,0,1
14:18.042,308895,(,0,0,2
14:18.142,308931,t,0,0,0
14:18.219,308959,),0,0,2
14:18.547,309077,(,0,0,0
14:18.589,309092,p,0,0,0
14:18.644,309112,),0,0,0
14:18.725,309141,(,0,0,1
14:18.753,309151,N,0,0,0
14:18.789,309164,),0,0,1
14:18.956,309224,(,0,0,2
14:19.056,309260,t,0,0,0
14:19.136,309289,),0,0,2
14:19.650,309474,(,0,0,1
14:19.672,309482,N,0,0,0
14:19.708,309495,),0,0,1
14:19.878,309556,(,0,0,2
14:19.981,309593,t,0,0,0
14:20.061,309622,),0,0,2
14:20.364,309731,(,0,0,0
14:20.406,309746,p,0,0,0
14:20.453,309763,),0,0,0
14:20.550,309798,(,0,0,1
14:20.575,309807,N,0,0,0
14:20.611,309820,),0,0,1
14:20.772,309878,(,0,0,2
14:20.872,309914,t,0,0,0
14:20.953,309943,),0,0,2
14:21.425,310113,(,0,0,1
14:21.453,310123,N,0,0,0
14:21.492,310137,),0,0,1
14:21.664,310199,(,0,0,2
14:21.753,310231,t,0,0,0
14:21.839,310262,),0,0,2
14:22.314,310433,(,0,0,1
14:22.339,310442,N,0,0,0
14:22.364,310451,),0,0,1
14:22.536,310513,(,0,0,2
14:22.653,310555,t,0,0,0
14:22.739,310586,),0,0,2
14:23.042,310695,(,0,0,0
14:23.081,310709,p,0,0,0
14:23.133,310728,),0,0,0
14:23.219,310759,(,0,0,1
14:23.242,310767,N,0,0,0
14:23.264,310775,),0,0,1
14:23.444,310840,(,0,0,2
14:23.536,310873,t,0,0,0
14:23.617,310902,),0,0,2
14:23.900,311004,(,0,0,0
14:23.947,311021,p,0,0,0
14:24.008,311043,),0,0,0
14:24.081,311069,(,0,0,1
14:24.108,311079,N,0,0,0
14:24.144,311092,),0,0,1
14:24.308,311151,(,0,0,2
14:24.406,311186,t,0,0,0
14:24.483,311214,),0,0,2
14:24.947,311381,(,0,0,1
14:24.972,311390,N,0,0,0
14:25.008,311403,),0,0,1
14:25.178,311464,(,0,0,2
14:25.283,311502,t,0,0,0
14:25.358,311529,),0,0,2
14:25.822,311696,(,0,0,1
14:25.847,311705,N,0,0,0
14:25.883,311718,),0,0,1
14:26.042,311775,(,0,0,2
14:26.142,311811,t,0,0,0
14:26.222,311840,),0,0,2
14:26.514,311945,(,0,0,0
14:26.556,311960,p,0,0,0
14:26.611,311980,),0,0,0
14:26.692,312009,(,0,0,1
14:26.717,312018,N,0,0,0
14:26.753,312031,),0,0,1
14:26.922,312092,(,0,0,2
14:27.014,312125,t,0,0,0
14:27.097,312155,),0,0,2
14:27.425,312273,(,0,0,0
14:27.469,312289,p,0,0,0
14:27.519,312307,),0,0,0
14:27.608,312339,(,0,0,1
14:27.636,312349,N,0,0,0
14:27.672,312362,),0,0,1
14:27.833,312420,(,0,0,2
14:27.942,312459,t,0,0,0
14:28.022,312488,),0,0,2
14:28.300,312588,(,0,0,0
14:28.342,312603,p,0,0,0
14:28.386,312619,),0,0,0
14:28.486,312655,(,0,0,1
14:28.508,312663,N,0,0,0
14:28.544,312676,),0,0,1
14:28.647,312713,t,0,0,2
14:28.797,312767,),0,0,2
14:28.978,312832,(,0,0,1
14:29.036,312853,N,0,0,0
14:29.106,312878,),0,0,1
14:29.239,312926,(,0,0,2
14:29.297,312947,t,0,0,1
14:29.403,312985,),0,0,2
14:30.092,313233,(,0,0,0
14:30.106,313238,p,0,0,0
14:30.206,313274,),0,0,0
14:30.328,313318,(,0,0,1
14:30.353,313327,N,0,0,0
14:30.378,313336,),0,0,1
14:30.558,313401,(,0,0,2
14:30.672,313442,t,0,0,0
14:30.753,313471,),0,0,2
14:31.058,313581,(,0,0,0
14:31.100,313596,p,0,0,0
14:31.156,313616,),0,0,0
14:31.236,313645,(,0,0,1
14:31.264,313655,N,0,0,0
14:31.300,313668,),0,0,1
14:31.417,313710,t,0,0,2
14:31.561,313762,),0,0,2
14:31.742,313827,(,0,0,1
14:31.797,313847,N,0,0,0
14:31.867,313872,),0,0,1
14:31.997,313919,(,0,0,2
14:32.053,313939,t,0,0,1
14:32.158,313977,),0,0,2
14:33.083,314310,(,0,0,1
14:33.108,314319,N,0,0,0
14:33.142,314331,),0,0,1
14:33.314,314393,(,0,0,2
14:33.433,314436,t,0,0,0
14:33.506,314462,),0,0,2
14:33.969,314629,(,0,0,1
14:33.997,314639,N,0,0,0
14:34.019,314647,),0,0,1
14:34.189,314708,(,0,0,2
14:34.292,314745,t,0,0,0
14:34.372,314774,),0,0,2
14:34.706,314894,(,0,0,0
14:34.753,314911,p,0,0,0
14:34.806,314930,),0,0,0
14:34.892,314961,(,0,0,1
14:34.919,314971,N,0,0,0
14:34.956,314984,),0,0,1
14:35.128,315046,(,0,0,2
14:35.228,315082,t,0,0,0
14:35.303,315109,),0,0,2
14:35.625,315225,(,0,0,0
14:35.669,315241,p,0,0,0
14:35.725,315261,),0,0,0
14:35.803,315289,(,0,0,1
14:35.828,315298,N,0,0,0
14:35.867,315312,),0,0,1
14:36.028,315370,(,0,0,2
14:36.125,315405,t,0,0,0
14:36.214,315437,),0,0,2
14:36.667,315600,(,0,0,1
14:36.692,315609,N,0,0,0
14:36.725,315621,),0,0,1
14:36.875,315675,(,0,0,2
14:36.981,315713,t,0,0,0
14:37.061,315742,),0,0,2
14:37.394,315862,(,0,0,0
14:37.436,315877,p,0,0,0
14:37.489,315896,),0,0,0
14:37.575,315927,(,0,0,1
14:37.600,315936,N,0,0,0
14:37.636,315949,),0,0,1
14:37.808,316011,(,0,0,2
14:37.900,316044,t,0,0,0
14:37.981,316073,),0,0,2
14:38.311,316192,(,0,0,0
14:38.353,316207,p,0,0,0
14:38.406,316226,),0,0,0
14:38.489,316256,(,0,0,1
14:38.517,316266,N,0,0,0
14:38.553,316279,),0,0,1
14:38.711,316336,(,0,0,2
14:38.817,316374,t,0,0,0
14:38.903,316405,),0,0,2
14:39.344,316564,(,0,0,1
14:39.369,316573,N,0,0,0
14:39.406,316586,),0,0,1
14:39.564,316643,(,0,0,2
14:39.669,316681,t,0,0,0
14:39.758,316713,),0,0,2
14:40.072,316826,(,0,0,0
14:40.119,316843,p,0,0,0
14:40.172,316862,),0,0,0
14:40.256,316892,(,0,0,1
14:40.281,316901,N,0,0,0
14:40.317,316914,),0,0,1
14:40.483,316974,(,0,0,2
14:40.575,317007,t,0,0,0
14:40.656,317036,),0,0,2
14:40.992,317157,(,0,0,0
14:41.036,317173,p,0,0,0
14:41.089,317192,),0,0,0
14:41.172,317222,(,0,0,1
14:41.197,317231,N,0,0,0
14:41.219,317239,),0,0,1
14:41.406,317306,(,0,0,2
14:41.497,317339,t,0,0,0
14:41.583,317370,),0,0,2
14:41.897,317483,(,0,0,0
14:41.939,317498,p,0,0,0
14:41.992,317517,),0,0,0
14:42.075,317547,(,0,0,1
14:42.106,317558,N,0,0,0
14:42.147,317573,),0,0,1
14:42.311,317632,(,0,0,2
14:42.414,317669,t,0,0,0
14:42.503,317701,),0,0,2
14:42.797,317807,(,0,0,0
14:42.842,317823,p,0,0,0
14:42.892,317841,),0,0,0
14:42.978,317872,(,0,0,1
14:43.003,317881,N,0,0,0
14:43.039,317894,),0,0,1
14:43.206,317954,(,0,0,2
14:43.300,317988,t,0,0,0
14:43.383,318018,),0,0,2
14:43.714,318137,(,0,0,0
14:43.758,318153,p,0,0,0
14:43.806,318170,),0,0,0
14:43.894,318202,(,0,0,1
14:43.917,318210,N,0,0,0
14:43.953,318223,),0,0,1
14:44.014,318245,t,0,0,2
14:44.211,318316,),0,0,2
14:44.389,318380,(,0,0,1
14:44.450,318402,N,0,0,0
14:44.553,318439,),0,0,1
14:44.672,318482,(,0,0,2
14:44.731,318503,t,0,0,1
14:44.833,318540,),0,0,2
14:45.458,318765,(,0,0,0
14:45.536,318793,p,0,0,0
14:45.636,318829,),0,0,0
14:45.758,318873,(,0,0,1
14:45.786,318883,N,0,0,0
14:45.822,318896,),0,0,1
14:45.981,318953,(,0,0,2
14:46.106,318998,t,0,0,0
14:46.178,319024,),0,0,2
14:46.700,319212,(,0,0,1
14:46.722,319220,N,0,0,0
14:46.758,319233,),0,0,1
14:46.928,319294,(,0,0,2
14:47.031,319331,t,0,0,0
14:47.108,319359,),0,0,2
14:47.633,319548,(,0,0,1
14:47.658,319557,N,0,0,0
14:47.694,319570,),0,0,1
14:47.856,319628,(,0,0,2
14:47.956,319664,t,0,0,0
14:48.039,319694,),0,0,2
14:48.342,319803,(,0,0,0
14:48.381,319817,p,0,0,0
14:48.436,319837,),0,0,0
14:48.517,319866,(,0,0,1
14:48.542,319875,N,0,0,0
14:48.578,319888,),0,0,1
14:48.728,319942,(,0,0,2
14:48.839,319982,t,0,0,0
14:48.917,320010,),0,0,2
14:49.256,320132,(,0,0,0
14:49.297,320147,p,0,0,0
14:49.344,320164,),0,0,0
14:49.439,320198,(,0,0,1
14:49.464,320207,N,0,0,0
14:49.489,320216,),0,0,1
14:49.578,320248,t,0,0,2
14:49.769,320317,),0,0,2
14:49.944,320380,(,0,0,1
14:50.006,320402,N,0,0,0
14:50.075,320427,),0,0,1
14:50.208,320475,(,0,0,2
14:50.264,320495,t,0,0,1
14:50.358,320529,),0,0,2
14:50.992,320757,(,0,0,0
14:51.050,320778,p,0,0,0
14:51.158,320817,),0,0,0
14:51.281,320861,(,0,0,1
14:51.306,320870,N,0,0,0
14:51.331,320879,),0,0,1
14:51.503,320941,(,0,0,2
14:51.619,320983,t,0,0,0
14:51.700,321012,),0,0,2
14:52.069,321145,(,0,0,0
14:52.117,321162,p,0,0,0
14:52.175,321183,),0,0,0
14:52.250,321210,(,0,0,1
14:52.278,321220,N,0,0,0
14:52.314,321233,),0,0,1
14:52.478,321292,(,0,0,2
14:52.586,321331,t,0,0,0
14:52.667,321360,),0,0,2
14:53.153,321535,(,0,0,1
14:53.178,321544,N,0,0,0
14:53.217,321558,),0,0,1
14:53.386,321619,(,0,0,2
14:53.483,321654,t,0,0,0
14:53.572,321686,),0,0,2
14:54.036,321853,(,0,0,1
14:54.061,321862,N,0,0,0
14:54.097,321875,),0,0,1
14:54.253,321931,(,0,0,2
14:54.361,321970,t,0,0,0
14:54.444,322000,),0,0,2
14:54.794,322126,(,0,0,0
14:54.836,322141,p,0,0,0
14:54.889,322160,),0,0,0
14:54.975,322191,(,0,0,1
14:54.997,322199,N,0,0,0
14:55.033,322212,),0,0,1
14:55.192,322269,(,0,0,2
14:55.292,322305,t,0,0,0
14:55.375,322335,),0,0,2
14:55.686,322447,(,0,0,0
14:55.728,322462,p,0,0,0
14:55.781,322481,),0,0,0
14:55.864,322511,(,0,0,1
14:55.889,322520,N,0,0,0
14:55.925,322533,),0,0,1
14:56.092,322593,(,0,0,2
14:56.192,322629,t,0,0,0
14:56.272,322658,),0,0,2
14:56.578,322768,(,0,0,0
14:56.622,322784,p,0,0,0
14:56.672,322802,),0,0,0
14:56.758,322833,(,0,0,1
14:56.786,322843,N,0,0,0
14:56.822,322856,),0,0,1
14:56.997,322919,(,0,0,2
14:57.097,322955,t,0,0,0
14:57.181,322985,),0,0,2
14:57.519,323107,(,0,0,0
14:57.561,323122,p,0,0,0
14:57.614,323141,),0,0,0
14:57.697,323171,(,0,0,1
14:57.722,323180,N,0,0,0
14:57.758,323193,),0,0,1
14:57.917,323250,(,0,0,2
14:58.014,323285,t,0,0,0
14:58.094,323314,),0,0,2
14:58.392,323421,(,0,0,0
14:58.433,323436,p,0,0,0
