Elapsedtime,sample,Type,Sub,Chan,Num
0:00.258, 93,(,0,0,0
0:00.339,122,p,0,0,0
0:00.372,134,),0,0,0
0:00.378,136,(,0,0,1
0:00.453,163,N,0,0,0
0:00.500,180,),0,0,1
0:00.619,223,(,0,0,2
0:00.714,257,t,0,0,5
0:00.986,355,t,0,0,5
0:01.103,397,),0,0,2
0:01.231,443,(,0,0,0
0:01.294,466,p,0,0,0
0:01.339,482,),0,0,0
0:01.347,485,(,0,0,1
0:01.425,513,N,0,0,0
0:01.469,529,),0,0,1
0:01.572,566,(,0,0,2
0:01.675,603,t,0,0,5
0:01.925,693,t,0,0,5
0:01.964,707,),0,0,2
0:02.231,803,(,0,0,0
0:02.267,816,p,0,0,0
0:02.333,840,),0,0,0
0:02.344,844,(,0,0,1
0:02.425,873,N,0,0,0
0:02.494,898,),0,0,1
0:02.581,929,(,0,0,2
0:02.683,966,t,0,0,5
0:02.964,1067,t,0,0,5
0:03.050,1098,),0,0,2
0:03.181,1145,(,0,0,0
0:03.247,1169,p,0,0,0
0:03.292,1185,),0,0,0
0:03.311,1192,(,0,0,1
0:03.381,1217,N,0,0,0
0:03.428,1234,),0,0,1
0:03.564,1283,(,0,0,2
0:03.631,1307,t,0,0,5
0:03.883,1398,t,0,0,5
0:03.983,1434,),0,0,2
0:04.169,1501,(,0,0,0
0:04.231,1523,p,0,0,0
0:04.272,1538,),0,0,0
0:04.281,1541,(,0,0,1
0:04.356,1568,N,0,0,0
0:04.406,1586,),0,0,1
0:04.475,1611,(,0,0,2
0:04.589,1652,t,0,0,5
0:04.894,1762,t,0,0,5
0:04.931,1775,),0,0,2
0:05.147,1853,(,0,0,0
0:05.206,1874,p,0,0,0
0:05.253,1891,),0,0,0
0:05.275,1899,(,0,0,1
0:05.342,1923,N,0,0,0
0:05.394,1942,),0,0,1
0:05.425,1953,(,0,0,2
0:05.597,2015,t,0,0,5
0:05.714,2057,t,0,0,5
0:05.747,2069,),0,0,2
0:06.142,2211,(,0,0,0
0:06.225,2241,p,0,0,0
0:06.250,2250,),0,0,0
0:06.278,2260,(,0,0,1
0:06.336,2281,N,0,0,0
0:06.383,2298,),0,0,1
0:06.472,2330,(,0,0,2
0:06.594,2374,t,0,0,5
0:06.864,2471,t,0,0,5
0:06.992,2517,),0,0,2
0:07.144,2572,(,0,0,0
0:07.208,2595,p,0,0,0
0:07.256,2612,),0,0,0
0:07.275,2619,(,0,0,1
0:07.336,2641,N,0,0,0
0:07.381,2657,),0,0,1
0:07.500,2700,(,0,0,2
0:07.592,2733,t,0,0,5
0:07.850,2826,t,0,0,5
0:08.022,2888,),0,0,2
0:08.167,2940,(,0,0,0
0:08.222,2960,p,0,0,0
0:08.278,2980,),0,0,0
0:08.281,2981,(,0,0,1
0:08.364,3011,N,0,0,0
0:08.411,3028,),0,0,1
0:08.550,3078,(,0,0,2
0:08.628,3106,t,0,0,5
0:08.975,3231,t,0,0,5
0:09.069,3265,),0,0,2
0:09.194,3310,(,0,0,0
0:09.247,3329,p,0,0,0
0:09.303,3349,),0,0,0
0:09.314,3353,(,0,0,1
0:09.386,3379,N,0,0,0
0:09.433,3396,),0,0,1
0:09.469,3409,(,0,0,2
0:09.650,3474,t,0,0,5
0:09.883,3558,t,0,0,5
0:09.994,3598,),0,0,2
0:10.192,3669,(,0,0,0
0:10.258,3693,p,0,0,0
0:10.300,3708,),0,0,0
0:10.317,3714,(,0,0,1
0:10.386,3739,N,0,0,0
0:10.436,3757,),0,0,1
0:10.550,3798,(,0,0,2
0:10.650,3834,t,0,0,5
0:10.975,3951,t,0,0,5
0:11.028,3970,),0,0,2
0:11.219,4039,(,0,0,0
0:11.283,4062,p,0,0,0
0:11.328,4078,),0,0,0
0:11.344,4084,(,0,0,1
0:11.419,4111,N,0,0,0
0:11.467,4128,),0,0,1
0:11.531,4151,(,0,0,2
0:11.647,4193,t,0,0,5
0:11.953,4303,t,0,0,5
0:12.067,4344,),0,0,2
0:12.203,4393,(,0,0,0
0:12.258,4413,p,0,0,0
0:12.311,4432,),0,0,0
0:12.339,4442,(,0,0,1
0:12.394,4462,N,0,0,0
0:12.464,4487,),0,0,1
0:12.533,4512,(,0,0,2
0:12.658,4557,t,0,0,5
0:12.847,4625,t,0,0,5
0:12.889,4640,),0,0,2
0:13.189,4748,(,0,0,0
0:13.261,4774,p,0,0,0
0:13.297,4787,),0,0,0
0:13.314,4793,(,0,0,1
0:13.389,4820,N,0,0,0
0:13.461,4846,),0,0,1
0:14.217,5118,(,0,0,0
0:14.267,5136,p,0,0,0
0:14.322,5156,),0,0,0
0:14.344,5164,(,0,0,1
0:14.406,5186,N,0,0,0
0:14.467,5208,),0,0,1
0:14.575,5247,(,0,0,2
0:14.658,5277,t,0,0,0
0:14.808,5331,),0,0,2
0:15.200,5472,(,0,0,0
0:15.272,5498,p,0,0,0
0:15.300,5508,),0,0,0
0:15.317,5514,(,0,0,1
0:15.397,5543,N,0,0,0
0:15.442,5559,),0,0,1
0:15.581,5609,(,0,0,2
0:15.661,5638,t,0,0,5
0:15.881,5717,t,0,0,5
0:15.958,5745,),0,0,2
0:16.197,5831,(,0,0,0
0:16.244,5848,p,0,0,0
0:16.303,5869,),0,0,0
0:16.319,5875,(,0,0,1
0:16.392,5901,N,0,0,0
0:16.436,5917,),0,0,1
0:16.511,5944,(,0,0,2
0:16.661,5998,t,0,0,5
0:16.914,6089,t,0,0,5
0:16.961,6106,),0,0,2
0:17.211,6196,(,0,0,0
0:17.267,6216,p,0,0,0
0:17.311,6232,),0,0,0
0:17.322,6236,(,0,0,1
0:17.400,6264,N,0,0,0
0:17.444,6280,),0,0,1
0:17.581,6329,(,0,0,2
0:17.661,6358,t,0,0,5
0:17.881,6437,t,0,0,5
0:17.953,6463,),0,0,2
0:18.211,6556,(,0,0,0
0:18.253,6571,p,0,0,0
0:18.314,6593,),0,0,0
0:18.322,6596,(,0,0,1
0:18.400,6624,N,0,0,0
0:18.467,6648,),0,0,1
0:18.606,6698,(,0,0,2
0:18.667,6720,t,0,0,5
0:18.869,6793,t,0,0,5
0:18.975,6831,),0,0,2
0:19.206,6914,(,0,0,0
0:19.261,6934,p,0,0,0
0:19.311,6952,),0,0,0
0:19.319,6955,(,0,0,1
0:19.400,6984,N,0,0,0
0:19.447,7001,),0,0,1
0:19.581,7049,(,0,0,2
0:19.664,7079,t,0,0,5
0:19.903,7165,t,0,0,5
0:20.061,7222,),0,0,2
0:20.100,7236,(,0,0,0
0:20.125,7245,p,0,0,0
0:20.233,7284,),0,0,0
0:20.297,7307,(,0,0,1
0:20.394,7342,N,0,0,0
0:20.469,7369,),0,0,1
0:20.583,7410,(,0,0,2
0:20.656,7436,t,0,0,5
0:20.983,7554,t,0,0,5
0:21.042,7575,),0,0,2
0:21.192,7629,(,0,0,0
0:21.256,7652,p,0,0,0
0:21.292,7665,),0,0,0
0:21.317,7674,(,0,0,1
0:21.381,7697,N,0,0,0
0:21.425,7713,),0,0,1
0:21.575,7767,(,0,0,2
0:21.633,7788,t,0,0,0
0:21.781,7841,),0,0,2
0:22.153,7975,(,0,0,0
0:22.225,8001,p,0,0,0
0:22.264,8015,),0,0,0
0:22.286,8023,(,0,0,1
0:22.353,8047,N,0,0,0
0:22.397,8063,),0,0,1
0:22.544,8116,(,0,0,2
0:22.608,8139,t,0,0,5
0:22.844,8224,t,0,0,5
0:22.889,8240,),0,0,2
0:23.128,8326,(,0,0,0
0:23.197,8351,p,0,0,0
0:23.233,8364,),0,0,0
0:23.250,8370,(,0,0,1
0:23.325,8397,N,0,0,0
0:23.369,8413,),0,0,1
0:23.522,8468,(,0,0,2
0:23.583,8490,t,0,0,5
0:23.817,8574,t,0,0,5
0:23.936,8617,),0,0,2
0:24.036,8653,(,0,0,0
0:24.056,8660,p,0,0,0
0:24.139,8690,),0,0,0
0:24.192,8709,(,0,0,1
0:24.297,8747,N,0,0,0
0:24.369,8773,),0,0,1
0:24.478,8812,(,0,0,2
0:24.544,8836,t,0,0,5
0:24.817,8934,t,0,0,5
0:24.919,8971,),0,0,2
0:25.086,9031,(,0,0,0
0:25.133,9048,p,0,0,0
0:25.192,9069,),0,0,0
0:25.194,9070,(,0,0,1
0:25.278,9100,N,0,0,0
0:25.325,9117,),0,0,1
0:25.483,9174,(,0,0,2
0:25.533,9192,t,0,0,5
0:25.875,9315,t,0,0,5
0:25.939,9338,),0,0,2
0:26.058,9381,(,0,0,0
0:26.119,9403,p,0,0,0
0:26.164,9419,),0,0,0
0:26.189,9428,(,0,0,1
0:26.247,9449,N,0,0,0
0:26.297,9467,),0,0,1
0:26.467,9528,(,0,0,2
0:26.506,9542,t,0,0,5
0:26.786,9643,t,0,0,5
0:26.825,9657,),0,0,2
0:27.022,9728,(,0,0,0
0:27.092,9753,p,0,0,0
0:27.125,9765,),0,0,0
0:27.153,9775,(,0,0,1
0:27.211,9796,N,0,0,0
0:27.258,9813,),0,0,1
0:27.278,9820,(,0,0,2
0:27.469,9889,t,0,0,0
0:27.586,9931,),0,0,2
0:28.022,10088,(,0,0,0
0:28.092,10113,p,0,0,0
0:28.125,10125,),0,0,0
0:28.156,10136,(,0,0,1
0:28.219,10159,N,0,0,0
0:28.264,10175,),0,0,1
0:28.317,10194,(,0,0,2
0:28.469,10249,t,0,0,5
0:28.747,10349,t,0,0,5
0:28.814,10373,),0,0,2
0:29.003,10441,(,0,0,0
0:29.067,10464,p,0,0,0
0:29.114,10481,),0,0,0
0:29.128,10486,(,0,0,1
0:29.194,10510,N,0,0,0
0:29.272,10538,),0,0,1
0:29.350,10566,(,0,0,2
0:29.453,10603,t,0,0,5
0:29.722,10700,t,0,0,5
0:29.767,10716,),0,0,2
0:29.964,10787,(,0,0,0
0:30.039,10814,p,0,0,0
0:30.075,10827,),0,0,0
0:30.089,10832,(,0,0,1
0:30.161,10858,N,0,0,0
0:30.203,10873,),0,0,1
0:30.344,10924,(,0,0,2
0:30.411,10948,t,0,0,5
0:30.719,11059,t,0,0,5
0:30.744,11068,),0,0,2
0:30.972,11150,(,0,0,0
0:31.050,11178,p,0,0,0
0:31.089,11192,),0,0,0
0:31.097,11195,(,0,0,1
0:31.172,11222,N,0,0,0
0:31.242,11247,),0,0,1
0:31.353,11287,(,0,0,2
0:31.433,11316,t,0,0,5
0:31.758,11433,t,0,0,5
0:31.842,11463,),0,0,2
0:31.964,11507,(,0,0,0
0:32.017,11526,p,0,0,0
0:32.072,11546,),0,0,0
0:32.092,11553,(,0,0,1
0:32.156,11576,N,0,0,0
0:32.200,11592,),0,0,1
0:32.333,11640,(,0,0,2
0:32.417,11670,t,0,0,5
0:32.686,11767,t,0,0,5
0:32.847,11825,),0,0,2
0:32.956,11864,(,0,0,0
0:33.022,11888,p,0,0,0
0:33.061,11902,),0,0,0
0:33.064,11903,(,0,0,1
0:33.144,11932,N,0,0,0
0:33.192,11949,),0,0,1
0:33.317,11994,(,0,0,2
0:33.406,12026,t,0,0,5
0:33.667,12120,t,0,0,5
0:33.811,12172,),0,0,2
0:33.958,12225,(,0,0,0
0:34.022,12248,p,0,0,0
0:34.050,12258,),0,0,0
0:34.067,12264,(,0,0,1
0:34.150,12294,N,0,0,0
0:34.194,12310,),0,0,1
0:34.281,12341,(,0,0,2
0:34.400,12384,t,0,0,5
0:34.686,12487,t,0,0,5
0:34.744,12508,),0,0,2
0:34.961,12586,(,0,0,0
0:35.017,12606,p,0,0,0
0:35.064,12623,),0,0,0
0:35.092,12633,(,0,0,1
0:35.150,12654,N,0,0,0
0:35.194,12670,),0,0,1
0:35.339,12722,(,0,0,2
0:35.411,12748,t,0,0,5
0:35.828,12898,t,0,0,5
0:35.878,12916,),0,0,2
0:35.972,12950,(,0,0,0
0:36.039,12974,p,0,0,0
0:36.081,12989,),0,0,0
0:36.097,12995,(,0,0,1
0:36.167,13020,N,0,0,0
0:36.214,13037,),0,0,1
0:36.244,13048,(,0,0,2
0:36.433,13116,t,0,0,5
0:36.792,13245,t,0,0,5
0:36.844,13264,),0,0,2
0:37.014,13325,(,0,0,0
0:37.075,13347,p,0,0,0
0:37.125,13365,),0,0,0
0:37.131,13367,(,0,0,1
0:37.208,13395,N,0,0,0
0:37.253,13411,),0,0,1
0:37.392,13461,(,0,0,2
0:37.453,13483,t,0,0,5
0:37.733,13584,t,0,0,5
0:37.894,13642,),0,0,2
0:38.031,13691,(,0,0,0
0:38.114,13721,p,0,0,0
0:38.147,13733,),0,0,0
0:38.164,13739,(,0,0,1
0:38.233,13764,N,0,0,0
0:38.281,13781,),0,0,1
0:38.403,13825,(,0,0,2
0:38.478,13852,t,0,0,5
0:38.753,13951,t,0,0,5
0:38.817,13974,),0,0,2
0:39.075,14067,(,0,0,0
0:39.150,14094,p,0,0,0
0:39.192,14109,),0,0,0
0:39.200,14112,(,0,0,1
0:39.281,14141,N,0,0,0
0:39.325,14157,),0,0,1
0:39.489,14216,(,0,0,2
0:39.550,14238,t,0,0,5
0:39.772,14318,t,0,0,5
0:39.978,14392,),0,0,2
0:40.122,14444,(,0,0,0
0:40.197,14471,p,0,0,0
0:40.233,14484,),0,0,0
0:40.261,14494,(,0,0,1
0:40.317,14514,N,0,0,0
0:40.364,14531,),0,0,1
0:40.419,14551,(,0,0,2
0:40.586,14611,t,0,0,5
0:40.897,14723,t,0,0,5
0:41.050,14778,),0,0,2
0:41.169,14821,(,0,0,0
0:41.242,14847,p,0,0,0
0:41.272,14858,),0,0,0
0:41.294,14866,(,0,0,1
0:41.356,14888,N,0,0,0
0:41.400,14904,),0,0,1
0:41.542,14955,(,0,0,2
0:41.614,14981,t,0,0,5
0:41.889,15080,t,0,0,5
0:42.114,15161,),0,0,2
0:42.211,15196,(,0,0,0
0:42.275,15219,p,0,0,0
0:42.308,15231,),0,0,0
0:42.333,15240,(,0,0,1
0:42.408,15267,N,0,0,0
0:42.453,15283,),0,0,1
0:42.594,15334,(,0,0,2
0:42.661,15358,t,0,0,5
0:42.925,15453,t,0,0,5
0:43.017,15486,),0,0,2
0:43.231,15563,(,0,0,0
0:43.300,15588,p,0,0,0
0:43.336,15601,),0,0,0
0:43.367,15612,(,0,0,1
0:43.433,15636,N,0,0,0
0:43.481,15653,),0,0,1
0:43.503,15661,(,0,0,2
0:43.689,15728,t,0,0,5
0:44.086,15871,t,0,0,5
0:44.103,15877,),0,0,2
0:44.256,15932,(,0,0,0
0:44.333,15960,p,0,0,0
0:44.375,15975,),0,0,0
0:44.397,15983,(,0,0,1
0:44.461,16006,N,0,0,0
0:44.511,16024,),0,0,1
0:44.561,16042,(,0,0,2
0:44.728,16102,t,0,0,5
0:45.072,16226,t,0,0,5
0:45.156,16256,),0,0,2
0:45.319,16315,(,0,0,0
0:45.383,16338,p,0,0,0
0:45.425,16353,),0,0,0
0:45.436,16357,(,0,0,1
0:45.511,16384,N,0,0,0
0:45.583,16410,),0,0,1
0:45.692,16449,(,0,0,2
0:45.756,16472,t,0,0,5
0:45.961,16546,t,0,0,5
0:46.108,16599,),0,0,2
0:46.322,16676,(,0,0,0
0:46.389,16700,p,0,0,0
0:46.428,16714,),0,0,0
0:46.436,16717,(,0,0,1
0:46.517,16746,N,0,0,0
0:46.581,16769,),0,0,1
0:46.625,16785,(,0,0,2
0:46.778,16840,t,0,0,5
0:46.997,16919,t,0,0,5
0:47.103,16957,),0,0,2
0:47.336,17041,(,0,0,0
0:47.389,17060,p,0,0,0
0:47.439,17078,),0,0,0
0:47.472,17090,(,0,0,1
0:47.536,17113,N,0,0,0
0:47.622,17144,),0,0,1
0:47.661,17158,(,0,0,2
0:47.800,17208,t,0,0,5
0:48.069,17305,t,0,0,5
0:48.133,17328,),0,0,2
0:48.336,17401,(,0,0,0
0:48.414,17429,p,0,0,0
0:48.469,17449,),0,0,0
0:48.497,17459,(,0,0,1
0:48.556,17480,N,0,0,0
0:48.614,17501,),0,0,1
0:48.758,17553,(,0,0,2
0:48.819,17575,t,0,0,5
0:49.061,17662,t,0,0,5
0:49.128,17686,),0,0,2
0:49.364,17771,(,0,0,0
0:49.414,17789,p,0,0,0
0:49.464,17807,),0,0,0
0:49.472,17810,(,0,0,1
0:49.550,17838,N,0,0,0
0:49.617,17862,),0,0,1
0:49.731,17903,(,0,0,2
0:49.803,17929,t,0,0,5
0:50.128,18046,t,0,0,5
0:50.211,18076,),0,0,2
0:50.331,18119,(,0,0,0
0:50.383,18138,p,0,0,0
0:50.436,18157,),0,0,0
0:50.442,18159,(,0,0,1
0:50.522,18188,N,0,0,0
0:50.569,18205,),0,0,1
0:50.594,18214,(,0,0,2
0:50.783,18282,t,0,0,5
0:51.053,18379,t,0,0,5
0:51.183,18426,),0,0,2
0:51.300,18468,(,0,0,0
0:51.364,18491,p,0,0,0
0:51.408,18507,),0,0,0
0:51.433,18516,(,0,0,1
0:51.494,18538,N,0,0,0
0:51.542,18555,),0,0,1
0:51.686,18607,(,0,0,2
0:51.756,18632,t,0,0,5
0:52.097,18755,t,0,0,5
0:52.158,18777,),0,0,2
0:52.264,18815,(,0,0,0
0:52.322,18836,p,0,0,0
0:52.372,18854,),0,0,0
0:52.397,18863,(,0,0,1
0:52.458,18885,N,0,0,0
0:52.506,18902,),0,0,1
0:52.658,18957,(,0,0,2
0:52.719,18979,t,0,0,5
0:52.969,19069,t,0,0,5
0:53.033,19092,),0,0,2
0:53.258,19173,(,0,0,0
0:53.311,19192,p,0,0,0
0:53.367,19212,),0,0,0
0:53.375,19215,(,0,0,1
0:53.456,19244,N,0,0,0
0:53.497,19259,),0,0,1
0:53.525,19269,(,0,0,2
0:53.714,19337,t,0,0,5
0:53.964,19427,t,0,0,5
0:54.044,19456,),0,0,2
0:54.250,19530,(,0,0,0
0:54.306,19550,p,0,0,0
0:54.347,19565,),0,0,0
0:54.369,19573,(,0,0,1
0:54.439,19598,N,0,0,0
0:54.483,19614,),0,0,1
0:54.611,19660,(,0,0,2
0:54.697,19691,t,0,0,0
0:54.792,19725,),0,0,2
0:55.228,19882,(,0,0,0
0:55.281,19901,p,0,0,0
0:55.339,19922,),0,0,0
0:55.347,19925,(,0,0,1
0:55.419,19951,N,0,0,0
0:55.469,19969,),0,0,1
0:55.611,20020,(,0,0,2
0:55.678,20044,t,0,0,5
0:55.964,20147,t,0,0,5
0:56.050,20178,),0,0,2
0:56.242,20247,(,0,0,0
0:56.294,20266,p,0,0,0
0:56.350,20286,),0,0,0
0:56.372,20294,(,0,0,1
0:56.442,20319,N,0,0,0
0:56.494,20338,),0,0,1
0:56.603,20377,(,0,0,2
0:56.706,20414,t,0,0,5
0:56.969,20509,t,0,0,5
0:57.156,20576,),0,0,2
0:57.247,20609,(,0,0,0
0:57.319,20635,p,0,0,0
0:57.358,20649,),0,0,0
0:57.375,20655,(,0,0,1
0:57.447,20681,N,0,0,0
0:57.497,20699,),0,0,1
0:57.567,20724,(,0,0,2
0:57.711,20776,t,0,0,5
0:57.969,20869,t,0,0,5
0:58.056,20900,),0,0,2
0:58.278,20980,(,0,0,0
0:58.336,21001,p,0,0,0
0:58.378,21016,),0,0,0
0:58.381,21017,(,0,0,1
0:58.467,21048,N,0,0,0
0:58.511,21064,),0,0,1
0:58.639,21110,(,0,0,2
0:58.725,21141,t,0,0,5
0:59.008,21243,t,0,0,5
0:59.122,21284,),0,0,2
0:59.303,21349,(,0,0,0
0:59.369,21373,p,0,0,0
0:59.411,21388,),0,0,0
0:59.414,21389,(,0,0,1
0:59.497,21419,N,0,0,0
0:59.544,21436,),0,0,1
0:59.667,21480,(,0,0,2
0:59.753,21511,t,0,0,5
1:00.006,21602,t,0,0,5
1:00.058,21621,),0,0,2
1:00.300,21708,(,0,0,0
1:00.367,21732,p,0,0,0
1:00.406,21746,),0,0,0
1:00.411,21748,(,0,0,1
1:00.494,21778,N,0,0,0
1:00.542,21795,),0,0,1
1:00.625,21825,(,0,0,2
1:00.750,21870,t,0,0,5
1:01.033,21972,t,0,0,5
1:01.153,22015,),0,0,2
1:01.336,22081,(,0,0,0
1:01.386,22099,p,0,0,0
1:01.442,22119,),0,0,0
1:01.450,22122,(,0,0,1
1:01.528,22150,N,0,0,0
1:01.575,22167,),0,0,1
1:01.714,22217,(,0,0,2
1:01.800,22248,t,0,0,5
1:02.042,22335,t,0,0,5
1:02.133,22368,),0,0,2
1:02.367,22452,(,0,0,0
1:02.417,22470,p,0,0,0
1:02.464,22487,),0,0,0
1:02.478,22492,(,0,0,1
1:02.550,22518,N,0,0,0
1:02.600,22536,),0,0,1
1:02.739,22586,(,0,0,2
1:02.803,22609,t,0,0,0
1:02.906,22646,),0,0,2
1:03.347,22805,(,0,0,0
1:03.397,22823,p,0,0,0
1:03.458,22845,),0,0,0
1:03.478,22852,(,0,0,1
1:03.542,22875,N,0,0,0
1:03.589,22892,),0,0,1
1:03.708,22935,(,0,0,2
1:03.794,22966,t,0,0,5
1:04.150,23094,t,0,0,5
1:04.225,23121,),0,0,2
1:04.358,23169,(,0,0,0
1:04.408,23187,p,0,0,0
1:04.469,23209,),0,0,0
1:04.481,23213,(,0,0,1
1:04.553,23239,N,0,0,0
1:04.603,23257,),0,0,1
1:04.731,23303,(,0,0,2
1:04.819,23335,t,0,0,5
1:05.067,23424,t,0,0,5
1:05.203,23473,),0,0,2
1:05.369,23533,(,0,0,0
1:05.442,23559,p,0,0,0
1:05.481,23573,),0,0,0
1:05.483,23574,(,0,0,1
1:05.561,23602,N,0,0,0
1:05.608,23619,),0,0,1
1:05.633,23628,(,0,0,2
1:05.817,23694,t,0,0,5
1:06.139,23810,t,0,0,5
1:06.183,23826,),0,0,2
1:06.239,23846,(,0,0,0
1:06.317,23874,p,0,0,0
1:06.397,23903,),0,0,0
1:06.458,23925,(,0,0,1
1:06.553,23959,N,0,0,0
1:06.600,23976,),0,0,1
1:06.742,24027,(,0,0,2
1:06.803,24049,t,0,0,5
1:07.072,24146,t,0,0,5
1:07.211,24196,),0,0,2
1:07.339,24242,(,0,0,0
1:07.400,24264,p,0,0,0
1:07.447,24281,),0,0,0
1:07.481,24293,(,0,0,1
1:07.533,24312,N,0,0,0
1:07.581,24329,),0,0,1
1:07.606,24338,(,0,0,2
1:07.797,24407,t,0,0,5
1:08.083,24510,t,0,0,5
1:08.172,24542,),0,0,2
1:08.303,24589,(,0,0,0
1:08.367,24612,p,0,0,0
1:08.411,24628,),0,0,0
1:08.417,24630,(,0,0,1
1:08.494,24658,N,0,0,0
1:08.542,24675,),0,0,1
1:08.575,24687,(,0,0,2
1:08.758,24753,t,0,0,5
1:09.011,24844,t,0,0,5
1:09.061,24862,),0,0,2
1:09.253,24931,(,0,0,0
1:09.317,24954,p,0,0,0
1:09.369,24973,),0,0,0
1:09.381,24977,(,0,0,1
1:09.456,25004,N,0,0,0
1:09.528,25030,),0,0,1
1:09.536,25033,(,0,0,2
1:09.703,25093,t,0,0,5
1:09.961,25186,t,0,0,5
1:10.122,25244,),0,0,2
1:10.244,25288,(,0,0,0
1:10.303,25309,p,0,0,0
1:10.361,25330,),0,0,0
1:10.381,25337,(,0,0,1
1:10.447,25361,N,0,0,0
1:10.528,25390,),0,0,1
1:10.636,25429,(,0,0,2
1:10.717,25458,t,0,0,5
1:11.011,25564,t,0,0,5
1:11.097,25595,),0,0,2
1:11.239,25646,(,0,0,0
1:11.292,25665,p,0,0,0
1:11.347,25685,),0,0,0
1:11.353,25687,(,0,0,1
1:11.431,25715,N,0,0,0
1:11.478,25732,),0,0,1
1:11.631,25787,(,0,0,2
1:11.664,25799,t,0,0,5
1:11.942,25899,t,0,0,5
1:11.964,25907,),0,0,2
1:12.217,25998,(,0,0,0
1:12.264,26015,p,0,0,0
1:12.314,26033,),0,0,0
1:12.333,26040,(,0,0,1
1:12.408,26067,N,0,0,0
1:12.456,26084,),0,0,1
1:12.611,26140,(,0,0,2
1:12.672,26162,t,0,0,5
1:13.081,26309,t,0,0,5
1:13.131,26327,),0,0,2
1:13.225,26361,(,0,0,0
1:13.286,26383,p,0,0,0
1:13.347,26405,),0,0,0
1:13.350,26406,(,0,0,1
1:13.425,26433,N,0,0,0
1:13.472,26450,),0,0,1
1:13.550,26478,(,0,0,2
1:13.686,26527,t,0,0,5
1:13.939,26618,t,0,0,5
1:14.072,26666,),0,0,2
1:14.222,26720,(,0,0,0
1:14.278,26740,p,0,0,0
1:14.325,26757,),0,0,0
1:14.353,26767,(,0,0,1
1:14.417,26790,N,0,0,0
1:14.464,26807,),0,0,1
1:14.522,26828,(,0,0,2
1:14.569,26845,t,0,0,5
1:14.969,26989,t,0,0,5
1:15.003,27001,),0,0,2
1:15.208,27075,(,0,0,0
1:15.272,27098,p,0,0,0
1:15.314,27113,),0,0,0
1:15.336,27121,(,0,0,1
1:15.400,27144,N,0,0,0
1:15.444,27160,),0,0,1
1:15.489,27176,(,0,0,2
1:15.650,27234,t,0,0,5
1:15.983,27354,t,0,0,5
1:16.033,27372,),0,0,2
1:16.225,27441,(,0,0,0
1:16.272,27458,p,0,0,0
1:16.331,27479,),0,0,0
1:16.347,27485,(,0,0,1
1:16.417,27510,N,0,0,0
1:16.461,27526,),0,0,1
1:16.489,27536,(,0,0,2
1:16.664,27599,t,0,0,5
1:16.978,27712,t,0,0,5
1:17.014,27725,),0,0,2
1:17.236,27805,(,0,0,0
1:17.297,27827,p,0,0,0
1:17.339,27842,),0,0,0
1:17.353,27847,(,0,0,1
1:17.425,27873,N,0,0,0
1:17.472,27890,),0,0,1
1:17.608,27939,(,0,0,2
1:17.672,27962,t,0,0,5
1:18.106,28118,t,0,0,5
1:18.153,28135,),0,0,2
1:18.242,28167,(,0,0,0
1:18.289,28184,p,0,0,0
1:18.356,28208,),0,0,0
1:18.358,28209,(,0,0,1
1:18.439,28238,N,0,0,0
1:18.486,28255,),0,0,1
1:18.611,28300,(,0,0,2
1:18.694,28330,t,0,0,0
1:18.808,28371,),0,0,2
1:19.281,28541,(,0,0,0
1:19.342,28563,p,0,0,0
1:19.378,28576,),0,0,0
1:19.386,28579,(,0,0,1
1:19.464,28607,N,0,0,0
1:19.508,28623,),0,0,1
1:19.533,28632,(,0,0,2
1:19.708,28695,t,0,0,5
1:19.950,28782,t,0,0,5
1:20.131,28847,),0,0,2
1:20.283,28902,(,0,0,0
1:20.317,28914,p,0,0,0
1:20.386,28939,),0,0,0
1:20.392,28941,(,0,0,1
1:20.469,28969,N,0,0,0
1:20.539,28994,),0,0,1
1:20.656,29036,(,0,0,2
1:20.731,29063,t,0,0,5
1:20.847,29105,t,0,0,5
1:20.861,29110,),0,0,2
1:21.200,29232,(,0,0,0
1:21.250,29250,p,0,0,0
1:21.333,29280,),0,0,0
1:21.403,29305,(,0,0,1
1:21.500,29340,N,0,0,0
1:21.569,29365,),0,0,1
1:21.692,29409,(,0,0,2
1:21.764,29435,t,0,0,5
1:22.042,29535,t,0,0,5
1:22.072,29546,),0,0,2
1:22.347,29645,(,0,0,0
1:22.392,29661,p,0,0,0
1:22.453,29683,),0,0,0
1:22.458,29685,(,0,0,1
1:22.539,29714,N,0,0,0
1:22.606,29738,),0,0,1
1:22.703,29773,(,0,0,2
1:22.797,29807,t,0,0,5
1:23.058,29901,t,0,0,5
1:23.097,29915,),0,0,2
1:23.383,30018,(,0,0,0
1:23.450,30042,p,0,0,0
1:23.492,30057,),0,0,0
1:23.522,30068,(,0,0,1
1:23.575,30087,N,0,0,0
1:23.622,30104,),0,0,1
1:23.756,30152,(,0,0,2
1:23.825,30177,t,0,0,5
1:24.078,30268,t,0,0,5
1:24.208,30315,),0,0,2
1:24.400,30384,(,0,0,0
1:24.469,30409,p,0,0,0
1:24.514,30425,),0,0,0
1:24.525,30429,(,0,0,1
1:24.600,30456,N,0,0,0
1:24.669,30481,),0,0,1
1:24.756,30512,(,0,0,2
1:24.864,30551,t,0,0,5
1:25.183,30666,t,0,0,5
1:25.247,30689,),0,0,2
1:25.447,30761,(,0,0,0
1:25.508,30783,p,0,0,0
1:25.553,30799,),0,0,0
1:25.561,30802,(,0,0,1
1:25.639,30830,N,0,0,0
1:25.706,30854,),0,0,1
1:25.819,30895,(,0,0,2
1:25.903,30925,t,0,0,5
1:26.128,31006,t,0,0,5
1:26.283,31062,),0,0,2
1:26.472,31130,(,0,0,0
1:26.542,31155,p,0,0,0
1:26.578,31168,),0,0,0
1:26.592,31173,(,0,0,1
1:26.661,31198,N,0,0,0
1:26.708,31215,),0,0,1
1:26.825,31257,(,0,0,2
1:26.906,31286,t,0,0,5
1:27.314,31433,t,0,0,5
1:27.375,31455,),0,0,2
1:27.522,31508,(,0,0,0
1:27.581,31529,p,0,0,0
1:27.631,31547,),0,0,0
1:27.653,31555,(,0,0,1
1:27.717,31578,N,0,0,0
1:27.761,31594,),0,0,1
1:27.786,31603,(,0,0,2
1:27.972,31670,t,0,0,5
1:28.219,31759,t,0,0,5
1:28.300,31788,),0,0,2
1:28.556,31880,(,0,0,0
1:28.617,31902,p,0,0,0
1:28.656,31916,),0,0,0
1:28.664,31919,(,0,0,1
1:28.744,31948,N,0,0,0
1:28.789,31964,),0,0,1
1:28.819,31975,(,0,0,2
1:29.008,32043,t,0,0,5
1:29.231,32123,t,0,0,5
1:29.367,32172,),0,0,2
1:29.561,32242,(,0,0,0
1:29.628,32266,p,0,0,0
1:29.664,32279,),0,0,0
1:29.689,32288,(,0,0,1
1:29.761,32314,N,0,0,0
1:29.808,32331,),0,0,1
1:29.883,32358,(,0,0,2
1:30.011,32404,t,0,0,5
1:30.442,32559,t,0,0,5
1:30.481,32573,),0,0,2
1:30.603,32617,(,0,0,0
1:30.647,32633,p,0,0,0
1:30.708,32655,),0,0,0
1:30.725,32661,(,0,0,1
1:30.797,32687,N,0,0,0
1:30.844,32704,),0,0,1
1:30.989,32756,(,0,0,2
1:31.053,32779,t,0,0,5
1:31.333,32880,t,0,0,5
1:31.375,32895,),0,0,2
1:31.633,32988,(,0,0,0
1:31.689,33008,p,0,0,0
1:31.736,33025,),0,0,0
1:31.758,33033,(,0,0,1
1:31.833,33060,N,0,0,0
1:31.914,33089,),0,0,1
1:31.950,33102,(,0,0,2
1:32.081,33149,t,0,0,5
1:32.350,33246,t,0,0,5
1:32.408,33267,),0,0,2
1:32.639,33350,(,0,0,0
1:32.681,33365,p,0,0,0
1:32.744,33388,),0,0,0
1:32.758,33393,(,0,0,1
1:32.833,33420,N,0,0,0
1:32.908,33447,),0,0,1
1:33.022,33488,(,0,0,2
1:33.111,33520,t,0,0,5
1:33.333,33600,t,0,0,5
1:33.411,33628,),0,0,2
1:33.639,33710,(,0,0,0
1:33.700,33732,p,0,0,0
1:33.744,33748,),0,0,0
1:33.764,33755,(,0,0,1
1:33.833,33780,N,0,0,0
1:33.908,33807,),0,0,1
1:33.989,33836,(,0,0,2
1:34.100,33876,t,0,0,5
1:34.386,33979,t,0,0,5
1:34.414,33989,),0,0,2
1:34.656,34076,(,0,0,0
1:34.725,34101,p,0,0,0
1:34.767,34116,),0,0,0
1:34.792,34125,(,0,0,1
1:34.856,34148,N,0,0,0
1:34.944,34180,),0,0,1
1:34.978,34192,(,0,0,2
1:35.114,34241,t,0,0,5
1:35.417,34350,t,0,0,5
1:35.475,34371,),0,0,2
1:35.689,34448,(,0,0,0
1:35.750,34470,p,0,0,0
1:35.794,34486,),0,0,0
1:35.800,34488,(,0,0,1
1:35.883,34518,N,0,0,0
1:35.931,34535,),0,0,1
1:36.058,34581,(,0,0,2
1:36.144,34612,t,0,0,5
1:36.422,34712,t,0,0,5
1:36.467,34728,),0,0,2
1:36.706,34814,(,0,0,0
1:36.761,34834,p,0,0,0
1:36.814,34853,),0,0,0
1:36.828,34858,(,0,0,1
1:36.906,34886,N,0,0,0
1:36.953,34903,),0,0,1
1:37.081,34949,(,0,0,2
1:37.164,34979,t,0,0,5
1:37.439,35078,t,0,0,5
1:37.603,35137,),0,0,2
1:37.728,35182,(,0,0,0
1:37.778,35200,p,0,0,0
1:37.831,35219,),0,0,0
1:37.836,35221,(,0,0,1
1:37.917,35250,N,0,0,0
1:37.964,35267,),0,0,1
1:38.097,35315,(,0,0,2
1:38.181,35345,t,0,0,0
1:38.286,35383,),0,0,2
1:38.756,35552,(,0,0,0
1:38.797,35567,p,0,0,0
1:38.867,35592,),0,0,0
1:38.869,35593,(,0,0,1
1:38.950,35622,N,0,0,0
1:38.997,35639,),0,0,1
1:39.150,35694,(,0,0,2
1:39.208,35715,t,0,0,5
1:39.461,35806,t,0,0,5
1:39.536,35833,),0,0,2
1:39.786,35923,(,0,0,0
1:39.853,35947,p,0,0,0
1:39.889,35960,),0,0,0
1:39.900,35964,(,0,0,1
1:39.975,35991,N,0,0,0
1:40.025,36009,),0,0,1
1:40.158,36057,(,0,0,2
1:40.225,36081,t,0,0,5
1:40.556,36200,t,0,0,5
1:40.611,36220,),0,0,2
1:40.797,36287,(,0,0,0
1:40.853,36307,p,0,0,0
1:40.900,36324,),0,0,0
1:40.903,36325,(,0,0,1
1:40.983,36354,N,0,0,0
1:41.033,36372,),0,0,1
1:41.067,36384,(,0,0,2
1:41.147,36413,t,0,0,5
1:41.522,36548,t,0,0,5
1:41.539,36554,),0,0,2
1:41.819,36655,(,0,0,0
1:41.881,36677,p,0,0,0
1:41.919,36691,),0,0,0
1:41.933,36696,(,0,0,1
1:42.008,36723,N,0,0,0
1:42.056,36740,),0,0,1
1:42.081,36749,(,0,0,2
1:42.272,36818,t,0,0,5
1:42.622,36944,t,0,0,5
1:42.653,36955,),0,0,2
1:42.836,37021,(,0,0,0
1:42.903,37045,p,0,0,0
1:42.936,37057,),0,0,0
1:42.964,37067,(,0,0,1
1:43.028,37090,N,0,0,0
1:43.075,37107,),0,0,1
1:43.197,37151,(,0,0,2
1:43.283,37182,t,0,0,5
1:43.594,37294,t,0,0,5
1:43.653,37315,),0,0,2
1:43.858,37389,(,0,0,0
1:43.928,37414,p,0,0,0
1:43.969,37429,),0,0,0
1:43.975,37431,(,0,0,1
1:44.061,37462,N,0,0,0
1:44.106,37478,),0,0,1
1:44.256,37532,(,0,0,2
1:44.317,37554,t,0,0,5
1:44.569,37645,t,0,0,5
1:44.683,37686,),0,0,2
1:44.908,37767,(,0,0,0
1:44.950,37782,p,0,0,0
1:45.022,37808,),0,0,0
1:45.039,37814,(,0,0,1
1:45.108,37839,N,0,0,0
1:45.147,37853,),0,0,1
1:45.231,37883,(,0,0,2
1:45.358,37929,t,0,0,5
1:45.658,38037,t,0,0,5
1:45.689,38048,),0,0,2
1:45.939,38138,(,0,0,0
1:46.014,38165,p,0,0,0
1:46.050,38178,),0,0,0
1:46.067,38184,(,0,0,1
1:46.133,38208,N,0,0,0
1:46.183,38226,),0,0,1
1:46.200,38232,(,0,0,2
1:46.386,38299,t,0,0,5
1:46.647,38393,t,0,0,5
1:46.683,38406,),0,0,2
1:46.969,38509,(,0,0,0
1:47.050,38538,p,0,0,0
1:47.083,38550,),0,0,0
1:47.103,38557,(,0,0,1
1:47.175,38583,N,0,0,0
1:47.222,38600,),0,0,1
1:47.397,38663,(,0,0,2
1:47.444,38680,t,0,0,5
1:47.767,38796,t,0,0,5
1:47.814,38813,),0,0,2
1:48.003,38881,(,0,0,0
1:48.078,38908,p,0,0,0
1:48.125,38925,),0,0,0
1:48.136,38929,(,0,0,1
1:48.206,38954,N,0,0,0
1:48.253,38971,),0,0,1
1:48.289,38984,(,0,0,2
1:48.322,38996,t,0,0,5
1:48.703,39133,t,0,0,5
1:48.881,39197,),0,0,2
1:49.006,39242,(,0,0,0
1:49.081,39269,p,0,0,0
1:49.119,39283,),0,0,0
1:49.139,39290,(,0,0,1
1:49.203,39313,N,0,0,0
1:49.247,39329,),0,0,1
1:49.269,39337,(,0,0,2
1:49.444,39400,t,0,0,5
1:49.756,39512,t,0,0,5
1:49.786,39523,),0,0,2
1:50.003,39601,(,0,0,0
1:50.081,39629,p,0,0,0
1:50.117,39642,),0,0,0
1:50.133,39648,(,0,0,1
1:50.206,39674,N,0,0,0
1:50.244,39688,),0,0,1
1:50.297,39707,(,0,0,2
1:50.444,39760,t,0,0,5
1:50.703,39853,t,0,0,5
1:50.744,39868,),0,0,2
1:50.997,39959,(,0,0,0
1:51.061,39982,p,0,0,0
1:51.103,39997,),0,0,0
1:51.108,39999,(,0,0,1
1:51.189,40028,N,0,0,0
1:51.231,40043,),0,0,1
1:51.300,40068,(,0,0,2
1:51.450,40122,t,0,0,5
1:51.683,40206,t,0,0,5
1:51.719,40219,),0,0,2
1:51.992,40317,(,0,0,0
1:52.053,40339,p,0,0,0
1:52.094,40354,),0,0,0
1:52.108,40359,(,0,0,1
1:52.181,40385,N,0,0,0
1:52.256,40412,),0,0,1
1:52.383,40458,(,0,0,2
1:52.425,40473,t,0,0,5
1:52.667,40560,t,0,0,5
1:52.786,40603,),0,0,2
1:52.972,40670,(,0,0,0
1:53.047,40697,p,0,0,0
1:53.075,40707,),0,0,0
1:53.106,40718,(,0,0,1
1:53.175,40743,N,0,0,0
1:53.217,40758,),0,0,1
1:53.261,40774,(,0,0,2
1:53.414,40829,t,0,0,5
1:53.667,40920,t,0,0,5
1:53.778,40960,),0,0,2
1:53.939,41018,(,0,0,0
1:54.014,41045,p,0,0,0
1:54.050,41058,),0,0,0
1:54.069,41065,(,0,0,1
1:54.139,41090,N,0,0,0
1:54.183,41106,),0,0,1
1:54.242,41127,(,0,0,2
1:54.392,41181,t,0,0,5
1:54.664,41279,t,0,0,5
1:54.719,41299,),0,0,2
1:54.919,41371,(,0,0,0
1:54.983,41394,p,0,0,0
1:55.022,41408,),0,0,0
1:55.039,41414,(,0,0,1
1:55.106,41438,N,0,0,0
1:55.153,41455,),0,0,1
1:55.200,41472,(,0,0,2
1:55.381,41537,t,0,0,5
1:55.628,41626,t,0,0,5
1:55.689,41648,),0,0,2
1:55.925,41733,(,0,0,0
1:55.997,41759,p,0,0,0
1:56.036,41773,),0,0,0
1:56.044,41776,(,0,0,1
1:56.119,41803,N,0,0,0
1:56.164,41819,),0,0,1
1:56.286,41863,(,0,0,2
1:56.381,41897,t,0,0,5
1:56.619,41983,t,0,0,5
1:56.725,42021,),0,0,2
1:56.911,42088,(,0,0,0
1:56.972,42110,p,0,0,0
1:57.022,42128,),0,0,0
1:57.039,42134,(,0,0,1
1:57.111,42160,N,0,0,0
1:57.150,42174,),0,0,1
1:57.300,42228,(,0,0,2
1:57.356,42248,t,0,0,5
1:57.703,42373,t,0,0,5
1:57.747,42389,),0,0,2
1:57.886,42439,(,0,0,0
1:57.956,42464,p,0,0,0
1:57.994,42478,),0,0,0
1:58.008,42483,(,0,0,1
1:58.081,42509,N,0,0,0
1:58.122,42524,),0,0,1
1:58.167,42540,(,0,0,2
1:58.347,42605,t,0,0,5
1:58.583,42690,t,0,0,5
1:58.778,42760,),0,0,2
1:58.875,42795,(,0,0,0
1:58.939,42818,p,0,0,0
1:58.961,42826,),0,0,0
1:58.978,42832,(,0,0,1
1:59.064,42863,N,0,0,0
1:59.114,42881,),0,0,1
1:59.267,42936,(,0,0,2
1:59.314,42953,t,0,0,5
1:59.539,43034,t,0,0,5
1:59.644,43072,),0,0,2
1:59.850,43146,(,0,0,0
1:59.911,43168,p,0,0,0
1:59.947,43181,),0,0,0
1:59.972,43190,(,0,0,1
2:00.033,43212,N,0,0,0
2:00.081,43229,),0,0,1
2:00.203,43273,(,0,0,2
2:00.278,43300,t,0,0,5
2:00.542,43395,t,0,0,5
2:00.589,43412,),0,0,2
2:00.828,43498,(,0,0,0
2:00.894,43522,p,0,0,0
2:00.933,43536,),0,0,0
2:00.944,43540,(,0,0,1
2:01.022,43568,N,0,0,0
2:01.067,43584,),0,0,1
2:01.111,43600,(,0,0,2
2:01.178,43624,t,0,0,5
2:01.553,43759,t,0,0,5
2:01.633,43788,),0,0,2
2:01.814,43853,(,0,0,0
2:01.886,43879,p,0,0,0
2:01.925,43893,),0,0,0
2:01.942,43899,(,0,0,1
2:02.008,43923,N,0,0,0
2:02.050,43938,),0,0,1
2:02.200,43992,(,0,0,2
2:02.253,44011,t,0,0,5
2:02.508,44103,t,0,0,5
2:02.622,44144,),0,0,2
2:02.806,44210,(,0,0,0
2:02.878,44236,p,0,0,0
2:02.897,44243,),0,0,0
2:02.914,44249,(,0,0,1
2:02.997,44279,N,0,0,0
2:03.039,44294,),0,0,1
2:03.172,44342,(,0,0,2
2:03.233,44364,t,0,0,5
2:03.475,44451,t,0,0,5
2:03.622,44504,),0,0,2
2:03.797,44567,(,0,0,0
2:03.858,44589,p,0,0,0
2:03.908,44607,),0,0,0
2:03.931,44615,(,0,0,1
2:04.000,44640,N,0,0,0
2:04.039,44654,),0,0,1
2:04.200,44712,(,0,0,2
2:04.264,44735,t,0,0,5
2:04.503,44821,t,0,0,5
2:04.561,44842,),0,0,2
2:04.817,44934,(,0,0,0
2:04.872,44954,p,0,0,0
2:04.922,44972,),0,0,0
2:04.942,44979,(,0,0,1
2:05.017,45006,N,0,0,0
2:05.056,45020,),0,0,1
2:05.200,45072,(,0,0,2
2:05.278,45100,t,0,0,5
2:05.528,45190,t,0,0,5
2:05.628,45226,),0,0,2
2:05.831,45299,(,0,0,0
2:05.875,45315,p,0,0,0
2:05.933,45336,),0,0,0
2:05.944,45340,(,0,0,1
2:06.019,45367,N,0,0,0
2:06.067,45384,),0,0,1
2:06.622,45584,(,0,0,2
2:06.647,45593,t,0,0,1
2:06.683,45606,),0,0,2
2:06.797,45647,(,0,0,0
2:06.850,45666,p,0,0,0
2:06.906,45686,),0,0,0
2:06.939,45698,(,0,0,1
2:06.986,45715,N,0,0,0
2:07.036,45733,),0,0,1
2:07.172,45782,(,0,0,2
2:07.253,45811,t,0,0,5
2:07.506,45902,t,0,0,5
2:07.578,45928,),0,0,2
2:07.781,46001,(,0,0,0
2:07.844,46024,p,0,0,0
2:07.881,46037,),0,0,0
2:07.911,46048,(,0,0,1
2:07.975,46071,N,0,0,0
2:08.022,46088,),0,0,1
2:08.044,46096,(,0,0,2
2:08.222,46160,t,0,0,5
2:08.567,46284,t,0,0,5
2:08.603,46297,),0,0,2
2:08.758,46353,(,0,0,0
2:08.833,46380,p,0,0,0
2:08.869,46393,),0,0,0
2:08.881,46397,(,0,0,1
2:08.956,46424,N,0,0,0
2:09.025,46449,),0,0,1
2:09.042,46455,(,0,0,2
2:09.208,46515,t,0,0,5
2:09.461,46606,t,0,0,5
2:09.503,46621,),0,0,2
2:09.744,46708,(,0,0,0
2:09.814,46733,p,0,0,0
2:09.853,46747,),0,0,0
2:09.875,46755,(,0,0,1
2:09.942,46779,N,0,0,0
2:09.989,46796,),0,0,1
2:10.033,46812,(,0,0,2
2:10.197,46871,t,0,0,5
2:10.539,46994,t,0,0,5
2:10.564,47003,),0,0,2
2:10.717,47058,(,0,0,0
2:10.767,47076,p,0,0,0
2:10.811,47092,),0,0,0
2:10.819,47095,(,0,0,1
2:10.908,47127,N,0,0,0
2:10.947,47141,),0,0,1
2:11.078,47188,(,0,0,2
2:11.161,47218,t,0,0,5
2:11.392,47301,t,0,0,5
2:11.425,47313,),0,0,2
2:11.678,47404,(,0,0,0
2:11.733,47424,p,0,0,0
2:11.781,47441,),0,0,0
2:11.808,47451,(,0,0,1
2:11.867,47472,N,0,0,0
2:11.928,47494,),0,0,1
2:12.069,47545,(,0,0,2
2:12.119,47563,t,0,0,5
2:12.339,47642,t,0,0,5
2:12.456,47684,),0,0,2
2:12.622,47744,(,0,0,0
2:12.700,47772,p,0,0,0
2:12.742,47787,),0,0,0
2:12.750,47790,(,0,0,1
2:12.828,47818,N,0,0,0
2:12.875,47835,),0,0,1
2:12.914,47849,(,0,0,2
2:13.064,47903,t,0,0,5
2:13.439,48038,t,0,0,5
2:13.486,48055,),0,0,2
2:13.583,48090,(,0,0,0
2:13.625,48105,p,0,0,0
2:13.686,48127,),0,0,0
2:13.711,48136,(,0,0,1
2:13.772,48158,N,0,0,0
2:13.814,48173,),0,0,1
2:13.842,48183,(,0,0,2
2:14.019,48247,t,0,0,5
2:14.356,48368,t,0,0,5
2:14.392,48381,),0,0,2
2:14.519,48427,(,0,0,0
2:14.589,48452,p,0,0,0
2:14.619,48463,),0,0,0
2:14.642,48471,(,0,0,1
2:14.700,48492,N,0,0,0
2:14.747,48509,),0,0,1
2:14.872,48554,(,0,0,2
2:14.933,48576,t,0,0,5
2:15.206,48674,t,0,0,5
2:15.325,48717,),0,0,2
2:15.450,48762,(,0,0,0
2:15.525,48789,p,0,0,0
2:15.561,48802,),0,0,0
2:15.578,48808,(,0,0,1
2:15.644,48832,N,0,0,0
2:15.692,48849,),0,0,1
2:15.711,48856,(,0,0,2
2:15.897,48923,t,0,0,5
2:16.139,49010,t,0,0,5
2:16.289,49064,),0,0,2
2:16.400,49104,(,0,0,0
2:16.472,49130,p,0,0,0
2:16.508,49143,),0,0,0
2:16.517,49146,(,0,0,1
2:16.594,49174,N,0,0,0
2:16.636,49189,),0,0,1
2:16.675,49203,(,0,0,2
2:16.842,49263,t,0,0,5
2:17.081,49349,t,0,0,5
2:17.192,49389,),0,0,2
2:17.356,49448,(,0,0,0
2:17.422,49472,p,0,0,0
2:17.461,49486,),0,0,0
2:17.481,49493,(,0,0,1
2:17.550,49518,N,0,0,0
2:17.592,49533,),0,0,1
2:17.747,49589,(,0,0,2
2:17.797,49607,t,0,0,5
2:18.142,49731,t,0,0,5
2:18.225,49761,),0,0,2
2:18.325,49797,(,0,0,0
2:18.403,49825,p,0,0,0
2:18.442,49839,),0,0,0
2:18.450,49842,(,0,0,1
2:18.528,49870,N,0,0,0
2:18.572,49886,),0,0,1
2:18.711,49936,(,0,0,2
2:18.783,49962,t,0,0,5
2:19.039,50054,t,0,0,5
2:19.069,50065,),0,0,2
2:19.289,50144,(,0,0,0
2:19.342,50163,p,0,0,0
2:19.403,50185,),0,0,0
2:19.417,50190,(,0,0,1
2:19.492,50217,N,0,0,0
2:19.536,50233,),0,0,1
2:19.572,50246,(,0,0,2
2:19.753,50311,t,0,0,5
2:20.053,50419,t,0,0,5
2:20.108,50439,),0,0,2
2:20.275,50499,(,0,0,0
2:20.339,50522,p,0,0,0
2:20.378,50536,),0,0,0
2:20.386,50539,(,0,0,1
2:20.464,50567,N,0,0,0
2:20.506,50582,),0,0,1
2:20.653,50635,(,0,0,2
2:20.722,50660,t,0,0,5
2:20.972,50750,t,0,0,5
2:21.050,50778,),0,0,2
2:21.244,50848,(,0,0,0
2:21.294,50866,p,0,0,0
2:21.356,50888,),0,0,0
2:21.378,50896,(,0,0,1
2:21.442,50919,N,0,0,0
2:21.536,50953,),0,0,1
2:21.667,51000,(,0,0,2
2:21.703,51013,t,0,0,0
2:21.814,51053,),0,0,2
2:22.183,51186,(,0,0,0
2:22.242,51207,p,0,0,0
2:22.289,51224,),0,0,0
2:22.314,51233,(,0,0,1
2:22.378,51256,N,0,0,0
2:22.422,51272,),0,0,1
2:22.533,51312,(,0,0,2
2:22.631,51347,t,0,0,5
2:22.922,51452,t,0,0,5
2:22.961,51466,),0,0,2
2:23.136,51529,(,0,0,0
2:23.197,51551,p,0,0,0
2:23.247,51569,),0,0,0
2:23.256,51572,(,0,0,1
2:23.328,51598,N,0,0,0
2:23.369,51613,),0,0,1
2:23.511,51664,(,0,0,2
2:23.572,51686,t,0,0,5
2:23.853,51787,t,0,0,5
2:23.925,51813,),0,0,2
2:24.089,51872,(,0,0,0
2:24.144,51892,p,0,0,0
2:24.189,51908,),0,0,0
2:24.206,51914,(,0,0,1
2:24.281,51941,N,0,0,0
2:24.325,51957,),0,0,1
2:24.347,51965,(,0,0,2
2:24.531,52031,t,0,0,5
2:24.808,52131,t,0,0,5
2:24.853,52147,),0,0,2
2:25.019,52207,(,0,0,0
2:25.072,52226,p,0,0,0
2:25.128,52246,),0,0,0
2:25.150,52254,(,0,0,1
2:25.208,52275,N,0,0,0
2:25.256,52292,),0,0,1
2:25.278,52300,(,0,0,2
2:25.464,52367,t,0,0,5
2:25.686,52447,t,0,0,5
2:25.803,52489,),0,0,2
2:25.922,52532,(,0,0,0
2:25.978,52552,p,0,0,0
2:26.028,52570,),0,0,0
2:26.050,52578,(,0,0,1
2:26.117,52602,N,0,0,0
2:26.161,52618,),0,0,1
2:26.186,52627,(,0,0,2
2:26.367,52692,t,0,0,5
2:26.647,52793,t,0,0,5
2:26.733,52824,),0,0,2
2:26.750,52830,(,0,0,0
2:26.783,52842,p,0,0,0
2:26.831,52859,),0,0,0
2:26.933,52896,(,0,0,1
2:27.053,52939,N,0,0,0
2:27.133,52968,),0,0,1
2:27.250,53010,(,0,0,2
2:27.306,53030,t,0,0,5
2:27.575,53127,t,0,0,5
2:27.653,53155,),0,0,2
2:27.794,53206,(,0,0,0
2:27.853,53227,p,0,0,0
2:27.906,53246,),0,0,0
2:27.922,53252,(,0,0,1
2:27.992,53277,N,0,0,0
2:28.033,53292,),0,0,1
2:28.175,53343,(,0,0,2
2:28.236,53365,t,0,0,5
2:28.550,53478,t,0,0,5
2:28.597,53495,),0,0,2
2:28.756,53552,(,0,0,0
2:28.811,53572,p,0,0,0
2:28.861,53590,),0,0,0
2:28.886,53599,(,0,0,1
2:28.947,53621,N,0,0,0
2:29.033,53652,),0,0,1
2:29.053,53659,(,0,0,2
2:29.197,53711,t,0,0,5
2:29.472,53810,t,0,0,5
2:29.508,53823,),0,0,2
2:29.742,53907,(,0,0,0
2:29.806,53930,p,0,0,0
2:29.856,53948,),0,0,0
2:29.881,53957,(,0,0,1
2:29.947,53981,N,0,0,0
2:29.994,53998,),0,0,1
2:30.142,54051,(,0,0,2
2:30.203,54073,t,0,0,5
2:30.483,54174,t,0,0,5
2:30.575,54207,),0,0,2
2:30.744,54268,(,0,0,0
2:30.817,54294,p,0,0,0
2:30.856,54308,),0,0,0
2:30.883,54318,(,0,0,1
2:30.942,54339,N,0,0,0
2:30.986,54355,),0,0,1
2:31.047,54377,(,0,0,2
2:31.200,54432,t,0,0,5
2:31.472,54530,t,0,0,5
2:31.608,54579,),0,0,2
2:31.756,54632,(,0,0,0
2:31.828,54658,p,0,0,0
2:31.858,54669,),0,0,0
2:31.878,54676,(,0,0,1
2:31.942,54699,N,0,0,0
2:32.000,54720,),0,0,1
2:32.128,54766,(,0,0,2
2:32.200,54792,t,0,0,5
2:32.475,54891,t,0,0,5
2:32.592,54933,),0,0,2
2:32.758,54993,(,0,0,0
2:32.833,55020,p,0,0,0
2:32.875,55035,),0,0,0
2:32.889,55040,(,0,0,1
2:32.958,55065,N,0,0,0
2:33.000,55080,),0,0,1
2:33.147,55133,(,0,0,2
2:33.208,55155,t,0,0,5
2:33.453,55243,t,0,0,5
2:33.567,55284,),0,0,2
2:33.769,55357,(,0,0,0
2:33.833,55380,p,0,0,0
2:33.875,55395,),0,0,0
2:33.892,55401,(,0,0,1
2:33.953,55423,N,0,0,0
2:34.003,55441,),0,0,1
2:34.117,55482,(,0,0,2
2:34.208,55515,t,0,0,5
2:34.450,55602,t,0,0,5
2:34.564,55643,),0,0,2
2:34.756,55712,(,0,0,0
2:34.825,55737,p,0,0,0
2:34.858,55749,),0,0,0
2:34.861,55750,(,0,0,1
2:34.939,55778,N,0,0,0
2:34.986,55795,),0,0,1
2:35.089,55832,(,0,0,2
2:35.200,55872,t,0,0,5
2:35.425,55953,t,0,0,5
2:35.564,56003,),0,0,2
2:35.761,56074,(,0,0,0
2:35.822,56096,p,0,0,0
2:35.867,56112,),0,0,0
2:35.889,56120,(,0,0,1
2:35.944,56140,N,0,0,0
2:36.008,56163,),0,0,1
2:36.117,56202,(,0,0,2
2:36.194,56230,t,0,0,5
2:36.475,56331,t,0,0,5
2:36.531,56351,),0,0,2
2:36.717,56418,(,0,0,0
2:36.781,56441,p,0,0,0
2:36.833,56460,),0,0,0
2:36.847,56465,(,0,0,1
2:36.919,56491,N,0,0,0
2:36.961,56506,),0,0,1
2:37.117,56562,(,0,0,2
2:37.161,56578,t,0,0,5
2:37.514,56705,t,0,0,5
2:37.608,56739,),0,0,2
2:37.697,56771,(,0,0,0
2:37.767,56796,p,0,0,0
2:37.800,56808,),0,0,0
2:37.822,56816,(,0,0,1
2:37.892,56841,N,0,0,0
2:37.936,56857,),0,0,1
2:37.983,56874,(,0,0,2
2:38.133,56928,t,0,0,5
2:38.389,57020,t,0,0,5
2:38.572,57086,),0,0,2
2:38.667,57120,(,0,0,0
2:38.744,57148,p,0,0,0
2:38.786,57163,),0,0,0
2:38.794,57166,(,0,0,1
2:38.869,57193,N,0,0,0
2:38.914,57209,),0,0,1
2:38.981,57233,(,0,0,2
2:39.108,57279,t,0,0,5
2:39.389,57380,t,0,0,5
2:39.500,57420,),0,0,2
2:39.636,57469,(,0,0,0
2:39.717,57498,p,0,0,0
2:39.750,57510,),0,0,0
2:39.761,57514,(,0,0,1
2:39.836,57541,N,0,0,0
2:39.881,57557,),0,0,1
2:40.017,57606,(,0,0,2
2:40.081,57629,t,0,0,5
2:40.300,57708,t,0,0,5
2:40.467,57768,),0,0,2
2:40.597,57815,(,0,0,0
2:40.653,57835,p,0,0,0
2:40.706,57854,),0,0,0
2:40.722,57860,(,0,0,1
2:40.792,57885,N,0,0,0
2:40.839,57902,),0,0,1
2:40.978,57952,(,0,0,2
2:41.036,57973,t,0,0,5
2:41.289,58064,t,0,0,5
2:41.344,58084,),0,0,2
2:41.561,58162,(,0,0,0
2:41.619,58183,p,0,0,0
2:41.658,58197,),0,0,0
2:41.686,58207,(,0,0,1
2:41.747,58229,N,0,0,0
2:41.794,58246,),0,0,1
2:41.947,58301,(,0,0,2
2:41.989,58316,t,0,0,5
2:42.253,58411,t,0,0,5
2:42.369,58453,),0,0,2
2:42.528,58510,(,0,0,0
2:42.597,58535,p,0,0,0
2:42.633,58548,),0,0,0
2:42.656,58556,(,0,0,1
2:42.714,58577,N,0,0,0
2:42.758,58593,),0,0,1
2:42.789,58604,(,0,0,2
2:42.947,58661,t,0,0,5
2:43.231,58763,t,0,0,5
2:43.314,58793,),0,0,2
2:43.486,58855,(,0,0,0
2:43.558,58881,p,0,0,0
2:43.594,58894,),0,0,0
2:43.600,58896,(,0,0,1
2:43.683,58926,N,0,0,0
2:43.728,58942,),0,0,1
2:43.878,58996,(,0,0,2
2:43.933,59016,t,0,0,5
2:44.319,59155,t,0,0,5
2:44.350,59166,),0,0,2
2:44.472,59210,(,0,0,0
2:44.528,59230,p,0,0,0
2:44.581,59249,),0,0,0
2:44.594,59254,(,0,0,1
2:44.667,59280,N,0,0,0
2:44.731,59303,),0,0,1
2:44.878,59356,(,0,0,2
2:44.919,59371,t,0,0,5
2:45.153,59455,t,0,0,5
2:45.211,59476,),0,0,2
2:45.428,59554,(,0,0,0
2:45.469,59569,p,0,0,0
2:45.542,59595,),0,0,0
2:45.558,59601,(,0,0,1
2:45.622,59624,N,0,0,0
2:45.681,59645,),0,0,1
2:45.736,59665,(,0,0,2
2:45.875,59715,t,0,0,5
2:46.142,59811,t,0,0,5
2:46.208,59835,),0,0,2
2:46.394,59902,(,0,0,0
2:46.467,59928,p,0,0,0
2:46.500,59940,),0,0,0
2:46.528,59950,(,0,0,1
2:46.592,59973,N,0,0,0
2:46.669,60001,),0,0,1
2:46.683,60006,(,0,0,2
2:46.844,60064,t,0,0,5
2:47.092,60153,t,0,0,5
2:47.175,60183,),0,0,2
2:47.369,60253,(,0,0,0
2:47.428,60274,p,0,0,0
2:47.481,60293,),0,0,0
2:47.497,60299,(,0,0,1
2:47.567,60324,N,0,0,0
2:47.608,60339,),0,0,1
2:47.781,60401,(,0,0,2
2:47.817,60414,t,0,0,5
2:48.058,60501,t,0,0,5
2:48.075,60507,),0,0,2
2:48.325,60597,(,0,0,0
2:48.383,60618,p,0,0,0
2:48.425,60633,),0,0,0
2:48.431,60635,(,0,0,1
2:48.514,60665,N,0,0,0
2:48.578,60688,),0,0,1
2:48.581,60689,(,0,0,2
2:48.747,60749,t,0,0,5
2:48.992,60837,t,0,0,5
2:49.086,60871,),0,0,2
2:49.269,60937,(,0,0,0
2:49.317,60954,p,0,0,0
2:49.375,60975,),0,0,0
2:49.394,60982,(,0,0,1
2:49.464,61007,N,0,0,0
2:49.511,61024,),0,0,1
2:49.658,61077,(,0,0,2
2:49.703,61093,t,0,0,5
2:49.928,61174,t,0,0,5
2:50.053,61219,),0,0,2
2:50.219,61279,(,0,0,0
2:50.272,61298,p,0,0,0
2:50.325,61317,),0,0,0
2:50.336,61321,(,0,0,1
2:50.411,61348,N,0,0,0
2:50.456,61364,),0,0,1
2:50.519,61387,(,0,0,2
2:50.647,61433,t,0,0,5
2:50.906,61526,t,0,0,5
2:50.942,61539,),0,0,2
2:51.172,61622,(,0,0,0
2:51.236,61645,p,0,0,0
2:51.275,61659,),0,0,0
2:51.294,61666,(,0,0,1
2:51.367,61692,N,0,0,0
2:51.406,61706,),0,0,1
2:51.433,61716,(,0,0,2
2:51.611,61780,t,0,0,5
2:51.894,61882,t,0,0,5
2:51.919,61891,),0,0,2
2:52.142,61971,(,0,0,0
2:52.178,61984,p,0,0,0
2:52.242,62007,),0,0,0
2:52.264,62015,(,0,0,1
2:52.328,62038,N,0,0,0
2:52.411,62068,),0,0,1
2:52.486,62095,(,0,0,2
2:52.575,62127,t,0,0,5
2:52.858,62229,t,0,0,5
2:52.911,62248,),0,0,2
2:53.094,62314,(,0,0,0
2:53.156,62336,p,0,0,0
2:53.203,62353,),0,0,0
2:53.222,62360,(,0,0,1
2:53.283,62382,N,0,0,0
2:53.344,62404,),0,0,1
2:53.453,62443,(,0,0,2
2:53.531,62471,t,0,0,5
2:53.883,62598,t,0,0,5
2:53.911,62608,),0,0,2
2:54.031,62651,(,0,0,0
2:54.094,62674,p,0,0,0
2:54.139,62690,),0,0,0
2:54.158,62697,(,0,0,1
2:54.225,62721,N,0,0,0
2:54.283,62742,),0,0,1
2:54.297,62747,(,0,0,2
2:54.369,62773,t,0,0,5
2:54.722,62900,t,0,0,5
2:54.775,62919,),0,0,2
2:54.972,62990,(,0,0,0
2:55.008,63003,p,0,0,0
2:55.028,63010,),0,0,0
2:55.047,63017,(,0,0,1
2:55.164,63059,N,0,0,0
2:55.247,63089,),0,0,1
2:55.389,63140,(,0,0,2
2:55.414,63149,t,0,0,5
2:55.628,63226,t,0,0,5
2:55.750,63270,),0,0,2
2:55.889,63320,(,0,0,0
2:55.953,63343,p,0,0,0
2:56.003,63361,),0,0,0
2:56.006,63362,(,0,0,1
2:56.086,63391,N,0,0,0
2:56.150,63414,),0,0,1
2:56.264,63455,(,0,0,2
2:56.336,63481,t,0,0,5
2:56.594,63574,t,0,0,5
2:56.708,63615,),0,0,2
2:56.847,63665,(,0,0,0
2:56.883,63678,p,0,0,0
2:56.947,63701,),0,0,0
2:56.964,63707,(,0,0,1
2:57.031,63731,N,0,0,0
2:57.086,63751,),0,0,1
2:57.136,63769,(,0,0,2
2:57.264,63815,t,0,0,5
2:57.561,63922,t,0,0,5
2:57.625,63945,),0,0,2
2:57.736,63985,(,0,0,0
2:57.786,64003,p,0,0,0
2:57.850,64026,),0,0,0
2:57.864,64031,(,0,0,1
2:57.936,64057,N,0,0,0
2:58.014,64085,),0,0,1
2:58.050,64098,(,0,0,2
2:58.181,64145,t,0,0,5
2:58.439,64238,t,0,0,5
2:58.467,64248,),0,0,2
2:58.661,64318,(,0,0,0
2:58.706,64334,p,0,0,0
2:58.767,64356,),0,0,0
2:58.772,64358,(,0,0,1
2:58.850,64386,N,0,0,0
2:58.894,64402,),0,0,1
2:59.036,64453,(,0,0,2
2:59.089,64472,t,0,0,5
2:59.358,64569,t,0,0,5
2:59.447,64601,),0,0,2
2:59.567,64644,(,0,0,0
2:59.625,64665,p,0,0,0
2:59.683,64686,),0,0,0
2:59.700,64692,(,0,0,1
2:59.761,64714,N,0,0,0
2:59.811,64732,),0,0,1
2:59.928,64774,(,0,0,2
3:00.022,64808,t,0,0,5
3:00.289,64904,t,0,0,5
3:00.322,64916,),0,0,2
3:00.492,64977,(,0,0,0
3:00.533,64992,p,0,0,0
3:00.597,65015,),0,0,0
3:00.606,65018,(,0,0,1
3:00.689,65048,N,0,0,0
3:00.733,65064,),0,0,1
3:00.856,65108,(,0,0,2
3:00.944,65140,t,0,0,5
3:01.219,65239,t,0,0,5
3:01.319,65275,),0,0,2
3:01.442,65319,(,0,0,0
3:01.497,65339,p,0,0,0
3:01.553,65359,),0,0,0
3:01.567,65364,(,0,0,1
3:01.636,65389,N,0,0,0
3:01.681,65405,),0,0,1
3:01.725,65421,(,0,0,2
3:01.881,65477,t,0,0,5
3:02.128,65566,t,0,0,5
3:02.256,65612,),0,0,2
3:02.392,65661,(,0,0,0
3:02.433,65676,p,0,0,0
3:02.497,65699,),0,0,0
3:02.506,65702,(,0,0,1
3:02.581,65729,N,0,0,0
3:02.625,65745,),0,0,1
3:02.689,65768,(,0,0,2
3:02.822,65816,t,0,0,5
3:03.200,65952,t,0,0,5
3:03.256,65972,),0,0,2
3:03.333,66000,(,0,0,0
3:03.411,66028,p,0,0,0
3:03.442,66039,),0,0,0
3:03.464,66047,(,0,0,1
3:03.542,66075,N,0,0,0
3:03.583,66090,),0,0,1
3:03.736,66145,(,0,0,2
3:03.778,66160,t,0,0,5
3:04.094,66274,t,0,0,5
3:04.144,66292,),0,0,2
3:04.303,66349,(,0,0,0
3:04.381,66377,p,0,0,0
3:04.414,66389,),0,0,0
3:04.436,66397,(,0,0,1
3:04.500,66420,N,0,0,0
3:04.544,66436,),0,0,1
3:04.672,66482,(,0,0,2
3:04.761,66514,t,0,0,5
3:05.006,66602,t,0,0,5
3:05.147,66653,),0,0,2
3:05.275,66699,(,0,0,0
3:05.328,66718,p,0,0,0
3:05.381,66737,),0,0,0
3:05.400,66744,(,0,0,1
3:05.464,66767,N,0,0,0
3:05.506,66782,),0,0,1
3:05.661,66838,(,0,0,2
3:05.706,66854,t,0,0,5
3:05.994,66958,t,0,0,5
3:06.067,66984,),0,0,2
3:06.219,67039,(,0,0,0
3:06.294,67066,p,0,0,0
3:06.331,67079,),0,0,0
3:06.339,67082,(,0,0,1
3:06.422,67112,N,0,0,0
3:06.464,67127,),0,0,1
3:06.500,67140,(,0,0,2
3:06.681,67205,t,0,0,5
3:06.903,67285,t,0,0,5
3:07.042,67335,),0,0,2
3:07.178,67384,(,0,0,0
3:07.242,67407,p,0,0,0
3:07.281,67421,),0,0,0
3:07.303,67429,(,0,0,1
3:07.367,67452,N,0,0,0
3:07.453,67483,),0,0,1
3:07.483,67494,(,0,0,2
3:07.622,67544,t,0,0,5
3:07.883,67638,t,0,0,5
3:07.914,67649,),0,0,2
3:08.128,67726,(,0,0,0
3:08.186,67747,p,0,0,0
3:08.233,67764,),0,0,0
3:08.242,67767,(,0,0,1
3:08.319,67795,N,0,0,0
3:08.386,67819,),0,0,1
3:08.392,67821,(,0,0,2
3:08.583,67890,t,0,0,5
3:08.861,67990,t,0,0,5
3:08.886,67999,),0,0,2
3:09.072,68066,(,0,0,0
3:09.139,68090,p,0,0,0
3:09.192,68109,),0,0,0
3:09.203,68113,(,0,0,1
3:09.281,68141,N,0,0,0
3:09.325,68157,),0,0,1
3:09.469,68209,(,0,0,2
3:09.533,68232,t,0,0,5
3:09.769,68317,t,0,0,5
3:09.856,68348,),0,0,2
3:10.022,68408,(,0,0,0
3:10.081,68429,p,0,0,0
3:10.133,68448,),0,0,0
3:10.142,68451,(,0,0,1
3:10.214,68477,N,0,0,0
3:10.261,68494,),0,0,1
3:10.306,68510,(,0,0,2
3:10.456,68564,t,0,0,5
3:10.706,68654,t,0,0,5
3:10.811,68692,),0,0,2
3:10.961,68746,(,0,0,0
3:11.025,68769,p,0,0,0
3:11.067,68784,),0,0,0
3:11.072,68786,(,0,0,1
3:11.150,68814,N,0,0,0
3:11.197,68831,),0,0,1
3:11.219,68839,(,0,0,2
3:11.392,68901,t,0,0,5
3:11.731,69023,t,0,0,5
3:11.825,69057,),0,0,2
3:11.925,69093,(,0,0,0
3:12.000,69120,p,0,0,0
3:12.039,69134,),0,0,0
3:12.042,69135,(,0,0,1
3:12.128,69166,N,0,0,0
3:12.172,69182,),0,0,1
3:12.194,69190,(,0,0,2
3:12.375,69255,t,0,0,5
3:12.675,69363,t,0,0,5
3:12.753,69391,),0,0,2
3:12.903,69445,(,0,0,0
3:12.975,69471,p,0,0,0
3:13.008,69483,),0,0,0
3:13.014,69485,(,0,0,1
3:13.100,69516,N,0,0,0
3:13.144,69532,),0,0,1
3:13.169,69541,(,0,0,2
3:13.353,69607,t,0,0,0
3:13.444,69640,),0,0,2
3:13.856,69788,(,0,0,0
3:13.914,69809,p,0,0,0
3:13.964,69827,),0,0,0
3:13.972,69830,(,0,0,1
3:14.042,69855,N,0,0,0
3:14.119,69883,),0,0,1
3:14.214,69917,(,0,0,2
3:14.281,69941,t,0,0,0
3:14.383,69978,),0,0,2
3:14.811,70132,(,0,0,0
3:14.858,70149,p,0,0,0
3:14.925,70173,),0,0,0
3:14.939,70178,(,0,0,1
3:15.006,70202,N,0,0,0
3:15.094,70234,),0,0,1
3:15.197,70271,(,0,0,2
3:15.258,70293,t,0,0,5
3:15.536,70393,t,0,0,5
3:15.622,70424,),0,0,2
3:15.781,70481,(,0,0,0
3:15.853,70507,p,0,0,0
3:15.886,70519,),0,0,0
3:15.906,70526,(,0,0,1
3:15.975,70551,N,0,0,0
3:16.017,70566,),0,0,1
3:16.067,70584,(,0,0,2
3:16.222,70640,t,0,0,5
3:16.600,70776,t,0,0,5
3:16.653,70795,),0,0,2
3:16.769,70837,(,0,0,0
3:16.831,70859,p,0,0,0
3:16.881,70877,),0,0,0
3:16.903,70885,(,0,0,1
3:16.972,70910,N,0,0,0
3:17.056,70940,),0,0,1
3:17.092,70953,(,0,0,2
3:17.222,71000,t,0,0,5
3:17.497,71099,t,0,0,5
3:17.528,71110,),0,0,2
3:17.794,71206,(,0,0,0
3:17.853,71227,p,0,0,0
3:17.900,71244,),0,0,0
3:17.911,71248,(,0,0,1
3:17.994,71278,N,0,0,0
3:18.036,71293,),0,0,1
3:18.061,71302,(,0,0,2
3:18.244,71368,t,0,0,5
3:18.542,71475,t,0,0,5
3:18.581,71489,),0,0,2
3:18.764,71555,(,0,0,0
3:18.822,71576,p,0,0,0
3:18.867,71592,),0,0,0
3:18.878,71596,(,0,0,1
3:18.950,71622,N,0,0,0
3:19.022,71648,),0,0,1
3:19.125,71685,(,0,0,2
3:19.197,71711,t,0,0,5
3:19.567,71844,t,0,0,5
3:19.625,71865,),0,0,2
3:19.742,71907,(,0,0,0
3:19.792,71925,p,0,0,0
3:19.847,71945,),0,0,0
3:19.872,71954,(,0,0,1
3:19.939,71978,N,0,0,0
3:20.028,72010,),0,0,1
3:20.094,72034,(,0,0,2
3:20.194,72070,t,0,0,5
3:20.472,72170,t,0,0,5
3:20.586,72211,),0,0,2
3:20.775,72279,(,0,0,0
3:20.828,72298,p,0,0,0
3:20.881,72317,),0,0,0
3:20.906,72326,(,0,0,1
3:20.969,72349,N,0,0,0
3:21.058,72381,),0,0,1
3:21.094,72394,(,0,0,2
3:21.225,72441,t,0,0,5
3:21.506,72542,t,0,0,5
3:21.583,72570,),0,0,2
3:21.783,72642,(,0,0,0
3:21.856,72668,p,0,0,0
3:21.897,72683,),0,0,0
3:21.911,72688,(,0,0,1
3:21.983,72714,N,0,0,0
3:22.058,72741,),0,0,1
3:22.194,72790,(,0,0,2
3:22.242,72807,t,0,0,5
3:22.511,72904,t,0,0,5
3:22.589,72932,),0,0,2
3:22.792,73005,(,0,0,0
3:22.856,73028,p,0,0,0
3:22.903,73045,),0,0,0
3:22.914,73049,(,0,0,1
3:22.989,73076,N,0,0,0
3:23.039,73094,),0,0,1
3:23.092,73113,(,0,0,2
3:23.256,73172,t,0,0,0
3:23.353,73207,),0,0,2
3:23.842,73383,(,0,0,0
3:23.889,73400,p,0,0,0
3:23.947,73421,),0,0,0
3:23.964,73427,(,0,0,1
3:24.031,73451,N,0,0,0
3:24.078,73468,),0,0,1
3:24.206,73514,(,0,0,2
3:24.289,73544,t,0,0,5
3:24.667,73680,t,0,0,5
3:24.728,73702,),0,0,2
3:24.867,73752,(,0,0,0
3:24.931,73775,p,0,0,0
3:24.975,73791,),0,0,0
3:24.981,73793,(,0,0,1
3:25.064,73823,N,0,0,0
3:25.111,73840,),0,0,1
3:25.239,73886,(,0,0,2
3:25.319,73915,t,0,0,5
3:25.667,74040,t,0,0,5
3:25.694,74050,),0,0,2
3:25.908,74127,(,0,0,0
3:25.958,74145,p,0,0,0
3:26.022,74168,),0,0,0
3:26.031,74171,(,0,0,1
3:26.108,74199,N,0,0,0
3:26.153,74215,),0,0,1
3:26.300,74268,(,0,0,2
3:26.364,74291,t,0,0,5
3:26.739,74426,t,0,0,5
3:26.786,74443,),0,0,2
3:26.936,74497,(,0,0,0
3:26.969,74509,p,0,0,0
3:27.044,74536,),0,0,0
3:27.050,74538,(,0,0,1
3:27.131,74567,N,0,0,0
3:27.197,74591,),0,0,1
3:27.300,74628,(,0,0,2
3:27.389,74660,t,0,0,5
3:27.631,74747,t,0,0,5
3:27.722,74780,),0,0,2
3:27.942,74859,(,0,0,0
3:28.000,74880,p,0,0,0
3:28.042,74895,),0,0,0
3:28.072,74906,(,0,0,1
3:28.128,74926,N,0,0,0
3:28.175,74943,),0,0,1
3:28.206,74954,(,0,0,2
3:28.383,75018,t,0,0,5
3:28.661,75118,t,0,0,5
3:28.700,75132,),0,0,2
3:28.967,75228,(,0,0,0
3:29.003,75241,p,0,0,0
3:29.061,75262,),0,0,0
3:29.081,75269,(,0,0,1
3:29.164,75299,N,0,0,0
3:29.228,75322,),0,0,1
3:29.361,75370,(,0,0,2
3:29.417,75390,t,0,0,0
3:29.517,75426,),0,0,2
3:29.983,75594,(,0,0,0
3:30.056,75620,p,0,0,0
3:30.092,75633,),0,0,0
3:30.114,75641,(,0,0,1
3:30.186,75667,N,0,0,0
3:30.233,75684,),0,0,1
3:30.383,75738,(,0,0,2
3:30.439,75758,t,0,0,0
3:30.553,75799,),0,0,2
3:30.981,75953,(,0,0,0
3:31.042,75975,p,0,0,0
3:31.086,75991,),0,0,0
3:31.111,76000,(,0,0,1
3:31.175,76023,N,0,0,0
3:31.219,76039,),0,0,1
3:31.336,76081,(,0,0,2
3:31.428,76114,t,0,0,5
3:31.706,76214,t,0,0,5
3:31.722,76220,),0,0,2
3:32.000,76320,(,0,0,0
3:32.058,76341,p,0,0,0
3:32.106,76358,),0,0,0
3:32.114,76361,(,0,0,1
3:32.192,76389,N,0,0,0
3:32.261,76414,),0,0,1
3:32.300,76428,(,0,0,2
3:32.453,76483,t,0,0,5
3:32.689,76568,t,0,0,5
3:32.819,76615,),0,0,2
3:33.003,76681,(,0,0,0
3:33.042,76695,p,0,0,0
3:33.108,76719,),0,0,0
3:33.117,76722,(,0,0,1
3:33.194,76750,N,0,0,0
3:33.258,76773,),0,0,1
3:33.372,76814,(,0,0,2
3:33.436,76837,t,0,0,5
3:33.711,76936,t,0,0,5
3:33.864,76991,),0,0,2
3:33.994,77038,(,0,0,0
3:34.064,77063,p,0,0,0
3:34.100,77076,),0,0,0
3:34.114,77081,(,0,0,1
3:34.192,77109,N,0,0,0
3:34.261,77134,),0,0,1
3:34.397,77183,(,0,0,2
3:34.456,77204,t,0,0,0
3:34.550,77238,),0,0,2
3:35.008,77403,(,0,0,0
3:35.072,77426,p,0,0,0
3:35.108,77439,),0,0,0
3:35.139,77450,(,0,0,1
3:35.197,77471,N,0,0,0
3:35.264,77495,),0,0,1
3:35.375,77535,(,0,0,2
3:35.414,77549,t,0,0,5
3:35.581,77609,t,0,0,5
3:35.600,77616,),0,0,2
3:35.978,77752,(,0,0,0
3:36.022,77768,p,0,0,0
3:36.042,77775,),0,0,0
3:36.086,77791,(,0,0,1
3:36.167,77820,N,0,0,0
3:36.306,77870,),0,0,1
3:36.361,77890,(,0,0,2
3:36.394,77902,t,0,0,5
3:36.725,78021,t,0,0,5
3:36.756,78032,),0,0,2
3:36.939,78098,(,0,0,0
3:37.008,78123,p,0,0,0
3:37.050,78138,),0,0,0
3:37.069,78145,(,0,0,1
3:37.139,78170,N,0,0,0
3:37.267,78216,),0,0,1
3:37.386,78259,(,0,0,2
3:37.408,78267,t,0,0,5
3:37.653,78355,t,0,0,5
3:37.667,78360,),0,0,2
3:37.939,78458,(,0,0,0
3:38.000,78480,p,0,0,0
3:38.031,78491,),0,0,0
3:38.069,78505,(,0,0,1
3:38.125,78525,N,0,0,0
3:38.231,78563,),0,0,1
3:38.336,78601,(,0,0,2
3:38.383,78618,t,0,0,5
3:38.703,78733,t,0,0,5
3:38.744,78748,),0,0,2
3:38.906,78806,(,0,0,0
3:38.958,78825,p,0,0,0
3:39.006,78842,),0,0,0
3:39.036,78853,(,0,0,1
3:39.094,78874,N,0,0,0
3:39.161,78898,),0,0,1
3:39.311,78952,(,0,0,2
3:39.358,78969,t,0,0,5
3:39.644,79072,t,0,0,5
3:39.667,79080,),0,0,2
3:39.778,79120,(,0,0,0
3:39.822,79136,p,0,0,0
3:39.886,79159,),0,0,0
3:39.978,79192,(,0,0,1
3:40.053,79219,N,0,0,0
3:40.136,79249,),0,0,1
3:40.144,79252,(,0,0,2
3:40.319,79315,t,0,0,5
3:40.608,79419,t,0,0,5
3:40.633,79428,),0,0,2
3:40.839,79502,(,0,0,0
3:40.869,79513,p,0,0,0
3:40.944,79540,),0,0,0
3:40.958,79545,(,0,0,1
3:41.025,79569,N,0,0,0
3:41.067,79584,),0,0,1
3:41.144,79612,(,0,0,2
3:41.281,79661,t,0,0,5
3:41.642,79791,t,0,0,5
3:41.661,79798,),0,0,2
3:41.800,79848,(,0,0,0
3:41.850,79866,p,0,0,0
3:41.897,79883,),0,0,0
3:41.911,79888,(,0,0,1
3:41.986,79915,N,0,0,0
3:42.064,79943,),0,0,1
3:42.172,79982,(,0,0,2
3:42.236,80005,t,0,0,5
3:42.525,80109,t,0,0,5
3:42.556,80120,),0,0,2
3:42.764,80195,(,0,0,0
3:42.806,80210,p,0,0,0
3:42.864,80231,),0,0,0
3:42.881,80237,(,0,0,1
3:42.950,80262,N,0,0,0
3:42.997,80279,),0,0,1
3:43.153,80335,(,0,0,2
3:43.197,80351,t,0,0,5
3:43.478,80452,t,0,0,5
3:43.492,80457,),0,0,2
3:43.731,80543,(,0,0,0
3:43.792,80565,p,0,0,0
3:43.839,80582,),0,0,0
3:43.853,80587,(,0,0,1
3:43.925,80613,N,0,0,0
3:43.975,80631,),0,0,1
3:44.092,80673,(,0,0,2
3:44.133,80688,t,0,0,5
3:44.478,80812,t,0,0,5
3:44.531,80831,),0,0,2
3:44.700,80892,(,0,0,0
3:44.758,80913,p,0,0,0
3:44.811,80932,),0,0,0
3:44.822,80936,(,0,0,1
3:44.892,80961,N,0,0,0
3:44.936,80977,),0,0,1
3:45.011,81004,(,0,0,2
3:45.061,81022,t,0,0,5
3:45.431,81155,t,0,0,5
3:45.464,81167,),0,0,2
3:45.631,81227,(,0,0,0
3:45.725,81261,p,0,0,0
3:45.761,81274,),0,0,0
3:45.786,81283,(,0,0,1
3:45.861,81310,N,0,0,0
3:45.939,81338,),0,0,1
3:46.081,81389,(,0,0,2
3:46.125,81405,t,0,0,5
3:46.444,81520,t,0,0,5
3:46.472,81530,),0,0,2
3:46.617,81582,(,0,0,0
3:46.686,81607,p,0,0,0
3:46.719,81619,),0,0,0
3:46.728,81622,(,0,0,1
3:46.811,81652,N,0,0,0
3:46.861,81670,),0,0,1
3:46.917,81690,(,0,0,2
3:47.064,81743,t,0,0,5
3:47.367,81852,t,0,0,5
3:47.397,81863,),0,0,2
3:47.581,81929,(,0,0,0
3:47.658,81957,p,0,0,0
3:47.683,81966,),0,0,0
3:47.714,81977,(,0,0,1
3:47.775,81999,N,0,0,0
3:47.822,82016,),0,0,1
3:47.950,82062,(,0,0,2
3:48.017,82086,t,0,0,5
3:48.342,82203,t,0,0,5
3:48.369,82213,),0,0,2
3:48.536,82273,(,0,0,0
3:48.589,82292,p,0,0,0
3:48.636,82309,),0,0,0
3:48.656,82316,(,0,0,1
3:48.725,82341,N,0,0,0
3:48.803,82369,),0,0,1
3:48.842,82383,(,0,0,2
3:48.869,82393,t,0,0,5
3:49.236,82525,t,0,0,5
3:49.264,82535,),0,0,2
3:49.519,82627,(,0,0,0
3:49.564,82643,p,0,0,0
3:49.608,82659,),0,0,0
3:49.619,82663,(,0,0,1
3:49.689,82688,N,0,0,0
3:49.731,82703,),0,0,1
3:49.864,82751,(,0,0,2
3:49.944,82780,t,0,0,5
3:50.231,82883,t,0,0,5
3:50.303,82909,),0,0,2
3:50.447,82961,(,0,0,0
3:50.464,82967,p,0,0,0
3:50.494,82978,),0,0,0
3:50.569,83005,(,0,0,1
3:50.661,83038,N,0,0,0
3:50.739,83066,),0,0,1
3:50.861,83110,(,0,0,2
3:50.906,83126,t,0,0,5
3:51.256,83252,t,0,0,5
3:51.317,83274,),0,0,2
3:51.422,83312,(,0,0,0
3:51.500,83340,p,0,0,0
3:51.556,83360,),0,0,0
3:51.569,83365,(,0,0,1
3:51.636,83389,N,0,0,0
3:51.686,83407,),0,0,1
3:51.731,83423,(,0,0,2
3:51.903,83485,t,0,0,5
3:52.164,83579,t,0,0,5
3:52.200,83592,),0,0,2
3:52.414,83669,(,0,0,0
3:52.478,83692,p,0,0,0
3:52.536,83713,),0,0,0
3:52.544,83716,(,0,0,1
3:52.608,83739,N,0,0,0
3:52.711,83776,),0,0,1
3:52.822,83816,(,0,0,2
3:52.864,83831,t,0,0,0
3:52.958,83865,),0,0,2
3:53.247,83969,(,0,0,0
3:53.319,83995,p,0,0,0
3:53.403,84025,),0,0,0
3:53.486,84055,(,0,0,1
3:53.564,84083,N,0,0,0
3:53.642,84111,),0,0,1
3:53.756,84152,(,0,0,2
3:53.803,84169,t,0,0,0
3:53.900,84204,),0,0,2
3:54.353,84367,(,0,0,0
3:54.414,84389,p,0,0,0
3:54.458,84405,),0,0,0
3:54.461,84406,(,0,0,1
3:54.550,84438,N,0,0,0
3:54.597,84455,),0,0,1
3:54.689,84488,(,0,0,2
3:54.794,84526,t,0,0,5
3:54.997,84599,t,0,0,5
3:55.194,84670,),0,0,2
3:55.317,84714,(,0,0,0
3:55.403,84745,p,0,0,0
3:55.419,84751,),0,0,0
3:55.436,84757,(,0,0,1
3:55.511,84784,N,0,0,0
3:55.556,84800,),0,0,1
3:55.622,84824,(,0,0,2
3:55.711,84856,t,0,0,5
3:56.122,85004,t,0,0,5
3:56.153,85015,),0,0,2
3:56.308,85071,(,0,0,0
3:56.364,85091,p,0,0,0
3:56.414,85109,),0,0,0
3:56.428,85114,(,0,0,1
3:56.494,85138,N,0,0,0
3:56.533,85152,),0,0,1
3:56.708,85215,(,0,0,2
3:56.742,85227,t,0,0,5
3:57.011,85324,t,0,0,5
3:57.081,85349,),0,0,2
3:57.267,85416,(,0,0,0
3:57.308,85431,p,0,0,0
3:57.378,85456,),0,0,0
3:57.422,85472,(,0,0,1
3:57.467,85488,N,0,0,0
3:57.550,85518,),0,0,1
3:57.683,85566,(,0,0,2
3:57.719,85579,t,0,0,5
3:58.003,85681,t,0,0,5
3:58.039,85694,),0,0,2
3:58.233,85764,(,0,0,0
3:58.267,85776,p,0,0,0
3:58.289,85784,),0,0,0
3:58.350,85806,(,0,0,1
3:58.364,85811,N,0,0,0
3:58.508,85863,),0,0,1
3:58.594,85894,(,0,0,2
3:58.644,85912,t,0,0,5
3:58.931,86015,t,0,0,5
3:59.003,86041,),0,0,2
3:59.158,86097,(,0,0,0
3:59.214,86117,p,0,0,0
3:59.269,86137,),0,0,0
3:59.297,86147,(,0,0,1
3:59.358,86169,N,0,0,0
3:59.439,86198,),0,0,1
3:59.553,86239,(,0,0,2
3:59.625,86265,t,0,0,5
3:59.847,86345,t,0,0,5
3:59.881,86357,),0,0,2
4:00.117,86442,(,0,0,0
4:00.189,86468,p,0,0,0
4:00.219,86479,),0,0,0
4:00.258,86493,(,0,0,1
4:00.308,86511,N,0,0,0
4:00.372,86534,),0,0,1
4:00.383,86538,(,0,0,2
4:00.456,86564,t,0,0,5
4:00.842,86703,t,0,0,5
4:00.864,86711,),0,0,2
4:01.058,86781,(,0,0,0
4:01.128,86806,p,0,0,0
4:01.158,86817,),0,0,0
4:01.200,86832,N,0,0,0
4:01.203,86833,(,0,0,1
4:01.319,86875,),0,0,1
4:01.425,86913,(,0,0,2
4:01.511,86944,t,0,0,5
4:01.792,87045,t,0,0,5
4:01.886,87079,),0,0,2
4:02.000,87120,(,0,0,0
4:02.078,87148,p,0,0,0
4:02.108,87159,),0,0,0
4:02.125,87165,(,0,0,1
4:02.197,87191,N,0,0,0
4:02.242,87207,),0,0,1
4:02.900,87444,(,0,0,0
4:02.919,87451,p,0,0,0
4:03.003,87481,),0,0,0
4:03.067,87504,(,0,0,1
4:03.158,87537,N,0,0,0
4:03.219,87559,),0,0,1
4:03.381,87617,(,0,0,2
4:03.414,87629,t,0,0,5
4:03.725,87741,t,0,0,5
4:03.758,87753,),0,0,2
4:03.903,87805,(,0,0,0
4:03.947,87821,p,0,0,0
4:03.986,87835,),0,0,0
4:04.011,87844,(,0,0,1
4:04.094,87874,N,0,0,0
4:04.142,87891,),0,0,1
4:04.225,87921,(,0,0,2
4:04.347,87965,t,0,0,5
4:04.644,88072,t,0,0,5
4:04.672,88082,),0,0,2
4:04.861,88150,(,0,0,0
4:04.947,88181,p,0,0,0
4:04.972,88190,),0,0,0
4:04.981,88193,(,0,0,1
4:05.044,88216,N,0,0,0
4:05.092,88233,),0,0,1
4:05.264,88295,(,0,0,2
4:05.286,88303,t,0,0,0
4:05.392,88341,),0,0,2
4:05.803,88489,(,0,0,0
4:05.883,88518,p,0,0,0
4:05.911,88528,),0,0,0
4:05.931,88535,(,0,0,1
4:06.008,88563,N,0,0,0
4:06.058,88581,),0,0,1
4:06.208,88635,(,0,0,2
4:06.253,88651,t,0,0,5
4:06.525,88749,t,0,0,5
4:06.547,88757,),0,0,2
4:06.772,88838,(,0,0,0
4:06.844,88864,p,0,0,0
4:06.875,88875,),0,0,0
4:06.900,88884,(,0,0,1
4:06.972,88910,N,0,0,0
4:07.014,88925,),0,0,1
4:07.164,88979,(,0,0,2
4:07.225,89001,t,0,0,5
4:07.528,89110,t,0,0,5
4:07.578,89128,),0,0,2
4:07.750,89190,(,0,0,0
4:07.817,89214,p,0,0,0
4:07.878,89236,),0,0,0
4:07.894,89242,(,0,0,1
4:07.961,89266,N,0,0,0
4:08.008,89283,),0,0,1
4:08.042,89295,(,0,0,2
4:08.081,89309,t,0,0,5
4:08.489,89456,t,0,0,5
4:08.514,89465,),0,0,2
4:08.750,89550,(,0,0,0
4:08.822,89576,p,0,0,0
4:08.856,89588,),0,0,0
4:08.881,89597,(,0,0,1
4:08.956,89624,N,0,0,0
4:09.003,89641,),0,0,1
4:09.031,89651,(,0,0,2
4:09.150,89694,t,0,0,5
4:09.519,89827,t,0,0,5
4:09.533,89832,),0,0,2
4:09.756,89912,(,0,0,0
4:09.814,89933,p,0,0,0
4:09.853,89947,),0,0,0
4:09.869,89953,(,0,0,1
4:09.886,89959,N,0,0,0
4:09.986,89995,),0,0,1
4:10.042,90015,(,0,0,2
4:10.169,90061,t,0,0,0
4:10.306,90110,),0,0,2
4:10.628,90226,(,0,0,0
4:10.683,90246,p,0,0,0
4:10.783,90282,),0,0,0
4:10.822,90296,(,0,0,1
4:10.886,90319,N,0,0,0
4:11.039,90374,),0,0,1
4:11.136,90409,(,0,0,2
4:11.208,90435,t,0,0,5
4:11.497,90539,t,0,0,5
4:11.517,90546,),0,0,2
4:11.764,90635,(,0,0,0
4:11.828,90658,p,0,0,0
4:11.883,90678,),0,0,0
4:11.894,90682,(,0,0,1
4:11.964,90707,N,0,0,0
4:12.006,90722,),0,0,1
4:12.144,90772,(,0,0,2
4:12.214,90797,t,0,0,5
4:12.503,90901,t,0,0,5
4:12.533,90912,),0,0,2
4:12.767,90996,(,0,0,0
4:12.817,91014,p,0,0,0
4:12.858,91029,),0,0,0
4:12.875,91035,(,0,0,1
4:12.908,91047,N,0,0,0
4:13.008,91083,),0,0,1
4:13.164,91139,(,0,0,2
4:13.239,91166,t,0,0,5
4:13.481,91253,t,0,0,5
4:13.508,91263,),0,0,2
4:13.628,91306,(,0,0,0
4:13.678,91324,p,0,0,0
4:13.753,91351,),0,0,0
4:13.814,91373,(,0,0,1
4:13.869,91393,N,0,0,0
4:13.925,91413,),0,0,1
4:14.786,91723,(,0,0,1
4:14.856,91748,N,0,0,0
4:14.914,91769,),0,0,1
4:15.706,92054,(,0,0,0
4:15.742,92067,p,0,0,0
4:15.764,92075,),0,0,0
4:15.814,92093,(,0,0,1
4:15.833,92100,N,0,0,0
4:15.983,92154,),0,0,1
4:16.044,92176,(,0,0,2
4:16.139,92210,t,0,0,5
4:16.500,92340,t,0,0,5
4:16.536,92353,),0,0,2
4:16.556,92360,(,0,0,0
4:16.558,92361,p,0,0,0
4:16.678,92404,),0,0,0
4:16.725,92421,(,0,0,1
4:16.844,92464,N,0,0,0
4:16.911,92488,),0,0,1
4:17.003,92521,(,0,0,2
4:17.078,92548,t,0,0,5
4:17.356,92648,t,0,0,5
4:17.381,92657,),0,0,2
4:17.617,92742,(,0,0,0
4:17.683,92766,p,0,0,0
4:17.733,92784,),0,0,0
4:17.744,92788,(,0,0,1
4:17.811,92812,N,0,0,0
4:17.858,92829,),0,0,1
4:17.972,92870,(,0,0,2
4:17.997,92879,t,0,0,5
4:18.269,92977,t,0,0,5
4:18.358,93009,),0,0,2
4:18.483,93054,(,0,0,0
4:18.533,93072,p,0,0,0
4:18.614,93101,),0,0,0
4:18.619,93103,(,0,0,1
4:18.714,93137,N,0,0,0
4:18.772,93158,),0,0,1
4:19.686,93487,(,0,0,1
4:19.692,93489,N,0,0,0
4:19.794,93526,),0,0,1
4:19.975,93591,(,0,0,2
4:20.011,93604,t,0,0,5
4:20.331,93719,t,0,0,5
4:20.361,93730,),0,0,2
4:20.569,93805,(,0,0,0
4:20.611,93820,p,0,0,0
4:20.661,93838,),0,0,0
4:20.694,93850,(,0,0,1
4:20.744,93868,N,0,0,0
4:20.792,93885,),0,0,1
4:20.828,93898,(,0,0,2
4:20.889,93920,t,0,0,5
4:21.303,94069,t,0,0,5
4:21.333,94080,),0,0,2
4:21.517,94146,(,0,0,0
4:21.567,94164,p,0,0,0
4:21.631,94187,),0,0,0
4:21.639,94190,(,0,0,1
4:21.664,94199,N,0,0,0
4:21.786,94243,),0,0,1
4:21.914,94289,(,0,0,2
4:21.972,94310,t,0,0,5
4:22.269,94417,t,0,0,5
4:22.297,94427,),0,0,2
4:22.394,94462,(,0,0,0
4:22.453,94483,p,0,0,0
4:22.528,94510,),0,0,0
4:22.608,94539,(,0,0,1
4:22.686,94567,N,0,0,0
4:22.739,94586,),0,0,1
4:22.889,94640,(,0,0,2
4:22.933,94656,t,0,0,5
4:23.247,94769,t,0,0,5
4:23.308,94791,),0,0,2
4:23.453,94843,(,0,0,0
4:23.469,94849,p,0,0,0
4:23.508,94863,),0,0,0
4:23.542,94875,(,0,0,1
4:23.614,94901,N,0,0,0
4:23.664,94919,),0,0,1
4:24.522,95228,(,0,0,0
4:24.589,95252,p,0,0,0
4:24.653,95275,),0,0,0
4:24.664,95279,(,0,0,1
4:24.742,95307,N,0,0,0
4:24.797,95327,),0,0,1
4:24.906,95366,(,0,0,2
4:24.933,95376,t,0,0,5
4:25.431,95555,t,0,0,5
4:25.450,95562,),0,0,2
4:25.642,95631,(,0,0,0
4:25.678,95644,p,0,0,0
4:25.717,95658,),0,0,0
4:25.731,95663,(,0,0,1
4:25.753,95671,N,0,0,0
4:25.922,95732,),0,0,1
4:25.967,95748,(,0,0,2
4:26.133,95808,t,0,0,1
4:26.250,95850,),0,0,2
4:26.258,95853,(,0,0,0
4:26.281,95861,p,0,0,0
4:26.303,95869,),0,0,0
4:26.469,95929,(,0,0,1
4:26.631,95987,N,0,0,0
4:26.681,96005,),0,0,1
4:27.478,96292,(,0,0,0
4:27.531,96311,p,0,0,0
4:27.575,96327,),0,0,0
4:27.603,96337,(,0,0,1
4:27.611,96340,N,0,0,0
4:27.717,96378,),0,0,1
4:27.883,96438,(,0,0,2
4:27.917,96450,t,0,0,5
4:28.208,96555,t,0,0,5
4:28.236,96565,),0,0,2
4:28.489,96656,(,0,0,0
4:28.561,96682,p,0,0,0
4:28.600,96696,),0,0,0
4:28.633,96708,(,0,0,1
4:28.642,96711,N,0,0,0
4:28.736,96745,),0,0,1
4:28.778,96760,(,0,0,2
4:28.808,96771,t,0,0,5
4:29.297,96947,t,0,0,5
4:29.344,96964,),0,0,2
4:29.428,96994,(,0,0,0
4:29.475,97011,p,0,0,0
4:29.550,97038,),0,0,0
4:29.594,97054,(,0,0,1
4:29.664,97079,N,0,0,0
4:29.864,97151,),0,0,1
4:29.903,97165,(,0,0,2
4:29.961,97186,t,0,0,5
4:30.314,97313,t,0,0,5
4:30.361,97330,),0,0,2
4:30.475,97371,(,0,0,0
4:30.558,97401,p,0,0,0
4:30.642,97431,),0,0,0
4:30.672,97442,(,0,0,1
4:30.678,97444,N,0,0,0
4:30.772,97478,),0,0,1
4:31.006,97562,(,0,0,2
4:31.267,97656,t,0,0,1
4:31.331,97679,),0,0,2
4:31.467,97728,(,0,0,0
4:31.511,97744,p,0,0,0
4:31.628,97786,),0,0,0
4:31.678,97804,(,0,0,1
4:31.831,97859,N,0,0,0
4:31.928,97894,),0,0,1
4:31.972,97910,(,0,0,2
4:32.014,97925,t,0,0,5
4:32.244,98008,t,0,0,5
4:32.297,98027,),0,0,2
4:32.583,98130,(,0,0,0
4:32.656,98156,p,0,0,0
4:32.683,98166,),0,0,0
4:32.708,98175,(,0,0,1
4:32.775,98199,N,0,0,0
4:32.819,98215,),0,0,1
4:32.972,98270,(,0,0,2
4:32.994,98278,t,0,0,0
4:33.133,98328,),0,0,2
4:33.603,98497,(,0,0,0
4:33.661,98518,p,0,0,0
4:33.706,98534,),0,0,0
4:33.719,98539,(,0,0,1
4:33.739,98546,N,0,0,0
4:33.861,98590,),0,0,1
4:33.908,98607,(,0,0,2
4:34.047,98657,t,0,0,5
4:34.375,98775,t,0,0,5
4:34.433,98796,),0,0,2
4:34.642,98871,(,0,0,0
4:34.686,98887,p,0,0,0
4:34.733,98904,),0,0,0
4:34.747,98909,(,0,0,1
4:34.772,98918,N,0,0,0
4:34.875,98955,),0,0,1
4:34.897,98963,(,0,0,2
4:35.072,99026,t,0,0,5
4:35.319,99115,t,0,0,5
4:35.386,99139,),0,0,2
4:35.781,99281,(,0,0,1
4:35.828,99298,N,0,0,0
4:35.897,99323,),0,0,1
4:35.903,99325,(,0,0,2
4:36.094,99394,t,0,0,5
4:36.314,99473,t,0,0,5
4:36.558,99561,),0,0,2
4:36.783,99642,(,0,0,1
4:36.842,99663,N,0,0,0
4:36.928,99694,),0,0,1
4:37.050,99738,(,0,0,2
4:37.106,99758,t,0,0,5
4:37.364,99851,t,0,0,5
4:37.464,99887,),0,0,2
4:37.786,100003,(,0,0,1
4:37.858,100029,N,0,0,0
4:37.933,100056,),0,0,1
4:37.967,100068,(,0,0,2
4:38.106,100118,t,0,0,5
4:38.411,100228,t,0,0,5
4:38.506,100262,),0,0,2
4:38.819,100375,(,0,0,1
4:38.869,100393,N,0,0,0
4:38.933,100416,),0,0,1
4:38.936,100417,(,0,0,2
4:39.111,100480,t,0,0,5
4:39.389,100580,t,0,0,5
4:39.500,100620,),0,0,2
4:39.817,100734,(,0,0,1
4:39.875,100755,N,0,0,0
4:39.939,100778,),0,0,1
4:40.039,100814,(,0,0,2
4:40.128,100846,t,0,0,5
4:40.403,100945,t,0,0,5
4:40.428,100954,),0,0,2
4:40.850,101106,(,0,0,1
4:40.889,101120,N,0,0,0
4:40.975,101151,),0,0,1
4:41.064,101183,(,0,0,2
4:41.136,101209,t,0,0,5
4:41.469,101329,t,0,0,5
4:41.522,101348,),0,0,2
4:41.853,101467,(,0,0,1
4:41.906,101486,N,0,0,0
4:41.956,101504,),0,0,1
4:42.106,101558,(,0,0,2
4:42.164,101579,t,0,0,5
4:42.503,101701,t,0,0,5
4:42.542,101715,),0,0,2
4:42.886,101839,(,0,0,1
4:42.942,101859,N,0,0,0
4:42.992,101877,),0,0,1
4:43.008,101883,(,0,0,2
4:43.197,101951,t,0,0,5
4:43.575,102087,t,0,0,5
4:43.597,102095,),0,0,2
4:43.919,102211,(,0,0,1
4:43.967,102228,N,0,0,0
4:44.036,102253,),0,0,1
4:44.150,102294,(,0,0,2
4:44.222,102320,t,0,0,5
4:44.617,102462,t,0,0,5
4:44.672,102482,),0,0,2
4:44.956,102584,(,0,0,1
4:45.003,102601,N,0,0,0
4:45.069,102625,),0,0,1
4:45.206,102674,(,0,0,2
4:45.264,102695,t,0,0,5
4:45.575,102807,t,0,0,5
4:45.769,102877,),0,0,2
4:46.017,102966,(,0,0,1
4:46.061,102982,N,0,0,0
4:46.133,103008,),0,0,1
4:46.214,103037,(,0,0,2
4:46.319,103075,t,0,0,5
4:46.722,103220,t,0,0,5
4:46.769,103237,),0,0,2
4:47.058,103341,(,0,0,1
4:47.103,103357,N,0,0,0
4:47.172,103382,),0,0,1
4:47.306,103430,(,0,0,2
4:47.361,103450,t,0,0,5
4:47.781,103601,t,0,0,5
4:47.806,103610,),0,0,2
4:48.083,103710,(,0,0,1
4:48.133,103728,N,0,0,0
4:48.186,103747,),0,0,1
4:48.322,103796,(,0,0,2
4:48.406,103826,t,0,0,0
4:48.511,103864,),0,0,2
4:49.119,104083,(,0,0,1
4:49.169,104101,N,0,0,0
4:49.214,104117,),0,0,1
4:49.350,104166,(,0,0,2
4:49.417,104190,t,0,0,5
4:49.881,104357,t,0,0,5
4:49.914,104369,),0,0,2
4:50.150,104454,(,0,0,1
4:50.200,104472,N,0,0,0
4:50.244,104488,),0,0,1
4:50.392,104541,(,0,0,2
4:50.456,104564,t,0,0,5
4:50.719,104659,t,0,0,5
4:50.906,104726,),0,0,2
4:51.183,104826,(,0,0,1
4:51.225,104841,N,0,0,0
4:51.275,104859,),0,0,1
4:51.325,104877,(,0,0,2
4:51.497,104939,t,0,0,5
4:51.858,105069,t,0,0,5
4:51.897,105083,),0,0,2
4:52.175,105183,(,0,0,1
4:52.222,105200,N,0,0,0
4:52.264,105215,),0,0,1
4:52.394,105262,(,0,0,2
4:52.469,105289,t,0,0,5
4:52.756,105392,t,0,0,5
4:52.844,105424,),0,0,2
4:53.186,105547,(,0,0,1
4:53.233,105564,N,0,0,0
4:53.275,105579,),0,0,1
4:53.414,105629,(,0,0,2
4:53.497,105659,t,0,0,5
4:53.833,105780,t,0,0,5
4:53.897,105803,),0,0,2
4:54.200,105912,(,0,0,1
4:54.261,105934,N,0,0,0
4:54.339,105962,),0,0,1
4:54.350,105966,(,0,0,2
4:54.519,106027,t,0,0,5
4:54.764,106115,t,0,0,5
4:54.833,106140,),0,0,2
4:55.194,106270,(,0,0,1
4:55.253,106291,N,0,0,0
4:55.347,106325,),0,0,1
4:55.408,106347,(,0,0,2
4:55.508,106383,t,0,0,5
4:55.814,106493,t,0,0,5
4:55.942,106539,),0,0,2
4:56.192,106629,(,0,0,1
4:56.242,106647,N,0,0,0
4:56.308,106671,),0,0,1
4:56.342,106683,(,0,0,2
4:56.503,106741,t,0,0,5
4:56.786,106843,t,0,0,5
4:56.872,106874,),0,0,2
4:57.194,106990,(,0,0,1
4:57.244,107008,N,0,0,0
4:57.308,107031,),0,0,1
4:57.311,107032,(,0,0,2
4:57.503,107101,t,0,0,5
4:57.789,107204,t,0,0,5
4:57.847,107225,),0,0,2
4:58.164,107339,(,0,0,1
4:58.239,107366,N,0,0,0
4:58.308,107391,),0,0,1
4:58.317,107394,(,0,0,2
4:58.492,107457,t,0,0,5
4:58.814,107573,t,0,0,5
4:58.844,107584,),0,0,2
4:59.183,107706,(,0,0,1
4:59.233,107724,N,0,0,0
4:59.311,107752,),0,0,1
4:59.325,107757,(,0,0,2
4:59.486,107815,t,0,0,5
4:59.758,107913,t,0,0,5
4:59.869,107953,),0,0,2
5:00.164,108059,(,0,0,1
5:00.233,108084,N,0,0,0
5:00.322,108116,),0,0,1
5:00.406,108146,(,0,0,2
5:00.481,108173,t,0,0,5
5:00.733,108264,t,0,0,5
5:00.772,108278,),0,0,2
5:01.169,108421,(,0,0,1
5:01.222,108440,N,0,0,0
5:01.272,108458,),0,0,1
5:01.294,108466,(,0,0,2
5:01.475,108531,t,0,0,0
5:01.589,108572,),0,0,2
5:02.131,108767,(,0,0,1
5:02.203,108793,N,0,0,0
5:02.283,108822,),0,0,1
5:02.394,108862,(,0,0,2
5:02.475,108891,t,0,0,5
5:02.856,109028,t,0,0,5
5:02.892,109041,),0,0,2
5:03.081,109109,(,0,0,1
5:03.197,109151,N,0,0,0
5:03.281,109181,),0,0,1
5:03.403,109225,(,0,0,2
5:03.464,109247,t,0,0,5
5:03.669,109321,t,0,0,5
5:03.869,109393,),0,0,2
5:04.133,109488,(,0,0,1
5:04.194,109510,N,0,0,0
5:04.278,109540,),0,0,1
5:05.100,109836,(,0,0,1
5:05.178,109864,N,0,0,0
5:05.247,109889,),0,0,1
5:05.264,109895,(,0,0,2
5:05.439,109958,t,0,0,5
5:05.783,110082,t,0,0,5
5:05.814,110093,),0,0,2
5:06.133,110208,(,0,0,1
5:06.181,110225,N,0,0,0
5:06.250,110250,),0,0,1
5:06.328,110278,(,0,0,2
5:06.439,110318,t,0,0,5
5:06.775,110439,t,0,0,5
5:06.808,110451,),0,0,2
5:07.133,110568,(,0,0,1
5:07.186,110587,N,0,0,0
5:07.250,110610,),0,0,1
5:07.386,110659,(,0,0,2
5:07.447,110681,t,0,0,5
5:07.800,110808,t,0,0,5
5:07.847,110825,),0,0,2
5:08.136,110929,(,0,0,1
5:08.214,110957,N,0,0,0
5:08.283,110982,),0,0,1
5:08.419,111031,(,0,0,2
5:08.475,111051,t,0,0,0
5:08.586,111091,),0,0,2
5:09.183,111306,(,0,0,1
5:09.228,111322,N,0,0,0
5:09.272,111338,),0,0,1
5:09.431,111395,(,0,0,2
5:09.483,111414,t,0,0,5
5:09.756,111512,t,0,0,5
5:09.908,111567,),0,0,2
5:10.183,111666,(,0,0,1
5:10.225,111681,N,0,0,0
5:10.272,111698,),0,0,1
5:10.403,111745,(,0,0,2
5:10.478,111772,t,0,0,5
5:10.897,111923,t,0,0,5
5:10.928,111934,),0,0,2
5:11.203,112033,(,0,0,1
5:11.264,112055,N,0,0,0
5:11.306,112070,),0,0,1
5:11.458,112125,(,0,0,2
5:11.517,112146,t,0,0,0
5:11.622,112184,),0,0,2
5:12.233,112404,(,0,0,1
5:12.281,112421,N,0,0,0
5:12.347,112445,),0,0,1
5:12.464,112487,(,0,0,2
5:12.536,112513,t,0,0,5
5:12.831,112619,t,0,0,5
5:12.911,112648,),0,0,2
5:13.244,112768,(,0,0,1
5:13.294,112786,N,0,0,0
5:13.342,112803,),0,0,1
5:13.433,112836,(,0,0,2
5:13.553,112879,t,0,0,5
5:13.836,112981,t,0,0,5
5:13.956,113024,),0,0,2
5:14.269,113137,(,0,0,1
5:14.314,113153,N,0,0,0
5:14.361,113170,),0,0,1
5:14.503,113221,(,0,0,2
5:14.572,113246,t,0,0,5
5:14.864,113351,t,0,0,5
5:14.922,113372,),0,0,2
5:15.292,113505,(,0,0,1
5:15.336,113521,N,0,0,0
5:15.378,113536,),0,0,1
5:15.425,113553,(,0,0,2
5:15.594,113614,t,0,0,5
5:15.997,113759,t,0,0,5
5:16.078,113788,),0,0,2
5:16.325,113877,(,0,0,1
5:16.369,113893,N,0,0,0
5:16.417,113910,),0,0,1
5:16.442,113919,(,0,0,2
5:16.642,113991,t,0,0,5
5:16.892,114081,t,0,0,5
5:16.931,114095,),0,0,2
5:17.350,114246,(,0,0,1
5:17.392,114261,N,0,0,0
5:17.439,114278,),0,0,1
5:17.464,114287,(,0,0,2
5:17.642,114351,t,0,0,0
5:17.747,114389,),0,0,2
5:18.350,114606,(,0,0,1
5:18.397,114623,N,0,0,0
5:18.442,114639,),0,0,1
5:18.486,114655,(,0,0,2
5:18.661,114718,t,0,0,5
5:18.956,114824,t,0,0,5
5:19.097,114875,),0,0,2
5:19.372,114974,(,0,0,1
5:19.425,114993,N,0,0,0
5:19.478,115012,),0,0,1
5:19.567,115044,(,0,0,2
5:19.689,115088,t,0,0,0
5:19.942,115179,),0,0,2
5:20.403,115345,(,0,0,1
5:20.439,115358,N,0,0,0
5:20.517,115386,),0,0,1
5:20.661,115438,(,0,0,2
5:20.714,115457,t,0,0,5
5:20.994,115558,t,0,0,5
5:21.022,115568,),0,0,2
5:21.381,115697,(,0,0,1
5:21.419,115711,N,0,0,0
5:21.486,115735,),0,0,1
5:21.564,115763,(,0,0,2
5:21.667,115800,t,0,0,5
5:21.939,115898,t,0,0,5
5:21.983,115914,),0,0,2
5:22.383,116058,(,0,0,1
5:22.431,116075,N,0,0,0
5:22.472,116090,),0,0,1
5:22.503,116101,(,0,0,2
5:22.686,116167,t,0,0,5
5:22.914,116249,t,0,0,5
5:23.061,116302,),0,0,2
5:23.342,116403,(,0,0,1
5:23.403,116425,N,0,0,0
5:23.450,116442,),0,0,1
5:23.569,116485,(,0,0,2
5:23.669,116521,t,0,0,5
5:24.000,116640,t,0,0,5
5:24.061,116662,),0,0,2
5:24.325,116757,(,0,0,1
5:24.369,116773,N,0,0,0
5:24.417,116790,),0,0,1
5:24.472,116810,(,0,0,2
5:24.631,116867,t,0,0,5
5:24.897,116963,t,0,0,5
5:24.936,116977,),0,0,2
5:25.325,117117,(,0,0,1
5:25.369,117133,N,0,0,0
5:25.414,117149,),0,0,1
5:25.553,117199,(,0,0,2
5:25.628,117226,t,0,0,5
5:25.844,117304,t,0,0,5
5:25.994,117358,),0,0,2
5:26.283,117462,(,0,0,1
5:26.325,117477,N,0,0,0
5:26.372,117494,),0,0,1
5:26.481,117533,(,0,0,2
5:26.583,117570,t,0,0,5
5:26.878,117676,t,0,0,5
5:26.928,117694,),0,0,2
5:27.239,117806,(,0,0,1
5:27.286,117823,N,0,0,0
5:27.333,117840,),0,0,1
5:27.472,117890,(,0,0,2
5:27.553,117919,t,0,0,5
5:27.875,118035,t,0,0,5
5:27.925,118053,),0,0,2
5:28.211,118156,(,0,0,1
5:28.267,118176,N,0,0,0
5:28.314,118193,),0,0,1
5:28.336,118201,(,0,0,2
5:28.519,118267,t,0,0,5
5:28.814,118373,t,0,0,5
5:28.858,118389,),0,0,2
5:28.881,118397,(,0,0,0
5:28.933,118416,p,0,0,0
5:28.961,118426,),0,0,0
5:29.172,118502,(,0,0,1
5:29.225,118521,N,0,0,0
5:29.297,118547,),0,0,1
5:29.375,118575,(,0,0,2
5:29.489,118616,t,0,0,5
5:29.742,118707,t,0,0,5
5:29.894,118762,),0,0,2
5:30.153,118855,(,0,0,1
5:30.200,118872,N,0,0,0
5:30.250,118890,),0,0,1
5:30.269,118897,(,0,0,2
5:30.469,118969,t,0,0,5
5:30.814,119093,t,0,0,5
5:30.881,119117,),0,0,2
5:31.147,119213,(,0,0,1
5:31.197,119231,N,0,0,0
5:31.275,119259,),0,0,1
5:31.336,119281,(,0,0,2
5:31.450,119322,t,0,0,5
5:31.900,119484,t,0,0,5
5:31.939,119498,),0,0,2
5:32.181,119585,(,0,0,1
5:32.225,119601,N,0,0,0
5:32.294,119626,),0,0,1
5:32.308,119631,(,0,0,2
5:32.486,119695,t,0,0,5
5:32.742,119787,t,0,0,5
5:32.861,119830,),0,0,2
5:33.217,119958,(,0,0,1
5:33.267,119976,N,0,0,0
5:33.317,119994,),0,0,1
5:33.439,120038,(,0,0,2
5:33.525,120069,t,0,0,5
5:33.808,120171,t,0,0,5
5:33.922,120212,),0,0,2
5:34.239,120326,(,0,0,1
5:34.286,120343,N,0,0,0
5:34.331,120359,),0,0,1
5:34.481,120413,(,0,0,2
5:34.536,120433,t,0,0,5
5:34.819,120535,t,0,0,5
5:34.861,120550,),0,0,2
5:35.261,120694,(,0,0,1
5:35.308,120711,N,0,0,0
5:35.353,120727,),0,0,1
5:35.481,120773,(,0,0,2
5:35.564,120803,t,0,0,5
5:35.936,120937,t,0,0,5
5:36.003,120961,),0,0,2
5:36.314,121073,(,0,0,1
5:36.356,121088,N,0,0,0
5:36.433,121116,),0,0,1
5:36.514,121145,(,0,0,2
5:36.625,121185,t,0,0,5
5:36.875,121275,t,0,0,5
5:36.922,121292,),0,0,2
5:37.344,121444,(,0,0,1
5:37.389,121460,N,0,0,0
5:37.436,121477,),0,0,1
5:37.486,121495,(,0,0,2
5:37.642,121551,t,0,0,5
5:37.944,121660,t,0,0,5
5:38.031,121691,),0,0,2
5:38.364,121811,(,0,0,1
5:38.411,121828,N,0,0,0
5:38.456,121844,),0,0,1
5:38.500,121860,(,0,0,2
5:38.667,121920,t,0,0,5
5:38.914,122009,t,0,0,5
5:39.072,122066,),0,0,2
5:39.381,122177,(,0,0,1
5:39.431,122195,N,0,0,0
5:39.478,122212,),0,0,1
5:39.606,122258,(,0,0,2
5:39.700,122292,t,0,0,5
5:39.939,122378,t,0,0,5
5:40.031,122411,),0,0,2
5:40.394,122542,(,0,0,1
5:40.444,122560,N,0,0,0
5:40.494,122578,),0,0,1
5:40.517,122586,(,0,0,2
5:40.700,122652,t,0,0,5
5:40.933,122736,t,0,0,5
5:41.133,122808,),0,0,2
5:41.386,122899,(,0,0,1
5:41.450,122922,N,0,0,0
5:41.497,122939,),0,0,1
5:41.536,122953,(,0,0,2
5:41.708,123015,t,0,0,5
5:42.081,123149,t,0,0,5
5:42.131,123167,),0,0,2
5:42.414,123269,(,0,0,1
5:42.461,123286,N,0,0,0
5:42.508,123303,),0,0,1
5:42.639,123350,(,0,0,2
5:42.717,123378,t,0,0,5
5:43.019,123487,t,0,0,5
5:43.122,123524,),0,0,2
5:43.397,123623,(,0,0,1
5:43.456,123644,N,0,0,0
5:43.503,123661,),0,0,1
5:43.572,123686,(,0,0,2
5:43.722,123740,t,0,0,5
5:44.006,123842,t,0,0,5
5:44.067,123864,),0,0,2
5:44.417,123990,(,0,0,1
5:44.469,124009,N,0,0,0
5:44.536,124033,),0,0,1
5:44.669,124081,(,0,0,2
5:44.733,124104,t,0,0,5
5:45.014,124205,t,0,0,5
5:45.131,124247,),0,0,2
5:45.456,124364,(,0,0,1
5:45.506,124382,N,0,0,0
5:45.567,124404,),0,0,1
5:45.586,124411,(,0,0,2
5:45.772,124478,t,0,0,0
5:45.872,124514,),0,0,2
5:46.456,124724,(,0,0,1
5:46.506,124742,N,0,0,0
5:46.669,124801,),0,0,1
5:46.711,124816,(,0,0,2
5:46.772,124838,t,0,0,5
5:47.111,124960,t,0,0,5
5:47.172,124982,),0,0,2
5:47.183,124986,(,0,0,0
5:47.239,125006,p,0,0,0
5:47.333,125040,),0,0,0
5:47.425,125073,(,0,0,1
5:47.478,125092,N,0,0,0
5:47.553,125119,),0,0,1
5:47.583,125130,(,0,0,2
5:47.747,125189,t,0,0,5
5:47.956,125264,t,0,0,5
5:48.114,125321,),0,0,2
5:48.422,125432,(,0,0,1
5:48.472,125450,N,0,0,0
5:48.519,125467,),0,0,1
5:48.678,125524,(,0,0,2
5:48.722,125540,t,0,0,5
5:48.983,125634,t,0,0,5
5:49.014,125645,),0,0,2
5:49.400,125784,(,0,0,1
5:49.444,125800,N,0,0,0
5:49.489,125816,),0,0,1
5:49.517,125826,(,0,0,2
5:49.697,125891,t,0,0,0
5:49.786,125923,),0,0,2
5:50.392,126141,(,0,0,1
5:50.444,126160,N,0,0,0
5:50.492,126177,),0,0,1
5:50.514,126185,(,0,0,2
5:50.700,126252,t,0,0,5
5:50.986,126355,t,0,0,5
5:51.061,126382,),0,0,2
5:51.392,126501,(,0,0,1
5:51.444,126520,N,0,0,0
5:51.492,126537,),0,0,1
5:51.617,126582,(,0,0,2
5:51.697,126611,t,0,0,5
5:51.958,126705,t,0,0,5
5:52.133,126768,),0,0,2
5:52.392,126861,(,0,0,1
5:52.439,126878,N,0,0,0
5:52.483,126894,),0,0,1
5:52.628,126946,(,0,0,2
5:52.692,126969,t,0,0,5
5:52.989,127076,t,0,0,5
5:53.072,127106,),0,0,2
5:53.428,127234,(,0,0,1
5:53.478,127252,N,0,0,0
5:53.525,127269,),0,0,1
5:53.611,127300,(,0,0,2
5:53.739,127346,t,0,0,5
5:54.019,127447,t,0,0,5
5:54.108,127479,),0,0,2
5:54.453,127603,(,0,0,1
5:54.506,127622,N,0,0,0
5:54.553,127639,),0,0,1
5:54.578,127648,(,0,0,2
5:54.767,127716,t,0,0,5
5:55.083,127830,t,0,0,5
5:55.181,127865,),0,0,2
5:55.481,127973,(,0,0,1
5:55.531,127991,N,0,0,0
5:55.575,128007,),0,0,1
5:55.694,128050,(,0,0,2
5:55.781,128081,t,0,0,5
5:56.150,128214,t,0,0,5
5:56.178,128224,),0,0,2
5:56.519,128347,(,0,0,1
5:56.569,128365,N,0,0,0
5:56.614,128381,),0,0,1
5:56.722,128420,(,0,0,2
5:56.833,128460,t,0,0,5
5:57.056,128540,t,0,0,5
5:57.150,128574,),0,0,2
5:57.497,128699,(,0,0,1
5:57.514,128705,N,0,0,0
5:57.639,128750,),0,0,1
5:58.556,129080,(,0,0,1
5:58.606,129098,N,0,0,0
5:58.681,129125,),0,0,1
5:58.786,129163,(,0,0,2
5:58.864,129191,t,0,0,0
5:58.964,129227,),0,0,2
5:59.617,129462,(,0,0,1
5:59.661,129478,N,0,0,0
5:59.703,129493,),0,0,1
5:59.764,129515,(,0,0,2
5:59.911,129568,t,0,0,5
6:00.194,129670,t,0,0,5
6:00.269,129697,),0,0,2
6:00.658,129837,(,0,0,1
6:00.706,129854,N,0,0,0
6:00.753,129871,),0,0,1
6:00.975,129951,(,0,0,2
6:01.094,129994,t,0,0,1
6:01.383,130098,),0,0,2
6:01.675,130203,(,0,0,1
6:01.722,130220,N,0,0,0
6:01.767,130236,),0,0,1
6:01.850,130266,(,0,0,2
6:01.975,130311,t,0,0,5
6:02.358,130449,t,0,0,5
6:02.408,130467,),0,0,2
6:02.722,130580,(,0,0,1
6:02.772,130598,N,0,0,0
6:02.817,130614,),0,0,1
6:02.847,130625,(,0,0,2
6:03.031,130691,t,0,0,5
6:03.292,130785,t,0,0,5
6:03.411,130828,),0,0,2
6:03.756,130952,(,0,0,1
6:03.806,130970,N,0,0,0
6:03.850,130986,),0,0,1
6:03.875,130995,(,0,0,2
6:04.067,131064,t,0,0,5
6:04.392,131181,t,0,0,5
6:04.497,131219,),0,0,2
6:04.764,131315,(,0,0,1
6:04.817,131334,N,0,0,0
6:04.883,131358,),0,0,1
6:04.889,131360,(,0,0,2
6:05.083,131430,t,0,0,5
6:05.361,131530,t,0,0,5
6:05.447,131561,),0,0,2
6:05.761,131674,(,0,0,1
6:05.814,131693,N,0,0,0
6:05.881,131717,),0,0,1
6:05.894,131722,(,0,0,2
6:06.050,131778,t,0,0,5
6:06.358,131889,t,0,0,5
6:06.444,131920,),0,0,2
6:06.778,132040,(,0,0,1
6:06.825,132057,N,0,0,0
6:06.900,132084,),0,0,1
6:06.956,132104,(,0,0,2
6:07.083,132150,t,0,0,5
6:07.417,132270,t,0,0,5
6:07.467,132288,),0,0,2
6:07.800,132408,(,0,0,1
6:07.853,132427,N,0,0,0
6:07.903,132445,),0,0,1
6:07.958,132465,(,0,0,2
6:08.117,132522,t,0,0,5
6:08.383,132618,t,0,0,5
6:08.414,132629,),0,0,2
6:08.767,132756,(,0,0,1
6:08.839,132782,N,0,0,0
6:08.911,132808,),0,0,1
6:09.028,132850,(,0,0,2
6:09.083,132870,t,0,0,5
6:09.386,132979,t,0,0,5
6:09.486,133015,),0,0,2
6:09.769,133117,(,0,0,1
6:09.825,133137,N,0,0,0
6:09.875,133155,),0,0,1
6:09.897,133163,(,0,0,2
6:10.081,133229,t,0,0,5
6:10.394,133342,t,0,0,5
6:10.544,133396,),0,0,2
6:10.803,133489,(,0,0,1
6:10.850,133506,N,0,0,0
6:10.917,133530,),0,0,1
6:11.022,133568,(,0,0,2
6:11.108,133599,t,0,0,0
6:11.197,133631,),0,0,2
6:11.803,133849,(,0,0,1
6:11.850,133866,N,0,0,0
6:11.914,133889,),0,0,1
6:12.050,133938,(,0,0,2
6:12.106,133958,t,0,0,5
6:12.431,134075,t,0,0,5
6:12.481,134093,),0,0,2
6:12.800,134208,(,0,0,1
6:12.847,134225,N,0,0,0
6:12.914,134249,),0,0,1
6:12.936,134257,(,0,0,2
6:13.106,134318,t,0,0,5
6:13.336,134401,t,0,0,5
6:13.483,134454,),0,0,2
6:13.819,134575,(,0,0,1
6:13.867,134592,N,0,0,0
6:13.906,134606,),0,0,1
6:13.961,134626,(,0,0,2
6:14.108,134679,t,0,0,5
6:14.342,134763,t,0,0,5
6:14.522,134828,),0,0,2
6:14.814,134933,(,0,0,1
6:14.861,134950,N,0,0,0
6:14.903,134965,),0,0,1
6:14.925,134973,(,0,0,2
6:15.111,135040,t,0,0,5
6:15.369,135133,t,0,0,5
6:15.408,135147,),0,0,2
6:15.819,135295,(,0,0,1
6:15.867,135312,N,0,0,0
6:15.914,135329,),0,0,1
6:16.031,135371,(,0,0,2
6:16.119,135403,t,0,0,5
6:16.400,135504,t,0,0,5
6:16.489,135536,),0,0,2
6:16.831,135659,(,0,0,1
6:16.881,135677,N,0,0,0
6:16.928,135694,),0,0,1
6:16.947,135701,(,0,0,2
6:17.142,135771,t,0,0,5
6:17.372,135854,t,0,0,5
6:17.422,135872,),0,0,2
6:17.836,136021,(,0,0,1
6:17.886,136039,N,0,0,0
6:17.931,136055,),0,0,1
6:17.967,136068,(,0,0,2
6:18.133,136128,t,0,0,5
6:18.414,136229,t,0,0,5
6:18.450,136242,),0,0,2
6:18.839,136382,(,0,0,1
6:18.892,136401,N,0,0,0
6:18.939,136418,),0,0,1
6:18.964,136427,(,0,0,2
6:19.153,136495,t,0,0,5
6:19.400,136584,t,0,0,5
6:19.447,136601,),0,0,2
6:19.842,136743,(,0,0,1
6:19.894,136762,N,0,0,0
6:19.939,136778,),0,0,1
6:20.097,136835,(,0,0,2
6:20.153,136855,t,0,0,5
6:20.397,136943,t,0,0,5
6:20.547,136997,),0,0,2
6:20.811,137092,(,0,0,1
6:20.886,137119,N,0,0,0
6:20.953,137143,),0,0,1
6:21.036,137173,(,0,0,2
6:21.144,137212,t,0,0,5
6:21.467,137328,t,0,0,5
6:21.550,137358,),0,0,2
6:21.808,137451,(,0,0,1
6:21.867,137472,N,0,0,0
6:21.956,137504,),0,0,1
6:21.989,137516,(,0,0,2
6:22.133,137568,t,0,0,5
6:22.489,137696,t,0,0,5
6:22.519,137707,),0,0,2
6:22.783,137802,(,0,0,1
6:22.850,137826,N,0,0,0
6:22.919,137851,),0,0,1
6:23.058,137901,(,0,0,2
6:23.100,137916,t,0,0,5
6:23.406,138026,t,0,0,5
6:23.453,138043,),0,0,2
6:23.744,138148,(,0,0,1
6:23.819,138175,N,0,0,0
6:23.886,138199,),0,0,1
6:23.900,138204,(,0,0,2
6:24.069,138265,t,0,0,5
6:24.194,138310,t,0,0,5
6:24.222,138320,),0,0,2
6:24.778,138520,(,0,0,1
6:24.831,138539,N,0,0,0
6:24.878,138556,),0,0,1
6:24.903,138565,(,0,0,2
6:25.067,138624,t,0,0,5
6:25.336,138721,t,0,0,5
6:25.397,138743,),0,0,2
6:25.778,138880,(,0,0,1
6:25.822,138896,N,0,0,0
6:25.889,138920,),0,0,1
6:25.928,138934,(,0,0,2
6:26.072,138986,t,0,0,0
6:26.175,139023,),0,0,2
6:26.747,139229,(,0,0,1
6:26.800,139248,N,0,0,0
6:26.872,139274,),0,0,1
6:26.903,139285,(,0,0,2
6:27.056,139340,t,0,0,5
6:27.433,139476,t,0,0,5
6:27.483,139494,),0,0,2
6:27.742,139587,(,0,0,1
6:27.808,139611,N,0,0,0
6:27.892,139641,),0,0,1
6:28.011,139684,(,0,0,2
6:28.061,139702,t,0,0,5
6:28.311,139792,t,0,0,5
6:28.439,139838,),0,0,2
6:28.731,139943,(,0,0,1
6:28.778,139960,N,0,0,0
6:28.822,139976,),0,0,1
6:29.000,140040,(,0,0,2
6:29.039,140054,t,0,0,5
6:29.292,140145,t,0,0,5
6:29.406,140186,),0,0,2
6:29.683,140286,(,0,0,1
6:29.736,140305,N,0,0,0
6:29.781,140321,),0,0,1
6:29.911,140368,(,0,0,2
6:30.000,140400,t,0,0,5
6:30.269,140497,t,0,0,5
6:30.406,140546,),0,0,2
6:30.656,140636,(,0,0,1
6:30.706,140654,N,0,0,0
6:30.747,140669,),0,0,1
6:30.778,140680,(,0,0,2
6:30.953,140743,t,0,0,0
6:31.044,140776,),0,0,2
6:31.619,140983,(,0,0,1
6:31.672,141002,N,0,0,0
6:31.714,141017,),0,0,1
6:31.769,141037,(,0,0,2
6:31.928,141094,t,0,0,5
6:32.186,141187,t,0,0,5
6:32.219,141199,),0,0,2
6:32.581,141329,(,0,0,1
6:32.636,141349,N,0,0,0
6:32.686,141367,),0,0,1
6:32.811,141412,(,0,0,2
6:32.897,141443,t,0,0,5
6:33.203,141553,t,0,0,5
6:33.231,141563,),0,0,2
6:33.553,141679,(,0,0,1
6:33.600,141696,N,0,0,0
6:33.644,141712,),0,0,1
6:33.797,141767,(,0,0,2
6:33.853,141787,t,0,0,5
6:34.133,141888,t,0,0,5
6:34.197,141911,),0,0,2
6:34.475,142011,(,0,0,1
6:34.519,142027,N,0,0,0
6:34.592,142053,),0,0,1
6:34.642,142071,(,0,0,2
6:34.764,142115,t,0,0,5
6:35.022,142208,t,0,0,5
6:35.058,142221,),0,0,2
6:35.353,142327,(,0,0,1
6:35.431,142355,N,0,0,0
6:35.494,142378,),0,0,1
6:35.511,142384,(,0,0,2
6:35.686,142447,t,0,0,5
6:35.975,142551,t,0,0,5
6:36.061,142582,),0,0,2
6:36.319,142675,(,0,0,1
6:36.372,142694,N,0,0,0
6:36.417,142710,),0,0,1
6:36.444,142720,(,0,0,2
6:36.631,142787,t,0,0,5
6:36.883,142878,t,0,0,5
6:36.992,142917,),0,0,2
6:37.239,143006,(,0,0,1
6:37.283,143022,N,0,0,0
6:37.325,143037,),0,0,1
6:37.444,143080,(,0,0,2
6:37.531,143111,t,0,0,5
6:37.833,143220,t,0,0,5
6:37.864,143231,),0,0,2
6:38.111,143320,(,0,0,1
6:38.164,143339,N,0,0,0
6:38.208,143355,),0,0,1
6:38.344,143404,(,0,0,2
6:38.417,143430,t,0,0,5
6:38.731,143543,t,0,0,5
6:38.761,143554,),0,0,2
6:39.014,143645,(,0,0,1
6:39.058,143661,N,0,0,0
6:39.100,143676,),0,0,1
6:39.261,143734,(,0,0,2
6:39.306,143750,t,0,0,5
6:39.600,143856,t,0,0,5
6:39.631,143867,),0,0,2
6:39.875,143955,(,0,0,1
6:39.919,143971,N,0,0,0
6:39.967,143988,),0,0,1
6:40.081,144029,(,0,0,2
6:40.167,144060,t,0,0,5
6:40.408,144147,t,0,0,5
6:40.431,144155,),0,0,2
6:40.722,144260,(,0,0,1
6:40.772,144278,N,0,0,0
6:40.822,144296,),0,0,1
6:40.875,144315,(,0,0,2
6:41.019,144367,t,0,0,5
6:41.133,144408,t,0,0,5
6:41.164,144419,),0,0,2
6:41.594,144574,(,0,0,1
6:41.639,144590,N,0,0,0
6:41.689,144608,),0,0,1
6:41.842,144663,(,0,0,2
6:41.889,144680,t,0,0,5
6:41.992,144717,t,0,0,5
6:42.058,144741,),0,0,2
6:42.447,144881,(,0,0,1
6:42.494,144898,N,0,0,0
6:42.542,144915,),0,0,1
6:42.586,144931,(,0,0,2
6:42.731,144983,t,0,0,5
6:42.844,145024,t,0,0,5
6:42.869,145033,),0,0,2
6:43.317,145194,(,0,0,1
6:43.361,145210,N,0,0,0
6:43.408,145227,),0,0,1
6:43.517,145266,(,0,0,2
6:43.608,145299,t,0,0,5
6:43.919,145411,t,0,0,5
6:43.967,145428,),0,0,2
6:44.197,145511,(,0,0,1
6:44.244,145528,N,0,0,0
6:44.333,145560,),0,0,1
6:44.383,145578,(,0,0,2
6:44.503,145621,t,0,0,5
6:44.814,145733,t,0,0,5
6:44.869,145753,),0,0,2
6:45.089,145832,(,0,0,1
6:45.139,145850,N,0,0,0
6:45.206,145874,),0,0,1
6:45.319,145915,(,0,0,2
6:45.394,145942,t,0,0,5
6:45.689,146048,t,0,0,5
6:45.797,146087,),0,0,2
6:46.006,146162,(,0,0,1
6:46.053,146179,N,0,0,0
6:46.094,146194,),0,0,1
6:46.144,146212,(,0,0,2
6:46.297,146267,t,0,0,0
6:46.411,146308,),0,0,2
6:46.894,146482,(,0,0,1
6:46.944,146500,N,0,0,0
6:46.992,146517,),0,0,1
6:47.044,146536,(,0,0,2
6:47.200,146592,t,0,0,5
6:47.461,146686,t,0,0,5
6:47.561,146722,),0,0,2
6:47.817,146814,(,0,0,1
6:47.847,146825,N,0,0,0
6:47.897,146843,),0,0,1
6:48.017,146886,(,0,0,2
6:48.103,146917,t,0,0,5
6:48.344,147004,t,0,0,5
6:48.428,147034,),0,0,2
6:48.692,147129,(,0,0,1
6:48.739,147146,N,0,0,0
6:48.808,147171,),0,0,1
6:48.836,147181,(,0,0,2
6:49.000,147240,t,0,0,0
6:49.086,147271,),0,0,2
6:49.508,147423,(,0,0,1
6:49.631,147467,N,0,0,0
6:49.703,147493,),0,0,1
6:49.728,147502,(,0,0,2
6:49.775,147519,t,0,0,5
6:50.181,147665,t,0,0,5
6:50.203,147673,),0,0,2
6:50.456,147764,(,0,0,1
6:50.525,147789,N,0,0,0
6:50.603,147817,),0,0,1
6:50.708,147855,(,0,0,2
6:50.769,147877,t,0,0,0
6:50.869,147913,),0,0,2
6:51.322,148076,(,0,0,1
6:51.400,148104,N,0,0,0
6:51.467,148128,),0,0,1
6:51.486,148135,(,0,0,2
6:51.656,148196,t,0,0,5
6:51.903,148285,t,0,0,5
6:51.972,148310,),0,0,2
6:52.142,148371,(,0,0,1
6:52.264,148415,N,0,0,0
6:52.333,148440,),0,0,1
6:53.117,148722,(,0,0,1
6:53.150,148734,N,0,0,0
6:53.200,148752,),0,0,1
6:53.978,149032,(,0,0,1
6:54.022,149048,N,0,0,0
6:54.069,149065,),0,0,1
6:54.214,149117,(,0,0,2
6:54.283,149142,t,0,0,0
6:54.494,149218,),0,0,2
6:54.836,149341,(,0,0,1
6:54.881,149357,N,0,0,0
6:54.928,149374,),0,0,1
6:54.947,149381,(,0,0,2
6:55.031,149411,t,0,0,5
6:55.394,149542,t,0,0,5
6:55.439,149558,),0,0,2
6:55.703,149653,(,0,0,1
6:55.753,149671,N,0,0,0
6:55.797,149687,),0,0,1
6:55.947,149741,(,0,0,2
6:56.000,149760,t,0,0,5
6:56.286,149863,t,0,0,5
6:56.311,149872,),0,0,2
7:01.197,151631,(,0,0,1
7:01.244,151648,N,0,0,0
7:01.311,151672,),0,0,1
7:01.431,151715,(,0,0,2
7:01.514,151745,t,0,0,5
7:01.753,151831,t,0,0,5
7:01.775,151839,),0,0,2
7:05.889,153320,(,0,0,1
7:05.936,153337,N,0,0,0
7:06.014,153365,),0,0,1
7:06.028,153370,(,0,0,2
7:06.192,153429,t,0,0,5
7:06.456,153524,t,0,0,5
7:06.544,153556,),0,0,2
7:06.861,153670,(,0,0,1
7:06.900,153684,N,0,0,0
7:06.983,153714,),0,0,1
7:07.067,153744,(,0,0,2
7:07.153,153775,t,0,0,5
7:07.400,153864,t,0,0,5
7:07.464,153887,),0,0,2
7:09.733,154704,(,0,0,1
7:09.783,154722,N,0,0,0
7:09.833,154740,),0,0,1
7:09.892,154761,(,0,0,2
7:10.044,154816,t,0,0,5
7:10.289,154904,t,0,0,5
7:10.417,154950,),0,0,2
7:11.633,155388,(,0,0,1
7:11.697,155411,N,0,0,0
7:11.789,155444,),0,0,1
7:11.831,155459,(,0,0,2
7:11.947,155501,t,0,0,5
7:12.172,155582,t,0,0,5
7:12.317,155634,),0,0,2
7:13.539,156074,(,0,0,1
7:13.586,156091,N,0,0,0
7:13.650,156114,),0,0,1
7:13.731,156143,(,0,0,2
7:13.819,156175,t,0,0,5
7:14.103,156277,t,0,0,5
7:14.189,156308,),0,0,2
7:15.406,156746,(,0,0,1
7:15.467,156768,N,0,0,0
7:15.511,156784,),0,0,1
7:15.625,156825,(,0,0,2
7:15.714,156857,t,0,0,5
7:15.997,156959,t,0,0,5
7:16.061,156982,),0,0,2
7:16.339,157082,(,0,0,1
7:16.400,157104,N,0,0,0
7:16.489,157136,),0,0,1
7:16.558,157161,(,0,0,2
7:16.650,157194,t,0,0,5
7:17.011,157324,t,0,0,5
7:17.050,157338,),0,0,2
7:17.292,157425,(,0,0,1
7:17.336,157441,N,0,0,0
7:17.419,157471,),0,0,1
7:17.531,157511,(,0,0,2
7:17.578,157528,t,0,0,5
7:17.997,157679,t,0,0,5
7:18.019,157687,),0,0,2
7:18.242,157767,(,0,0,1
7:18.314,157793,N,0,0,0
7:18.389,157820,),0,0,1
7:18.425,157833,(,0,0,2
7:18.556,157880,t,0,0,5
7:18.897,158003,t,0,0,5
7:18.953,158023,),0,0,2
7:19.217,158118,(,0,0,1
7:19.267,158136,N,0,0,0
7:19.319,158155,),0,0,1
7:19.464,158207,(,0,0,2
7:19.525,158229,t,0,0,5
7:19.803,158329,t,0,0,5
7:19.883,158358,),0,0,2
7:20.181,158465,(,0,0,1
7:20.228,158482,N,0,0,0
7:20.275,158499,),0,0,1
7:20.431,158555,(,0,0,2
7:20.469,158569,t,0,0,5
7:20.817,158694,t,0,0,5
7:20.850,158706,),0,0,2
7:21.150,158814,(,0,0,1
7:21.197,158831,N,0,0,0
7:21.247,158849,),0,0,1
7:21.336,158881,(,0,0,2
7:21.447,158921,t,0,0,5
7:21.733,159024,t,0,0,5
7:21.811,159052,),0,0,2
7:22.136,159169,(,0,0,1
7:22.186,159187,N,0,0,0
7:22.231,159203,),0,0,1
7:22.394,159262,(,0,0,2
7:22.431,159275,t,0,0,5
7:22.872,159434,t,0,0,5
7:22.894,159442,),0,0,2
7:23.136,159529,(,0,0,1
7:23.183,159546,N,0,0,0
7:23.233,159564,),0,0,1
7:23.397,159623,(,0,0,2
7:23.442,159639,t,0,0,5
7:23.803,159769,t,0,0,5
7:23.842,159783,),0,0,2
7:24.142,159891,(,0,0,1
7:24.208,159915,N,0,0,0
7:24.250,159930,),0,0,1
7:24.275,159939,(,0,0,2
7:24.453,160003,t,0,0,5
7:24.978,160192,t,0,0,5
7:25.039,160214,),0,0,2
7:26.078,160588,(,0,0,1
7:26.150,160614,N,0,0,0
7:26.222,160640,),0,0,1
7:26.306,160670,(,0,0,2
7:26.394,160702,t,0,0,5
7:26.706,160814,t,0,0,5
7:26.789,160844,),0,0,2
7:27.075,160947,N,0,0,0
7:27.078,160948,(,0,0,1
7:27.203,160993,),0,0,1
7:27.336,161041,(,0,0,2
7:27.386,161059,t,0,0,5
7:27.708,161175,t,0,0,5
7:27.761,161194,),0,0,2
7:28.072,161306,(,0,0,1
7:28.103,161317,N,0,0,0
7:28.150,161334,),0,0,1
7:28.278,161380,(,0,0,2
7:28.356,161408,t,0,0,5
7:28.578,161488,t,0,0,5
7:28.658,161517,),0,0,2
7:28.989,161636,N,0,0,0
7:29.008,161643,(,0,0,1
7:29.128,161686,),0,0,1
7:29.233,161724,(,0,0,2
7:29.289,161744,t,0,0,5
7:29.639,161870,t,0,0,5
7:29.661,161878,),0,0,2
7:29.978,161992,(,0,0,1
7:30.019,162007,N,0,0,0
7:30.083,162030,),0,0,1
7:30.214,162077,(,0,0,2
7:30.264,162095,t,0,0,5
7:30.511,162184,t,0,0,5
7:30.553,162199,),0,0,2
7:30.864,162311,(,0,0,1
7:30.931,162335,N,0,0,0
7:30.983,162354,),0,0,1
7:31.914,162689,N,0,0,0
7:31.917,162690,(,0,0,1
7:32.044,162736,),0,0,1
7:32.144,162772,(,0,0,2
7:32.233,162804,t,0,0,5
7:32.739,162986,t,0,0,5
7:32.797,163007,),0,0,2
7:34.794,163726,N,0,0,0
7:34.811,163732,(,0,0,1
7:34.931,163775,),0,0,1
7:35.011,163804,(,0,0,2
7:35.117,163842,t,0,0,5
7:35.381,163937,t,0,0,5
7:35.425,163953,),0,0,2
7:35.750,164070,(,0,0,1
7:35.764,164075,N,0,0,0
7:35.897,164123,),0,0,1
7:36.014,164165,(,0,0,2
7:36.069,164185,t,0,0,5
7:36.442,164319,t,0,0,5
7:36.619,164383,),0,0,2
7:37.617,164742,(,0,0,1
7:37.639,164750,N,0,0,0
7:37.742,164787,),0,0,1
7:37.864,164831,(,0,0,2
7:37.942,164859,t,0,0,5
7:38.247,164969,t,0,0,5
7:38.292,164985,),0,0,2
7:38.589,165092,N,0,0,0
7:38.608,165099,(,0,0,1
7:38.689,165128,),0,0,1
7:38.744,165148,(,0,0,2
7:38.889,165200,t,0,0,5
7:39.275,165339,t,0,0,5
7:39.433,165396,),0,0,2
7:40.475,165771,N,0,0,0
7:40.478,165772,(,0,0,1
7:40.578,165808,),0,0,1
7:40.714,165857,(,0,0,2
7:40.792,165885,t,0,0,5
7:41.086,165991,t,0,0,5
7:41.133,166008,),0,0,2
7:41.439,166118,N,0,0,0
7:41.450,166122,(,0,0,1
7:41.539,166154,),0,0,1
7:41.678,166204,(,0,0,2
7:41.736,166225,t,0,0,5
7:42.047,166337,t,0,0,5
7:42.103,166357,),0,0,2
7:42.461,166486,(,0,0,1
7:42.517,166506,N,0,0,0
7:42.567,166524,),0,0,1
7:42.664,166559,(,0,0,2
7:42.708,166575,t,0,0,0
7:42.794,166606,),0,0,2
7:43.381,166817,N,0,0,0
7:43.386,166819,(,0,0,1
7:43.503,166861,),0,0,1
7:43.517,166866,(,0,0,2
7:43.700,166932,t,0,0,5
7:44.158,167097,t,0,0,5
7:44.297,167147,),0,0,2
7:45.381,167537,N,0,0,0
7:45.389,167540,(,0,0,1
7:45.508,167583,),0,0,1
7:45.631,167627,(,0,0,2
7:45.681,167645,t,0,0,5
7:45.953,167743,t,0,0,5
7:46.000,167760,),0,0,2
7:46.347,167885,N,0,0,0
7:46.356,167888,(,0,0,1
7:46.450,167922,),0,0,1
7:46.481,167933,(,0,0,2
7:46.658,167997,t,0,0,5
7:46.878,168076,t,0,0,5
7:47.067,168144,),0,0,2
7:47.342,168243,(,0,0,1
7:47.392,168261,N,0,0,0
7:47.494,168298,),0,0,1
7:47.644,168352,(,0,0,2
7:47.792,168405,t,0,0,1
7:47.967,168468,),0,0,2
7:48.317,168594,N,0,0,0
7:48.319,168595,(,0,0,1
7:48.439,168638,),0,0,1
7:48.478,168652,(,0,0,2
7:48.622,168704,t,0,0,5
7:48.914,168809,t,0,0,5
7:48.944,168820,),0,0,2
7:49.289,168944,(,0,0,1
7:49.347,168965,N,0,0,0
7:49.397,168983,),0,0,1
7:49.553,169039,(,0,0,2
7:49.597,169055,t,0,0,5
7:49.853,169147,t,0,0,5
7:49.931,169175,),0,0,2
7:50.256,169292,(,0,0,1
7:50.269,169297,N,0,0,0
7:50.372,169334,),0,0,1
7:50.517,169386,(,0,0,2
7:50.572,169406,t,0,0,5
7:50.828,169498,t,0,0,5
7:50.933,169536,),0,0,2
7:51.236,169645,N,0,0,0
7:51.244,169648,(,0,0,1
7:51.336,169681,),0,0,1
7:51.358,169689,(,0,0,2
7:51.528,169750,t,0,0,5
7:51.794,169846,t,0,0,5
7:51.933,169896,),0,0,2
7:52.222,170000,N,0,0,0
7:52.225,170001,(,0,0,1
7:52.325,170037,),0,0,1
7:52.386,170059,(,0,0,2
7:52.533,170112,t,0,0,5
7:52.769,170197,t,0,0,5
7:52.931,170255,),0,0,2
7:53.222,170360,N,0,0,0
7:53.231,170363,(,0,0,1
7:53.322,170396,),0,0,1
7:53.386,170419,(,0,0,2
7:53.519,170467,t,0,0,5
7:53.947,170621,t,0,0,5
7:54.114,170681,),0,0,2
7:55.164,171059,(,0,0,1
7:55.178,171064,N,0,0,0
7:55.283,171102,),0,0,1
7:55.303,171109,(,0,0,2
7:55.478,171172,t,0,0,5
7:55.736,171265,t,0,0,5
7:55.842,171303,),0,0,2
7:56.156,171416,N,0,0,0
7:56.161,171418,(,0,0,1
7:56.258,171453,),0,0,1
7:56.297,171467,(,0,0,2
7:56.464,171527,t,0,0,5
7:56.700,171612,t,0,0,5
7:56.739,171626,),0,0,2
7:57.150,171774,N,0,0,0
7:57.158,171777,(,0,0,1
7:57.250,171810,),0,0,1
7:57.414,171869,(,0,0,2
7:57.467,171888,t,0,0,5
7:57.981,172073,t,0,0,5
7:58.036,172093,),0,0,2
7:59.094,172474,N,0,0,0
7:59.100,172476,(,0,0,1
7:59.194,172510,),0,0,1
7:59.289,172544,(,0,0,2
7:59.406,172586,t,0,0,5
7:59.681,172685,t,0,0,5
7:59.842,172743,),0,0,2
8:00.108,172839,(,0,0,1
8:00.194,172870,N,0,0,0
8:00.289,172904,),0,0,1
8:01.958,173505,N,0,0,0
8:01.961,173506,(,0,0,1
8:02.081,173549,),0,0,1
8:02.283,173622,(,0,0,2
8:02.606,173738,t,0,0,1
8:02.789,173804,),0,0,2
8:03.800,174168,N,0,0,0
8:03.803,174169,(,0,0,1
8:03.919,174211,),0,0,1
8:04.025,174249,(,0,0,2
8:04.094,174274,t,0,0,5
8:04.358,174369,t,0,0,5
8:04.450,174402,),0,0,2
8:04.717,174498,(,0,0,1
8:04.828,174538,N,0,0,0
8:04.831,174539,),0,0,1
8:04.847,174545,(,0,0,2
8:05.008,174603,t,0,0,5
8:05.364,174731,t,0,0,5
8:05.403,174745,),0,0,2
8:05.669,174841,(,0,0,1
8:05.761,174874,N,0,0,0
8:05.850,174906,),0,0,1
8:05.864,174911,(,0,0,2
8:05.950,174942,t,0,0,5
8:06.428,175114,t,0,0,5
8:06.533,175152,),0,0,2
8:07.592,175533,(,0,0,1
8:07.697,175571,N,0,0,0
8:07.717,175578,),0,0,1
8:07.753,175591,(,0,0,2
8:07.889,175640,t,0,0,5
8:08.367,175812,t,0,0,5
8:08.444,175840,),0,0,2
8:09.544,176236,(,0,0,1
8:09.558,176241,N,0,0,0
8:09.658,176277,),0,0,1
8:09.800,176328,(,0,0,2
8:09.869,176353,t,0,0,5
8:10.358,176529,t,0,0,5
8:10.444,176560,),0,0,2
8:11.472,176930,(,0,0,1
8:11.478,176932,N,0,0,0
8:11.581,176969,),0,0,1
8:11.597,176975,(,0,0,2
8:11.781,177041,t,0,0,5
8:12.264,177215,t,0,0,5
8:12.378,177256,),0,0,2
8:13.406,177626,N,0,0,0
8:13.406,177626,(,0,0,1
8:13.531,177671,),0,0,1
8:13.592,177693,(,0,0,2
8:13.711,177736,t,0,0,0
8:13.808,177771,),0,0,2
8:14.336,177961,N,0,0,0
8:14.336,177961,(,0,0,1
8:14.442,177999,),0,0,1
8:14.464,178007,(,0,0,2
8:14.650,178074,t,0,0,5
8:15.128,178246,t,0,0,5
8:15.175,178263,),0,0,2
8:16.222,178640,N,0,0,0
8:16.239,178646,(,0,0,1
8:16.353,178687,),0,0,1
8:16.436,178717,(,0,0,2
8:16.525,178749,t,0,0,5
8:17.033,178932,t,0,0,5
8:17.083,178950,),0,0,2
8:18.253,179371,(,0,0,1
8:18.306,179390,N,0,0,0
8:18.422,179432,),0,0,1
8:18.517,179466,(,0,0,2
8:18.850,179586,t,0,0,1
8:19.086,179671,),0,0,2
8:20.200,180072,N,0,0,0
8:20.208,180075,(,0,0,1
8:20.325,180117,),0,0,1
8:20.456,180164,(,0,0,2
8:20.517,180186,t,0,0,5
8:20.864,180311,t,0,0,5
8:20.894,180322,),0,0,2
8:21.214,180437,N,0,0,0
8:21.222,180440,(,0,0,1
8:21.361,180490,),0,0,1
8:21.467,180528,(,0,0,2
8:21.517,180546,t,0,0,5
8:21.778,180640,t,0,0,5
8:21.825,180657,),0,0,2
8:22.233,180804,N,0,0,0
8:22.239,180806,(,0,0,1
8:22.356,180848,),0,0,1
8:22.372,180854,(,0,0,2
8:22.542,180915,t,0,0,0
8:22.644,180952,),0,0,2
8:23.289,181184,(,0,0,1
8:23.339,181202,N,0,0,0
8:23.425,181233,),0,0,1
8:23.464,181247,(,0,0,2
8:23.539,181274,t,0,0,5
8:23.811,181372,t,0,0,5
8:23.881,181397,),0,0,2
8:24.314,181553,(,0,0,1
8:24.372,181574,N,0,0,0
8:24.492,181617,),0,0,1
8:24.500,181620,(,0,0,2
8:24.564,181643,t,0,0,5
8:24.933,181776,t,0,0,5
8:24.958,181785,),0,0,2
8:25.261,181894,N,0,0,0
8:25.267,181896,(,0,0,1
8:25.389,181940,),0,0,1
8:25.497,181979,(,0,0,2
8:25.556,182000,t,0,0,5
8:26.069,182185,t,0,0,5
8:26.156,182216,),0,0,2
8:28.247,182969,N,0,0,0
8:28.253,182971,(,0,0,1
8:28.353,183007,),0,0,1
8:28.372,183014,(,0,0,2
8:28.556,183080,t,0,0,5
8:28.969,183229,t,0,0,5
8:29.125,183285,),0,0,2
8:30.183,183666,N,0,0,0
8:30.183,183666,(,0,0,1
8:30.339,183722,),0,0,1
8:30.461,183766,(,0,0,2
8:30.497,183779,t,0,0,5
8:31.000,183960,t,0,0,5
8:31.053,183979,),0,0,2
8:32.114,184361,(,0,0,1
8:32.125,184365,N,0,0,0
8:32.264,184415,),0,0,1
8:32.369,184453,(,0,0,2
8:32.436,184477,t,0,0,5
8:32.717,184578,t,0,0,5
8:32.767,184596,),0,0,2
8:33.078,184708,N,0,0,0
8:33.081,184709,(,0,0,1
8:33.183,184746,),0,0,1
8:33.311,184792,(,0,0,2
8:33.389,184820,t,0,0,5
8:33.714,184937,t,0,0,5
8:33.742,184947,),0,0,2
8:34.019,185047,(,0,0,1
8:34.028,185050,N,0,0,0
8:34.128,185086,),0,0,1
8:34.175,185103,(,0,0,2
8:34.331,185159,t,0,0,0
8:34.425,185193,),0,0,2
8:34.989,185396,(,0,0,1
8:34.997,185399,N,0,0,0
8:35.131,185447,),0,0,1
8:35.236,185485,(,0,0,2
8:35.303,185509,t,0,0,5
8:35.578,185608,t,0,0,5
8:35.661,185638,),0,0,2
8:35.886,185719,(,0,0,1
8:35.961,185746,N,0,0,0
8:36.014,185765,),0,0,1
8:36.917,186090,N,0,0,0
8:36.922,186092,(,0,0,1
8:37.019,186127,),0,0,1
8:37.114,186161,(,0,0,2
8:37.225,186201,t,0,0,5
8:37.517,186306,t,0,0,5
8:37.606,186338,),0,0,2
8:37.886,186439,(,0,0,1
8:37.889,186440,N,0,0,0
8:38.036,186493,),0,0,1
8:38.114,186521,(,0,0,2
8:38.197,186551,t,0,0,5
8:38.483,186654,t,0,0,5
8:38.536,186673,),0,0,2
8:38.867,186792,N,0,0,0
8:38.881,186797,(,0,0,1
8:39.000,186840,),0,0,1
8:39.100,186876,(,0,0,2
8:39.175,186903,t,0,0,0
8:39.269,186937,),0,0,2
8:39.844,187144,N,0,0,0
8:39.850,187146,(,0,0,1
8:39.947,187181,),0,0,1
8:40.042,187215,(,0,0,2
8:40.158,187257,t,0,0,0
8:40.256,187292,),0,0,2
8:40.850,187506,N,0,0,0
8:40.858,187509,(,0,0,1
8:40.953,187543,),0,0,1
8:41.081,187589,(,0,0,2
8:41.164,187619,t,0,0,5
8:41.489,187736,t,0,0,5
8:41.528,187750,),0,0,2
8:41.850,187866,N,0,0,0
8:41.861,187870,(,0,0,1
8:41.953,187903,),0,0,1
8:41.983,187914,(,0,0,2
8:42.167,187980,t,0,0,0
8:42.264,188015,),0,0,2
8:42.833,188220,N,0,0,0
8:42.842,188223,(,0,0,1
8:42.933,188256,),0,0,1
8:42.972,188270,(,0,0,2
8:43.147,188333,t,0,0,5
8:43.450,188442,t,0,0,5
8:43.478,188452,),0,0,2
8:43.853,188587,(,0,0,1
8:43.858,188589,N,0,0,0
8:43.961,188626,),0,0,1
8:44.111,188680,(,0,0,2
8:44.169,188701,t,0,0,5
8:44.456,188804,t,0,0,5
8:44.539,188834,),0,0,2
8:44.931,188975,(,0,0,1
8:44.981,188993,N,0,0,0
8:45.106,189038,),0,0,1
8:45.119,189043,(,0,0,2
8:45.175,189063,t,0,0,0
8:45.269,189097,),0,0,2
8:45.794,189286,(,0,0,1
8:45.814,189293,N,0,0,0
8:45.917,189330,),0,0,1
8:46.078,189388,(,0,0,2
8:46.117,189402,t,0,0,5
8:46.425,189513,t,0,0,5
8:46.489,189536,),0,0,2
8:46.786,189643,N,0,0,0
8:46.789,189644,(,0,0,1
8:46.906,189686,),0,0,1
8:47.011,189724,(,0,0,2
8:47.100,189756,t,0,0,5
8:47.581,189929,t,0,0,5
8:47.686,189967,),0,0,2
8:48.767,190356,N,0,0,0
8:48.772,190358,(,0,0,1
8:48.906,190406,),0,0,1
8:48.992,190437,(,0,0,2
8:49.083,190470,t,0,0,5
8:49.522,190628,t,0,0,5
8:49.658,190677,),0,0,2
8:50.725,191061,N,0,0,0
8:50.728,191062,(,0,0,1
8:50.831,191099,),0,0,1
8:50.875,191115,(,0,0,2
8:51.033,191172,t,0,0,5
8:51.483,191334,t,0,0,5
8:51.614,191381,),0,0,2
8:52.700,191772,(,0,0,1
8:52.717,191778,N,0,0,0
8:52.842,191823,),0,0,1
8:52.844,191824,(,0,0,2
8:53.036,191893,t,0,0,5
8:53.328,191998,t,0,0,5
8:53.372,192014,),0,0,2
8:53.694,192130,(,0,0,1
8:53.700,192132,N,0,0,0
8:53.803,192169,),0,0,1
8:54.014,192245,(,0,0,2
8:54.100,192276,t,0,0,1
8:54.158,192297,),0,0,2
8:54.783,192522,(,0,0,1
8:54.806,192530,N,0,0,0
8:54.942,192579,),0,0,1
8:55.008,192603,(,0,0,2
8:55.161,192658,t,0,0,1
8:55.339,192722,),0,0,2
8:55.667,192840,N,0,0,0
8:55.678,192844,(,0,0,1
8:55.767,192876,),0,0,1
8:55.881,192917,(,0,0,2
8:55.969,192949,t,0,0,5
8:56.322,193076,t,0,0,5
8:56.342,193083,),0,0,2
8:56.669,193201,N,0,0,0
8:56.686,193207,(,0,0,1
8:56.767,193236,),0,0,1
8:56.817,193254,(,0,0,2
8:56.978,193312,t,0,0,5
8:57.272,193418,t,0,0,5
8:57.306,193430,),0,0,2
8:57.689,193568,N,0,0,0
8:57.697,193571,(,0,0,1
8:57.797,193607,),0,0,1
8:57.950,193662,(,0,0,2
8:58.011,193684,t,0,0,5
8:58.225,193761,t,0,0,5
8:58.331,193799,),0,0,2
8:58.792,193965,N,0,0,0
8:58.797,193967,(,0,0,1
8:58.878,193996,),0,0,1
8:59.011,194044,(,0,0,2
8:59.294,194146,t,0,0,1
8:59.569,194245,),0,0,2
9:03.600,195696,(,0,0,1
9:03.619,195703,N,0,0,0
9:03.722,195740,),0,0,1
9:03.850,195786,(,0,0,2
9:03.925,195813,t,0,0,5
9:04.450,196002,t,0,0,5
9:04.511,196024,),0,0,2
9:11.692,198609,(,0,0,1
9:11.764,198635,N,0,0,0
9:11.808,198651,),0,0,1
9:11.828,198658,(,0,0,2
9:12.028,198730,t,0,0,5
9:12.267,198816,t,0,0,5
9:12.414,198869,),0,0,2
9:12.731,198983,(,0,0,1
9:12.778,199000,N,0,0,0
9:12.822,199016,),0,0,1
9:12.844,199024,(,0,0,2
9:13.022,199088,t,0,0,5
9:13.378,199216,t,0,0,5
9:13.411,199228,),0,0,2
9:13.731,199343,(,0,0,1
9:13.789,199364,N,0,0,0
9:13.853,199387,),0,0,1
9:13.944,199420,(,0,0,2
9:14.053,199459,t,0,0,0
9:14.192,199509,),0,0,2
9:14.761,199714,(,0,0,1
9:14.808,199731,N,0,0,0
9:14.850,199746,),0,0,1
9:14.881,199757,(,0,0,2
9:15.053,199819,t,0,0,5
9:15.308,199911,t,0,0,5
9:15.444,199960,),0,0,2
9:15.761,200074,(,0,0,1
9:15.814,200093,N,0,0,0
9:15.864,200111,),0,0,1
9:15.933,200136,(,0,0,2
9:16.058,200181,t,0,0,5
9:16.303,200269,t,0,0,5
9:16.361,200290,),0,0,2
9:16.764,200435,(,0,0,1
9:16.819,200455,N,0,0,0
9:16.886,200479,),0,0,1
9:17.031,200531,(,0,0,2
9:17.089,200552,t,0,0,5
9:17.361,200650,t,0,0,5
9:17.425,200673,),0,0,2
9:17.792,200805,(,0,0,1
9:17.844,200824,N,0,0,0
9:17.925,200853,),0,0,1
9:17.972,200870,(,0,0,2
9:18.097,200915,t,0,0,5
9:18.347,201005,t,0,0,5
9:18.392,201021,),0,0,2
9:18.792,201165,(,0,0,1
9:18.864,201191,N,0,0,0
9:18.908,201207,),0,0,1
9:19.028,201250,(,0,0,2
9:19.108,201279,t,0,0,5
9:19.347,201365,t,0,0,5
9:19.522,201428,),0,0,2
9:19.811,201532,(,0,0,1
9:19.858,201549,N,0,0,0
9:19.908,201567,),0,0,1
9:20.067,201624,(,0,0,2
9:20.122,201644,t,0,0,5
9:20.408,201747,t,0,0,5
9:20.458,201765,),0,0,2
9:20.825,201897,(,0,0,1
9:20.875,201915,N,0,0,0
9:20.958,201945,),0,0,1
9:20.975,201951,(,0,0,2
9:21.136,202009,t,0,0,5
9:21.442,202119,t,0,0,5
9:21.519,202147,),0,0,2
9:21.797,202247,(,0,0,1
9:21.856,202268,N,0,0,0
9:21.922,202292,),0,0,1
9:21.975,202311,(,0,0,2
9:22.119,202363,t,0,0,5
9:22.408,202467,t,0,0,5
9:22.497,202499,),0,0,2
9:22.761,202594,(,0,0,1
9:22.839,202622,N,0,0,0
9:22.894,202642,),0,0,1
9:22.964,202667,(,0,0,2
9:23.097,202715,t,0,0,5
9:23.358,202809,t,0,0,5
9:23.392,202821,),0,0,2
9:23.761,202954,(,0,0,1
9:23.831,202979,N,0,0,0
9:23.897,203003,),0,0,1
9:24.006,203042,(,0,0,2
9:24.089,203072,t,0,0,5
9:24.375,203175,t,0,0,5
9:24.456,203204,),0,0,2
9:24.764,203315,(,0,0,1
9:24.828,203338,N,0,0,0
9:24.894,203362,),0,0,1
9:24.900,203364,(,0,0,2
9:25.083,203430,t,0,0,5
9:25.442,203559,t,0,0,5
9:25.464,203567,),0,0,2
9:25.797,203687,(,0,0,1
9:25.847,203705,N,0,0,0
9:25.928,203734,),0,0,1
9:26.031,203771,(,0,0,2
9:26.106,203798,t,0,0,5
9:26.400,203904,t,0,0,5
9:26.486,203935,),0,0,2
9:26.797,204047,(,0,0,1
9:26.869,204073,N,0,0,0
9:26.931,204095,),0,0,1
9:27.072,204146,(,0,0,2
9:27.128,204166,t,0,0,5
9:27.414,204269,t,0,0,5
9:27.497,204299,),0,0,2
9:27.800,204408,(,0,0,1
9:27.878,204436,N,0,0,0
9:27.961,204466,),0,0,1
9:27.969,204469,(,0,0,2
9:28.139,204530,t,0,0,5
9:28.575,204687,t,0,0,5
9:28.600,204696,),0,0,2
9:28.858,204789,(,0,0,1
9:28.908,204807,N,0,0,0
9:28.953,204823,),0,0,1
9:29.008,204843,(,0,0,2
9:29.167,204900,t,0,0,5
9:29.539,205034,t,0,0,5
9:29.592,205053,),0,0,2
9:29.883,205158,(,0,0,1
9:29.931,205175,N,0,0,0
9:29.981,205193,),0,0,1
9:30.133,205248,(,0,0,2
9:30.197,205271,t,0,0,5
9:30.431,205355,t,0,0,5
9:30.600,205416,),0,0,2
9:30.897,205523,(,0,0,1
9:30.939,205538,N,0,0,0
9:31.031,205571,),0,0,1
9:31.122,205604,(,0,0,2
9:31.211,205636,t,0,0,5
9:31.492,205737,t,0,0,5
9:31.550,205758,),0,0,2
9:31.825,205857,(,0,0,1
9:31.950,205902,N,0,0,0
9:32.033,205932,),0,0,1
9:32.164,205979,(,0,0,2
9:32.197,205991,t,0,0,5
9:32.467,206088,t,0,0,5
9:32.622,206144,),0,0,2
9:32.903,206245,(,0,0,1
9:32.956,206264,N,0,0,0
9:33.031,206291,),0,0,1
9:33.144,206332,(,0,0,2
9:33.211,206356,t,0,0,5
9:33.503,206461,t,0,0,5
9:33.536,206473,),0,0,2
9:33.906,206606,(,0,0,1
9:33.975,206631,N,0,0,0
9:34.036,206653,),0,0,1
9:34.075,206667,(,0,0,2
9:34.250,206730,t,0,0,5
9:34.614,206861,t,0,0,5
9:34.672,206882,),0,0,2
9:34.942,206979,(,0,0,1
9:34.997,206999,N,0,0,0
9:35.064,207023,),0,0,1
9:35.144,207052,(,0,0,2
9:35.261,207094,t,0,0,5
9:35.547,207197,t,0,0,5
9:35.569,207205,),0,0,2
9:35.972,207350,(,0,0,1
9:36.019,207367,N,0,0,0
9:36.100,207396,),0,0,1
9:36.211,207436,(,0,0,2
9:36.272,207458,t,0,0,5
9:36.522,207548,t,0,0,5
9:36.603,207577,),0,0,2
9:36.964,207707,(,0,0,1
9:37.008,207723,N,0,0,0
9:37.058,207741,),0,0,1
9:37.211,207796,(,0,0,2
9:37.275,207819,t,0,0,0
9:37.378,207856,),0,0,2
9:37.964,208067,(,0,0,1
9:38.014,208085,N,0,0,0
9:38.058,208101,),0,0,1
9:38.175,208143,(,0,0,2
9:38.272,208178,t,0,0,5
9:38.528,208270,t,0,0,5
9:38.600,208296,),0,0,2
9:38.939,208418,(,0,0,1
9:39.014,208445,N,0,0,0
9:39.083,208470,),0,0,1
9:39.197,208511,(,0,0,2
9:39.272,208538,t,0,0,5
9:39.464,208607,t,0,0,5
9:39.667,208680,),0,0,2
9:39.992,208797,(,0,0,1
9:40.044,208816,N,0,0,0
9:40.089,208832,),0,0,1
9:40.222,208880,(,0,0,2
9:40.303,208909,t,0,0,0
9:40.406,208946,),0,0,2
9:40.975,209151,(,0,0,1
9:41.053,209179,N,0,0,0
9:41.094,209194,),0,0,1
9:41.214,209237,(,0,0,2
9:41.306,209270,t,0,0,5
9:41.614,209381,t,0,0,5
9:41.678,209404,),0,0,2
9:42.008,209523,(,0,0,1
9:42.069,209545,N,0,0,0
9:42.139,209570,),0,0,1
9:42.214,209597,(,0,0,2
9:42.333,209640,t,0,0,5
9:42.653,209755,t,0,0,5
9:42.733,209784,),0,0,2
9:43.078,209908,(,0,0,1
9:43.119,209923,N,0,0,0
9:43.161,209938,),0,0,1
9:43.308,209991,(,0,0,2
9:43.375,210015,t,0,0,5
9:43.778,210160,t,0,0,5
9:43.808,210171,),0,0,2
9:44.111,210280,(,0,0,1
9:44.161,210298,N,0,0,0
9:44.236,210325,),0,0,1
9:44.356,210368,(,0,0,2
9:44.428,210394,t,0,0,5
9:44.761,210514,t,0,0,5
9:44.869,210553,),0,0,2
9:45.153,210655,(,0,0,1
9:45.203,210673,N,0,0,0
9:45.272,210698,),0,0,1
9:45.419,210751,(,0,0,2
9:45.481,210773,t,0,0,5
9:45.750,210870,t,0,0,5
9:45.867,210912,),0,0,2
9:46.214,211037,(,0,0,1
9:46.269,211057,N,0,0,0
9:46.339,211082,),0,0,1
9:46.342,211083,(,0,0,2
9:46.539,211154,t,0,0,5
9:46.819,211255,t,0,0,5
9:46.900,211284,),0,0,2
9:47.244,211408,(,0,0,1
9:47.314,211433,N,0,0,0
9:47.381,211457,),0,0,1
9:47.522,211508,(,0,0,2
9:47.572,211526,t,0,0,5
9:47.892,211641,t,0,0,5
9:47.939,211658,),0,0,2
9:48.350,211806,(,0,0,1
9:48.392,211821,N,0,0,0
9:48.472,211850,),0,0,1
9:48.569,211885,(,0,0,2
9:48.667,211920,t,0,0,5
9:49.022,212048,t,0,0,5
9:49.064,212063,),0,0,2
9:49.378,212176,(,0,0,1
9:49.456,212204,N,0,0,0
9:49.500,212220,),0,0,1
9:49.636,212269,(,0,0,2
9:49.711,212296,t,0,0,5
9:50.061,212422,t,0,0,5
9:50.114,212441,),0,0,2
9:50.450,212562,(,0,0,1
9:50.503,212581,N,0,0,0
9:50.547,212597,),0,0,1
9:50.694,212650,(,0,0,2
9:50.767,212676,t,0,0,5
9:51.114,212801,t,0,0,5
9:51.169,212821,),0,0,2
9:51.514,212945,(,0,0,1
9:51.581,212969,N,0,0,0
9:51.647,212993,),0,0,1
9:51.714,213017,(,0,0,2
9:51.839,213062,t,0,0,5
9:52.161,213178,t,0,0,5
9:52.206,213194,),0,0,2
9:52.578,213328,(,0,0,1
9:52.631,213347,N,0,0,0
9:52.711,213376,),0,0,1
9:52.783,213402,(,0,0,2
9:52.894,213442,t,0,0,5
9:53.156,213536,t,0,0,5
9:53.214,213557,),0,0,2
9:53.617,213702,(,0,0,1
9:53.661,213718,N,0,0,0
9:53.744,213748,),0,0,1
9:53.853,213787,(,0,0,2
9:53.939,213818,t,0,0,5
9:54.258,213933,t,0,0,5
9:54.342,213963,),0,0,2
9:54.653,214075,(,0,0,1
9:54.703,214093,N,0,0,0
9:54.778,214120,),0,0,1
9:54.892,214161,(,0,0,2
9:54.964,214187,t,0,0,5
9:55.328,214318,t,0,0,5
9:55.381,214337,),0,0,2
9:55.683,214446,(,0,0,1
9:55.761,214474,N,0,0,0
9:55.822,214496,),0,0,1
9:55.961,214546,(,0,0,2
9:56.031,214571,t,0,0,5
9:56.364,214691,t,0,0,5
9:56.428,214714,),0,0,2
9:56.753,214831,(,0,0,1
9:56.828,214858,N,0,0,0
9:56.911,214888,),0,0,1
9:56.922,214892,(,0,0,2
9:57.111,214960,t,0,0,5
9:57.358,215049,t,0,0,5
9:57.411,215068,),0,0,2
9:57.822,215216,(,0,0,1
9:57.869,215233,N,0,0,0
9:57.947,215261,),0,0,1
9:58.156,215336,(,0,0,2
9:58.361,215410,t,0,0,1
9:58.483,215454,),0,0,2
9:58.822,215576,(,0,0,1
9:58.897,215603,N,0,0,0
9:58.939,215618,),0,0,1
9:59.047,215657,(,0,0,2
9:59.153,215695,t,0,0,5
9:59.597,215855,t,0,0,5
9:59.653,215875,),0,0,2
9:59.889,215960,(,0,0,1
9:59.939,215978,N,0,0,0
10:00.022,216008,),0,0,1
10:00.158,216057,(,0,0,2
10:00.208,216075,t,0,0,5
10:00.428,216154,t,0,0,5
10:00.622,216224,),0,0,2
10:00.894,216322,(,0,0,1
10:00.939,216338,N,0,0,0
10:01.014,216365,),0,0,1
10:01.119,216403,(,0,0,2
10:01.206,216434,t,0,0,5
10:01.431,216515,t,0,0,5
10:01.489,216536,),0,0,2
10:01.819,216655,(,0,0,1
10:01.939,216698,N,0,0,0
10:02.019,216727,),0,0,1
10:02.094,216754,(,0,0,2
10:02.194,216790,t,0,0,5
10:02.494,216898,t,0,0,5
10:02.622,216944,),0,0,2
10:02.892,217041,(,0,0,1
10:02.956,217064,N,0,0,0
10:03.019,217087,),0,0,1
10:03.033,217092,(,0,0,2
10:03.214,217157,t,0,0,5
10:03.461,217246,t,0,0,5
10:03.558,217281,),0,0,2
10:03.900,217404,(,0,0,1
10:03.950,217422,N,0,0,0
10:04.017,217446,),0,0,1
10:04.150,217494,(,0,0,2
10:04.217,217518,t,0,0,5
10:04.575,217647,t,0,0,5
10:04.614,217661,),0,0,2
10:04.892,217761,(,0,0,1
10:04.950,217782,N,0,0,0
10:05.019,217807,),0,0,1
10:05.128,217846,(,0,0,2
10:05.214,217877,t,0,0,5
10:05.586,218011,t,0,0,5
10:05.639,218030,),0,0,2
10:05.922,218132,(,0,0,1
10:05.992,218157,N,0,0,0
10:06.056,218180,),0,0,1
10:06.181,218225,(,0,0,2
10:06.250,218250,t,0,0,5
10:06.561,218362,t,0,0,5
10:06.625,218385,),0,0,2
10:06.958,218505,(,0,0,1
10:07.019,218527,N,0,0,0
10:07.089,218552,),0,0,1
10:07.206,218594,(,0,0,2
10:07.283,218622,t,0,0,0
10:07.394,218662,),0,0,2
10:07.992,218877,(,0,0,1
10:08.056,218900,N,0,0,0
10:08.122,218924,),0,0,1
10:08.164,218939,(,0,0,2
10:08.331,218999,t,0,0,5
10:08.572,219086,t,0,0,5
10:08.617,219102,),0,0,2
10:09.064,219263,(,0,0,1
10:09.119,219283,N,0,0,0
10:09.189,219308,),0,0,1
10:09.300,219348,(,0,0,2
10:09.383,219378,t,0,0,0
10:09.489,219416,),0,0,2
10:10.094,219634,(,0,0,1
10:10.164,219659,N,0,0,0
10:10.225,219681,),0,0,1
10:10.358,219729,(,0,0,2
10:10.425,219753,t,0,0,0
10:10.522,219788,),0,0,2
10:11.125,220005,(,0,0,1
10:11.194,220030,N,0,0,0
10:11.256,220052,),0,0,1
10:11.392,220101,(,0,0,2
10:11.458,220125,t,0,0,5
10:11.908,220287,t,0,0,5
10:11.958,220305,),0,0,2
10:12.197,220391,(,0,0,1
10:12.244,220408,N,0,0,0
10:12.319,220435,),0,0,1
10:12.406,220466,(,0,0,2
10:12.511,220504,t,0,0,5
10:12.806,220610,t,0,0,5
10:12.883,220638,),0,0,2
10:13.231,220763,(,0,0,1
10:13.300,220788,N,0,0,0
10:13.392,220821,),0,0,1
10:13.475,220851,(,0,0,2
10:13.561,220882,t,0,0,5
10:13.869,220993,t,0,0,5
10:13.967,221028,),0,0,2
10:14.294,221146,(,0,0,1
10:14.364,221171,N,0,0,0
10:14.425,221193,),0,0,1
10:14.567,221244,(,0,0,2
10:14.628,221266,t,0,0,5
10:14.936,221377,t,0,0,5
10:15.031,221411,),0,0,2
10:15.336,221521,(,0,0,1
10:15.394,221542,N,0,0,0
10:15.456,221564,),0,0,1
10:15.603,221617,(,0,0,2
10:15.647,221633,t,0,0,5
10:15.933,221736,t,0,0,5
10:16.019,221767,),0,0,2
10:16.369,221893,(,0,0,1
10:16.433,221916,N,0,0,0
10:16.494,221938,),0,0,1
10:16.603,221977,(,0,0,2
10:16.703,222013,t,0,0,5
10:16.978,222112,t,0,0,5
10:17.025,222129,),0,0,2
10:17.431,222275,(,0,0,1
10:17.497,222299,N,0,0,0
10:17.544,222316,),0,0,1
10:17.700,222372,(,0,0,2
10:17.761,222394,t,0,0,5
10:18.069,222505,t,0,0,5
10:18.119,222523,),0,0,2
10:18.456,222644,(,0,0,1
10:18.553,222679,N,0,0,0
10:18.625,222705,),0,0,1
10:18.719,222739,(,0,0,2
10:18.819,222775,t,0,0,5
10:19.072,222866,t,0,0,5
10:19.119,222883,),0,0,2
10:19.542,223035,(,0,0,1
10:19.592,223053,N,0,0,0
10:19.642,223071,),0,0,1
10:19.736,223105,(,0,0,2
10:19.875,223155,t,0,0,5
10:20.181,223265,t,0,0,5
10:20.222,223280,),0,0,2
10:20.564,223403,(,0,0,1
10:20.636,223429,N,0,0,0
10:20.697,223451,),0,0,1
10:20.808,223491,(,0,0,2
10:20.903,223525,t,0,0,5
10:21.178,223624,t,0,0,5
10:21.297,223667,),0,0,2
10:21.633,223788,(,0,0,1
10:21.703,223813,N,0,0,0
10:21.764,223835,),0,0,1
10:21.906,223886,(,0,0,2
10:21.961,223906,t,0,0,0
10:22.067,223944,),0,0,2
10:22.722,224180,(,0,0,1
10:22.764,224195,N,0,0,0
10:22.814,224213,),0,0,1
10:22.942,224259,(,0,0,2
10:23.033,224292,t,0,0,5
10:23.469,224449,t,0,0,5
10:23.500,224460,),0,0,2
10:23.742,224547,(,0,0,1
10:23.786,224563,N,0,0,0
10:23.836,224581,),0,0,1
10:23.969,224629,(,0,0,2
10:24.056,224660,t,0,0,5
10:24.336,224761,t,0,0,5
10:24.367,224772,),0,0,2
10:24.733,224904,(,0,0,1
10:24.800,224928,N,0,0,0
10:24.867,224952,),0,0,1
10:24.986,224995,(,0,0,2
10:25.081,225029,t,0,0,5
10:25.333,225120,t,0,0,5
10:25.400,225144,),0,0,2
10:25.800,225288,(,0,0,1
10:25.847,225305,N,0,0,0
10:25.931,225335,),0,0,1
10:26.036,225373,(,0,0,2
10:26.117,225402,t,0,0,5
10:26.406,225506,t,0,0,5
10:26.525,225549,),0,0,2
10:26.806,225650,(,0,0,1
10:26.853,225667,N,0,0,0
10:26.933,225696,),0,0,1
10:27.008,225723,(,0,0,2
10:27.108,225759,t,0,0,5
10:27.506,225902,t,0,0,5
10:27.536,225913,),0,0,2
10:27.808,226011,(,0,0,1
10:27.858,226029,N,0,0,0
10:27.925,226053,),0,0,1
10:28.014,226085,(,0,0,2
10:28.133,226128,t,0,0,5
10:28.386,226219,t,0,0,5
10:28.469,226249,),0,0,2
10:28.808,226371,(,0,0,1
10:28.881,226397,N,0,0,0
10:28.967,226428,),0,0,1
10:29.056,226460,(,0,0,2
10:29.153,226495,t,0,0,5
10:29.417,226590,t,0,0,5
10:29.506,226622,),0,0,2
10:29.808,226731,(,0,0,1
10:29.881,226757,N,0,0,0
10:29.967,226788,),0,0,1
10:30.036,226813,(,0,0,2
10:30.147,226853,t,0,0,0
10:30.250,226890,),0,0,2
10:30.836,227101,(,0,0,1
10:30.908,227127,N,0,0,0
10:30.969,227149,),0,0,1
10:31.067,227184,(,0,0,2
10:31.181,227225,t,0,0,5
10:31.539,227354,t,0,0,5
10:31.592,227373,),0,0,2
10:31.878,227476,(,0,0,1
10:31.942,227499,N,0,0,0
10:32.008,227523,),0,0,1
10:32.078,227548,(,0,0,2
10:32.208,227595,t,0,0,5
10:32.475,227691,t,0,0,5
10:32.575,227727,),0,0,2
10:32.908,227847,(,0,0,1
10:32.956,227864,N,0,0,0
10:33.006,227882,),0,0,1
10:33.117,227922,(,0,0,2
10:33.225,227961,t,0,0,5
10:33.511,228064,t,0,0,5
10:33.636,228109,),0,0,2
10:33.939,228218,(,0,0,1
10:34.006,228242,N,0,0,0
10:34.100,228276,),0,0,1
10:34.178,228304,(,0,0,2
10:34.275,228339,t,0,0,5
10:34.564,228443,t,0,0,5
10:34.667,228480,),0,0,2
10:34.997,228599,(,0,0,1
10:35.053,228619,N,0,0,0
10:35.136,228649,),0,0,1
10:35.244,228688,(,0,0,2
10:35.328,228718,t,0,0,5
10:35.586,228811,t,0,0,5
10:35.650,228834,),0,0,2
10:36.006,228962,(,0,0,1
10:36.067,228984,N,0,0,0
10:36.136,229009,),0,0,1
10:36.258,229053,(,0,0,2
10:36.331,229079,t,0,0,5
10:36.672,229202,t,0,0,5
10:36.711,229216,),0,0,2
10:37.039,229334,(,0,0,1
10:37.056,229340,N,0,0,0
10:37.169,229381,),0,0,1
10:37.181,229385,(,0,0,2
10:37.369,229453,t,0,0,5
10:37.622,229544,t,0,0,5
10:37.736,229585,),0,0,2
10:38.078,229708,(,0,0,1
10:38.125,229725,N,0,0,0
10:38.172,229742,),0,0,1
10:38.314,229793,(,0,0,2
10:38.394,229822,t,0,0,5
10:38.658,229917,t,0,0,5
10:38.708,229935,),0,0,2
10:39.075,230067,(,0,0,1
10:39.092,230073,N,0,0,0
10:39.194,230110,),0,0,1
10:39.319,230155,(,0,0,2
10:39.417,230190,t,0,0,5
10:39.878,230356,t,0,0,5
10:39.906,230366,),0,0,2
10:40.144,230452,(,0,0,1
10:40.247,230489,N,0,0,0
10:40.272,230498,),0,0,1
10:40.381,230537,(,0,0,2
10:40.461,230566,t,0,0,5
10:40.783,230682,t,0,0,5
10:40.869,230713,),0,0,2
10:41.164,230819,(,0,0,1
10:41.214,230837,N,0,0,0
10:41.258,230853,),0,0,1
10:41.411,230908,(,0,0,2
10:41.478,230932,t,0,0,0
10:41.581,230969,),0,0,2
10:42.175,231183,(,0,0,1
10:42.189,231188,N,0,0,0
10:42.311,231232,),0,0,1
10:42.456,231284,(,0,0,2
10:42.511,231304,t,0,0,5
10:42.811,231412,t,0,0,5
10:42.856,231428,),0,0,2
10:43.214,231557,(,0,0,1
10:43.283,231582,N,0,0,0
10:43.344,231604,),0,0,1
10:43.483,231654,(,0,0,2
10:43.556,231680,t,0,0,5
10:43.789,231764,t,0,0,5
10:43.839,231782,),0,0,2
10:44.242,231927,(,0,0,1
10:44.303,231949,N,0,0,0
10:44.372,231974,),0,0,1
10:44.497,232019,(,0,0,2
10:44.556,232040,t,0,0,5
10:44.828,232138,t,0,0,5
10:44.981,232193,),0,0,2
10:45.286,232303,(,0,0,1
10:45.333,232320,N,0,0,0
10:45.408,232347,),0,0,1
10:45.486,232375,(,0,0,2
10:45.594,232414,t,0,0,5
10:45.825,232497,t,0,0,5
10:45.978,232552,),0,0,2
10:46.278,232660,(,0,0,1
10:46.350,232686,N,0,0,0
10:46.411,232708,),0,0,1
10:46.528,232750,(,0,0,2
10:46.614,232781,t,0,0,5
10:46.867,232872,t,0,0,5
10:46.908,232887,),0,0,2
10:47.289,233024,(,0,0,1
10:47.292,233025,N,0,0,0
10:47.414,233069,),0,0,1
10:47.417,233070,(,0,0,2
10:47.614,233141,t,0,0,5
10:47.919,233251,t,0,0,5
10:48.042,233295,),0,0,2
10:48.319,233395,(,0,0,1
10:48.369,233413,N,0,0,0
10:48.439,233438,),0,0,1
10:48.553,233479,(,0,0,2
10:48.625,233505,t,0,0,5
10:48.922,233612,t,0,0,5
10:48.972,233630,),0,0,2
10:49.281,233741,(,0,0,1
10:49.356,233768,N,0,0,0
10:49.419,233791,),0,0,1
10:49.553,233839,(,0,0,2
10:49.608,233859,t,0,0,5
10:49.869,233953,t,0,0,5
10:49.911,233968,),0,0,2
10:50.375,234135,(,0,0,1
10:50.425,234153,N,0,0,0
10:50.511,234184,),0,0,1
10:50.528,234190,(,0,0,2
10:50.647,234233,t,0,0,5
10:50.892,234321,t,0,0,5
10:50.964,234347,),0,0,2
10:51.344,234484,N,0,0,0
10:51.353,234487,(,0,0,1
10:51.481,234533,),0,0,1
10:51.586,234571,(,0,0,2
10:51.658,234597,t,0,0,5
10:51.908,234687,t,0,0,5
10:52.064,234743,),0,0,2
10:52.353,234847,(,0,0,1
10:52.361,234850,N,0,0,0
10:52.481,234893,),0,0,1
10:52.594,234934,(,0,0,2
10:52.678,234964,t,0,0,5
10:52.892,235041,t,0,0,5
10:53.014,235085,),0,0,2
10:53.353,235207,(,0,0,1
10:53.367,235212,N,0,0,0
10:53.486,235255,),0,0,1
10:53.514,235265,(,0,0,2
10:53.694,235330,t,0,0,5
10:53.958,235425,t,0,0,5
10:54.014,235445,),0,0,2
10:54.353,235567,(,0,0,1
10:54.367,235572,N,0,0,0
10:54.486,235615,),0,0,1
10:54.622,235664,(,0,0,2
10:54.686,235687,t,0,0,5
10:54.964,235787,t,0,0,5
10:55.014,235805,),0,0,2
10:55.356,235928,(,0,0,1
10:55.364,235931,N,0,0,0
10:55.481,235973,),0,0,1
10:55.561,236002,(,0,0,2
10:55.686,236047,t,0,0,5
10:55.961,236146,t,0,0,5
10:56.006,236162,),0,0,2
10:56.442,236319,(,0,0,1
10:56.494,236338,N,0,0,0
10:56.586,236371,),0,0,1
10:56.650,236394,(,0,0,2
10:56.711,236416,t,0,0,5
10:57.028,236530,t,0,0,5
10:57.078,236548,),0,0,2
10:57.392,236661,N,0,0,0
10:57.397,236663,(,0,0,1
10:57.494,236698,),0,0,1
10:57.631,236747,(,0,0,2
10:57.711,236776,t,0,0,5
10:57.961,236866,t,0,0,5
10:58.047,236897,),0,0,2
10:58.389,237020,(,0,0,1
10:58.394,237022,N,0,0,0
10:58.497,237059,),0,0,1
10:58.597,237095,(,0,0,2
10:58.717,237138,t,0,0,5
10:59.061,237262,t,0,0,5
10:59.106,237278,),0,0,2
10:59.386,237379,(,0,0,1
10:59.406,237386,N,0,0,0
10:59.508,237423,),0,0,1
10:59.625,237465,(,0,0,2
10:59.725,237501,t,0,0,5
11:00.000,237600,t,0,0,5
11:00.056,237620,),0,0,2
11:00.394,237742,(,0,0,1
11:00.411,237748,N,0,0,0
11:00.550,237798,),0,0,1
11:00.672,237842,(,0,0,2
11:00.733,237864,t,0,0,5
11:01.067,237984,t,0,0,5
11:01.117,238002,),0,0,2
11:01.389,238100,(,0,0,1
11:01.411,238108,N,0,0,0
11:01.522,238148,),0,0,1
11:01.642,238191,(,0,0,2
11:01.731,238223,t,0,0,5
11:02.064,238343,t,0,0,5
11:02.094,238354,),0,0,2
11:02.422,238472,(,0,0,1
11:02.425,238473,N,0,0,0
11:02.550,238518,),0,0,1
11:02.644,238552,(,0,0,2
11:02.739,238586,t,0,0,0
11:02.833,238620,),0,0,2
11:03.428,238834,(,0,0,1
11:03.436,238837,N,0,0,0
11:03.556,238880,),0,0,1
11:03.672,238922,(,0,0,2
11:03.753,238951,t,0,0,5
11:04.017,239046,t,0,0,5
11:04.117,239082,),0,0,2
11:04.461,239206,(,0,0,1
11:04.472,239210,N,0,0,0
11:04.592,239253,),0,0,1
11:04.672,239282,(,0,0,2
11:04.811,239332,t,0,0,5
11:05.069,239425,t,0,0,5
11:05.125,239445,),0,0,2
11:05.497,239579,(,0,0,1
11:05.511,239584,N,0,0,0
11:05.628,239626,),0,0,1
11:05.733,239664,(,0,0,2
11:05.825,239697,t,0,0,5
11:06.058,239781,t,0,0,5
11:06.186,239827,),0,0,2
11:06.531,239951,(,0,0,1
11:06.542,239955,N,0,0,0
11:06.661,239998,),0,0,1
11:06.775,240039,(,0,0,2
11:06.861,240070,t,0,0,5
11:07.136,240169,t,0,0,5
11:07.261,240214,),0,0,2
11:07.597,240335,N,0,0,0
11:07.603,240337,(,0,0,1
11:07.719,240379,),0,0,1
11:07.839,240422,(,0,0,2
11:07.928,240454,t,0,0,5
11:08.175,240543,t,0,0,5
11:08.203,240553,),0,0,2
11:08.631,240707,(,0,0,1
11:08.636,240709,N,0,0,0
11:08.756,240752,),0,0,1
11:08.894,240802,(,0,0,2
11:08.961,240826,t,0,0,5
11:09.267,240936,t,0,0,5
11:09.325,240957,),0,0,2
