Elapsedtime,sample,Type,Sub,Chan,Num
0:01.286,463,(,0,0,0
0:01.331,479,p,0,0,0
0:01.386,499,),0,0,0
0:01.461,526,(,0,0,1
0:01.525,549,N,0,0,0
0:01.578,568,),0,0,1
0:01.753,631,(,0,0,2
0:01.842,663,t,0,0,0
0:01.925,693,),0,0,2
0:02.594,934,(,0,0,0
0:02.639,950,p,0,0,0
0:02.694,970,),0,0,0
0:02.789,1004,(,0,0,1
0:02.833,1020,N,0,0,0
0:02.878,1036,),0,0,1
0:03.053,1099,(,0,0,2
0:03.147,1133,t,0,0,0
0:03.228,1162,),0,0,2
0:03.917,1410,(,0,0,0
0:03.964,1427,p,0,0,0
0:04.022,1448,),0,0,0
0:04.119,1483,(,0,0,1
0:04.161,1498,N,0,0,0
0:04.206,1514,),0,0,1
0:04.372,1574,(,0,0,2
0:04.475,1611,t,0,0,0
0:04.561,1642,),0,0,2
0:05.097,1835,(,0,0,0
0:05.147,1853,p,0,0,0
0:05.203,1873,),0,0,0
0:05.294,1906,(,0,0,1
0:05.344,1924,N,0,0,0
0:05.397,1943,),0,0,1
0:05.550,1998,(,0,0,2
0:05.653,2035,t,0,0,0
0:05.731,2063,),0,0,2
0:06.242,2247,(,0,0,0
0:06.289,2264,p,0,0,0
0:06.344,2284,),0,0,0
0:06.453,2323,(,0,0,1
0:06.497,2339,N,0,0,0
0:06.547,2357,),0,0,1
0:06.722,2420,(,0,0,2
0:06.814,2453,t,0,0,0
0:06.897,2483,),0,0,2
0:07.592,2733,(,0,0,0
0:07.642,2751,p,0,0,0
0:07.700,2772,),0,0,0
0:07.792,2805,(,0,0,1
0:07.836,2821,N,0,0,0
0:07.881,2837,),0,0,1
0:08.056,2900,(,0,0,2
0:08.150,2934,t,0,0,0
0:08.228,2962,),0,0,2
0:08.794,3166,(,0,0,0
0:08.850,3186,p,0,0,0
0:08.903,3205,),0,0,0
0:08.997,3239,(,0,0,1
0:09.050,3258,N,0,0,0
0:09.111,3280,),0,0,1
0:09.286,3343,(,0,0,2
0:09.372,3374,t,0,0,0
0:09.447,3401,),0,0,2
0:09.933,3576,(,0,0,0
0:09.981,3593,p,0,0,0
0:10.033,3612,),0,0,0
0:10.131,3647,(,0,0,1
0:10.183,3666,N,0,0,0
0:10.233,3684,),0,0,1
0:10.406,3746,(,0,0,2
0:10.492,3777,t,0,0,0
0:10.572,3806,),0,0,2
0:11.283,4062,(,0,0,0
0:11.333,4080,p,0,0,0
0:11.400,4104,),0,0,0
0:11.492,4137,(,0,0,1
0:11.539,4154,N,0,0,0
0:11.583,4170,),0,0,1
0:11.767,4236,(,0,0,2
0:11.864,4271,t,0,0,0
0:11.944,4300,),0,0,2
0:12.608,4539,(,0,0,0
0:12.661,4558,p,0,0,0
0:12.717,4578,),0,0,0
0:12.803,4609,(,0,0,1
0:12.858,4629,N,0,0,0
0:12.911,4648,),0,0,1
0:13.069,4705,(,0,0,2
0:13.172,4742,t,0,0,0
0:13.253,4771,),0,0,2
0:13.831,4979,(,0,0,0
0:13.878,4996,p,0,0,0
0:13.933,5016,),0,0,0
0:14.033,5052,(,0,0,1
0:14.086,5071,N,0,0,0
0:14.144,5092,),0,0,1
0:14.308,5151,(,0,0,2
0:14.417,5190,t,0,0,0
0:14.494,5218,),0,0,2
0:15.289,5504,(,0,0,0
0:15.339,5522,p,0,0,0
0:15.400,5544,),0,0,0
0:15.497,5579,(,0,0,1
0:15.536,5593,N,0,0,0
0:15.581,5609,),0,0,1
0:15.764,5675,(,0,0,2
0:15.858,5709,t,0,0,0
0:15.942,5739,),0,0,2
0:16.608,5979,(,0,0,0
0:16.661,5998,p,0,0,0
0:16.722,6020,),0,0,0
0:16.808,6051,(,0,0,1
0:16.867,6072,N,0,0,0
0:16.922,6092,),0,0,1
0:17.100,6156,(,0,0,2
0:17.183,6186,t,0,0,0
0:17.264,6215,),0,0,2
0:17.836,6421,(,0,0,0
0:17.886,6439,p,0,0,0
0:17.936,6457,),0,0,0
0:18.036,6493,(,0,0,1
0:18.083,6510,N,0,0,0
0:18.133,6528,),0,0,1
0:18.300,6588,(,0,0,2
0:18.400,6624,t,0,0,0
0:18.486,6655,),0,0,2
0:19.161,6898,(,0,0,0
0:19.211,6916,p,0,0,0
0:19.272,6938,),0,0,0
0:19.369,6973,(,0,0,1
0:19.419,6991,N,0,0,0
0:19.464,7007,),0,0,1
0:19.642,7071,(,0,0,2
0:19.744,7108,t,0,0,0
0:19.825,7137,),0,0,2
0:20.503,7381,(,0,0,0
0:20.556,7400,p,0,0,0
0:20.614,7421,),0,0,0
0:20.708,7455,(,0,0,1
0:20.758,7473,N,0,0,0
0:20.811,7492,),0,0,1
0:20.978,7552,(,0,0,2
0:21.078,7588,t,0,0,0
0:21.164,7619,),0,0,2
0:21.739,7826,(,0,0,0
0:21.786,7843,p,0,0,0
0:21.839,7862,),0,0,0
0:21.942,7899,(,0,0,1
0:22.000,7920,N,0,0,0
0:22.053,7939,),0,0,1
0:22.211,7996,(,0,0,2
0:22.328,8038,t,0,0,0
0:22.414,8069,),0,0,2
0:23.094,8314,(,0,0,0
0:23.150,8334,p,0,0,0
0:23.208,8355,),0,0,0
0:23.306,8390,(,0,0,1
0:23.356,8408,N,0,0,0
0:23.400,8424,),0,0,1
0:23.586,8491,(,0,0,2
0:23.681,8525,t,0,0,0
0:23.764,8555,),0,0,2
0:24.442,8799,(,0,0,0
0:24.497,8819,p,0,0,0
0:24.561,8842,),0,0,0
0:24.644,8872,(,0,0,1
0:24.697,8891,N,0,0,0
0:24.758,8913,),0,0,1
0:24.931,8975,(,0,0,2
0:25.022,9008,t,0,0,0
0:25.108,9039,),0,0,2
0:25.664,9239,(,0,0,0
0:25.706,9254,p,0,0,0
0:25.758,9273,),0,0,0
0:25.844,9304,(,0,0,1
0:25.903,9325,N,0,0,0
0:25.961,9346,),0,0,1
0:26.133,9408,(,0,0,2
0:26.228,9442,t,0,0,0
0:26.306,9470,),0,0,2
0:26.947,9701,(,0,0,0
0:26.997,9719,p,0,0,0
0:27.058,9741,),0,0,0
0:27.147,9773,(,0,0,1
0:27.203,9793,N,0,0,0
0:27.247,9809,),0,0,1
0:27.422,9872,(,0,0,2
0:27.528,9910,t,0,0,0
0:27.614,9941,),0,0,2
0:28.283,10182,(,0,0,0
0:28.336,10201,p,0,0,0
0:28.394,10222,),0,0,0
0:28.483,10254,(,0,0,1
0:28.536,10273,N,0,0,0
0:28.589,10292,),0,0,1
0:28.753,10351,(,0,0,2
0:28.856,10388,t,0,0,0
0:28.944,10420,),0,0,2
0:29.506,10622,(,0,0,0
0:29.553,10639,p,0,0,0
0:29.606,10658,),0,0,0
0:29.711,10696,(,0,0,1
0:29.756,10712,N,0,0,0
0:29.811,10732,),0,0,1
0:29.975,10791,(,0,0,2
0:30.089,10832,t,0,0,0
0:30.172,10862,),0,0,2
0:30.850,11106,(,0,0,0
0:30.900,11124,p,0,0,0
0:30.956,11144,),0,0,0
0:31.047,11177,(,0,0,1
0:31.103,11197,N,0,0,0
0:31.150,11214,),0,0,1
0:31.336,11281,(,0,0,2
0:31.425,11313,t,0,0,0
0:31.506,11342,),0,0,2
0:32.189,11588,(,0,0,0
0:32.242,11607,p,0,0,0
0:32.303,11629,),0,0,0
0:32.383,11658,(,0,0,1
0:32.444,11680,N,0,0,0
0:32.503,11701,),0,0,1
0:32.678,11764,(,0,0,2
0:32.775,11799,t,0,0,0
0:32.869,11833,),0,0,2
0:33.483,12054,(,0,0,0
0:33.533,12072,p,0,0,0
0:33.586,12091,),0,0,0
0:33.683,12126,(,0,0,1
0:33.736,12145,N,0,0,0
0:33.789,12164,),0,0,1
0:33.950,12222,(,0,0,2
0:34.056,12260,t,0,0,0
0:34.142,12291,),0,0,2
0:34.842,12543,(,0,0,0
0:34.892,12561,p,0,0,0
0:34.950,12582,),0,0,0
0:35.019,12607,(,0,0,1
0:35.094,12634,N,0,0,0
0:35.142,12651,),0,0,1
0:35.319,12715,(,0,0,2
0:35.431,12755,t,0,0,0
0:35.508,12783,),0,0,2
0:36.172,13022,(,0,0,0
0:36.225,13041,p,0,0,0
0:36.278,13060,),0,0,0
0:36.383,13098,(,0,0,1
0:36.425,13113,N,0,0,0
0:36.478,13132,),0,0,1
0:36.639,13190,(,0,0,2
0:36.744,13228,t,0,0,0
0:36.831,13259,),0,0,2
0:37.331,13439,(,0,0,0
0:37.383,13458,p,0,0,0
0:37.439,13478,),0,0,0
0:37.519,13507,(,0,0,1
0:37.581,13529,N,0,0,0
0:37.639,13550,),0,0,1
0:37.811,13612,(,0,0,2
0:37.914,13649,t,0,0,0
0:38.003,13681,),0,0,2
0:38.614,13901,(,0,0,0
0:38.667,13920,p,0,0,0
0:38.722,13940,),0,0,0
0:38.822,13976,(,0,0,1
0:38.864,13991,N,0,0,0
0:38.908,14007,),0,0,1
0:39.081,14069,(,0,0,2
0:39.181,14105,t,0,0,0
0:39.272,14138,),0,0,2
0:39.864,14351,(,0,0,0
0:39.911,14368,p,0,0,0
0:39.969,14389,),0,0,0
0:40.056,14420,(,0,0,1
0:40.106,14438,N,0,0,0
0:40.164,14459,),0,0,1
0:40.325,14517,(,0,0,2
0:40.433,14556,t,0,0,0
0:40.517,14586,),0,0,2
0:41.003,14761,(,0,0,0
0:41.047,14777,p,0,0,0
0:41.111,14800,),0,0,0
0:41.192,14829,(,0,0,1
0:41.242,14847,N,0,0,0
0:41.297,14867,),0,0,1
0:41.458,14925,(,0,0,2
0:41.558,14961,t,0,0,0
0:41.642,14991,),0,0,2
0:42.178,15184,(,0,0,0
0:42.222,15200,p,0,0,0
0:42.292,15225,),0,0,0
0:42.358,15249,(,0,0,1
0:42.433,15276,N,0,0,0
0:42.478,15292,),0,0,1
0:42.644,15352,(,0,0,2
0:42.750,15390,t,0,0,0
0:42.833,15420,),0,0,2
0:43.422,15632,(,0,0,0
0:43.469,15649,p,0,0,0
0:43.539,15674,),0,0,0
0:43.622,15704,(,0,0,1
0:43.669,15721,N,0,0,0
0:43.717,15738,),0,0,1
0:43.881,15797,(,0,0,2
0:43.981,15833,t,0,0,0
0:44.061,15862,),0,0,2
0:44.508,16023,(,0,0,0
0:44.550,16038,p,0,0,0
0:44.614,16061,),0,0,0
0:44.694,16090,(,0,0,1
0:44.753,16111,N,0,0,0
0:44.806,16130,),0,0,1
0:44.958,16185,(,0,0,2
0:45.072,16226,t,0,0,0
0:45.156,16256,),0,0,2
0:45.603,16417,(,0,0,0
0:45.653,16435,p,0,0,0
0:45.719,16459,),0,0,0
0:45.822,16496,(,0,0,1
0:45.867,16512,N,0,0,0
0:45.914,16529,),0,0,1
0:46.086,16591,(,0,0,2
0:46.189,16628,t,0,0,0
0:46.261,16654,),0,0,2
0:46.822,16856,(,0,0,0
0:46.864,16871,p,0,0,0
0:46.931,16895,),0,0,0
0:46.997,16919,(,0,0,1
0:47.075,16947,N,0,0,0
0:47.125,16965,),0,0,1
0:47.294,17026,(,0,0,2
0:47.397,17063,t,0,0,0
0:47.481,17093,),0,0,2
0:47.947,17261,(,0,0,0
0:48.000,17280,p,0,0,0
0:48.058,17301,),0,0,0
0:48.156,17336,(,0,0,1
0:48.197,17351,N,0,0,0
0:48.253,17371,),0,0,1
0:48.431,17435,(,0,0,2
0:48.525,17469,t,0,0,0
0:48.603,17497,),0,0,2
0:49.025,17649,(,0,0,0
0:49.072,17666,p,0,0,0
0:49.133,17688,),0,0,0
0:49.197,17711,(,0,0,1
0:49.275,17739,N,0,0,0
0:49.322,17756,),0,0,1
0:49.494,17818,(,0,0,2
0:49.589,17852,t,0,0,0
0:49.667,17880,),0,0,2
0:50.292,18105,(,0,0,0
0:50.336,18121,p,0,0,0
0:50.400,18144,),0,0,0
0:50.494,18178,(,0,0,1
0:50.539,18194,N,0,0,0
0:50.583,18210,),0,0,1
0:50.761,18274,(,0,0,2
0:50.858,18309,t,0,0,0
0:50.942,18339,),0,0,2
0:51.486,18535,(,0,0,0
0:51.528,18550,p,0,0,0
0:51.583,18570,),0,0,0
0:51.667,18600,(,0,0,1
0:51.722,18620,N,0,0,0
0:51.778,18640,),0,0,1
0:51.942,18699,(,0,0,2
0:52.039,18734,t,0,0,0
0:52.114,18761,),0,0,2
0:52.600,18936,(,0,0,0
0:52.644,18952,p,0,0,0
0:52.708,18975,),0,0,0
0:52.800,19008,(,0,0,1
0:52.847,19025,N,0,0,0
0:52.894,19042,),0,0,1
0:53.067,19104,(,0,0,2
0:53.164,19139,t,0,0,0
0:53.247,19169,),0,0,2
0:53.894,19402,(,0,0,0
0:53.942,19419,p,0,0,0
0:54.003,19441,),0,0,0
0:54.097,19475,(,0,0,1
0:54.144,19492,N,0,0,0
0:54.186,19507,),0,0,1
0:54.367,19572,(,0,0,2
0:54.461,19606,t,0,0,0
0:54.544,19636,),0,0,2
0:55.069,19825,(,0,0,0
0:55.122,19844,p,0,0,0
0:55.181,19865,),0,0,0
0:55.269,19897,(,0,0,1
0:55.319,19915,N,0,0,0
0:55.367,19932,),0,0,1
0:55.525,19989,(,0,0,2
0:55.622,20024,t,0,0,0
0:55.708,20055,),0,0,2
0:56.186,20227,(,0,0,0
0:56.231,20243,p,0,0,0
0:56.297,20267,),0,0,0
0:56.372,20294,(,0,0,1
0:56.436,20317,N,0,0,0
0:56.483,20334,),0,0,1
0:56.642,20391,(,0,0,2
0:56.753,20431,t,0,0,0
0:56.833,20460,),0,0,2
0:57.400,20664,(,0,0,0
0:57.447,20681,p,0,0,0
0:57.508,20703,),0,0,0
0:57.600,20736,(,0,0,1
0:57.647,20753,N,0,0,0
0:57.694,20770,),0,0,1
0:57.869,20833,(,0,0,2
0:57.969,20869,t,0,0,0
0:58.056,20900,),0,0,2
0:58.533,21072,(,0,0,0
0:58.581,21089,p,0,0,0
0:58.642,21111,),0,0,0
0:58.736,21145,(,0,0,1
0:58.789,21164,N,0,0,0
0:58.847,21185,),0,0,1
0:59.019,21247,(,0,0,2
0:59.114,21281,t,0,0,0
0:59.194,21310,),0,0,2
0:59.622,21464,(,0,0,0
0:59.664,21479,p,0,0,0
0:59.728,21502,),0,0,0
0:59.831,21539,(,0,0,1
0:59.869,21553,N,0,0,0
0:59.922,21572,),0,0,1
1:00.092,21633,(,0,0,2
1:00.178,21664,t,0,0,0
1:00.264,21695,),0,0,2
1:00.858,21909,(,0,0,0
1:00.903,21925,p,0,0,0
1:00.969,21949,),0,0,0
1:01.069,21985,(,0,0,1
1:01.111,22000,N,0,0,0
1:01.158,22017,),0,0,1
1:01.339,22082,(,0,0,2
1:01.442,22119,t,0,0,0
1:01.519,22147,),0,0,2
1:02.131,22367,(,0,0,0
1:02.178,22384,p,0,0,0
1:02.236,22405,),0,0,0
1:02.333,22440,(,0,0,1
1:02.378,22456,N,0,0,0
1:02.431,22475,),0,0,1
1:02.603,22537,(,0,0,2
1:02.694,22570,t,0,0,0
1:02.772,22598,),0,0,2
1:03.297,22787,(,0,0,0
1:03.336,22801,p,0,0,0
1:03.394,22822,),0,0,0
1:03.475,22851,(,0,0,1
1:03.536,22873,N,0,0,0
1:03.589,22892,),0,0,1
1:03.767,22956,(,0,0,2
1:03.858,22989,t,0,0,0
1:03.942,23019,),0,0,2
1:04.533,23232,(,0,0,0
1:04.581,23249,p,0,0,0
1:04.644,23272,),0,0,0
1:04.736,23305,(,0,0,1
1:04.781,23321,N,0,0,0
1:04.828,23338,),0,0,1
1:05.003,23401,(,0,0,2
1:05.097,23435,t,0,0,0
1:05.175,23463,),0,0,2
1:05.747,23669,(,0,0,0
1:05.797,23687,p,0,0,0
1:05.858,23709,),0,0,0
1:05.947,23741,(,0,0,1
1:05.997,23759,N,0,0,0
1:06.056,23780,),0,0,1
1:06.222,23840,(,0,0,2
1:06.319,23875,t,0,0,0
1:06.406,23906,),0,0,2
1:06.906,24086,(,0,0,0
1:06.953,24103,p,0,0,0
1:07.008,24123,),0,0,0
1:07.108,24159,(,0,0,1
1:07.150,24174,N,0,0,0
1:07.197,24191,),0,0,1
1:07.372,24254,(,0,0,2
1:07.464,24287,t,0,0,0
1:07.547,24317,),0,0,2
1:08.139,24530,(,0,0,0
1:08.181,24545,p,0,0,0
1:08.244,24568,),0,0,0
1:08.336,24601,(,0,0,1
1:08.381,24617,N,0,0,0
1:08.425,24633,),0,0,1
1:08.600,24696,(,0,0,2
1:08.706,24734,t,0,0,0
1:08.789,24764,),0,0,2
1:09.375,24975,(,0,0,0
1:09.422,24992,p,0,0,0
1:09.481,25013,),0,0,0
1:09.575,25047,(,0,0,1
1:09.614,25061,N,0,0,0
1:09.667,25080,),0,0,1
1:09.831,25139,(,0,0,2
1:09.933,25176,t,0,0,0
1:10.017,25206,),0,0,2
1:10.486,25375,(,0,0,0
1:10.531,25391,p,0,0,0
1:10.589,25412,),0,0,0
1:10.683,25446,(,0,0,1
1:10.736,25465,N,0,0,0
1:10.789,25484,),0,0,1
1:10.942,25539,(,0,0,2
1:11.036,25573,t,0,0,0
1:11.119,25603,),0,0,2
1:11.739,25826,(,0,0,0
1:11.783,25842,p,0,0,0
1:11.847,25865,),0,0,0
1:11.917,25890,(,0,0,1
1:11.981,25913,N,0,0,0
1:12.025,25929,),0,0,1
1:12.192,25989,(,0,0,2
1:12.292,26025,t,0,0,0
1:12.375,26055,),0,0,2
1:12.947,26261,(,0,0,0
1:12.994,26278,p,0,0,0
1:13.056,26300,),0,0,0
1:13.147,26333,(,0,0,1
1:13.194,26350,N,0,0,0
1:13.244,26368,),0,0,1
1:13.419,26431,(,0,0,2
1:13.508,26463,t,0,0,0
1:13.594,26494,),0,0,2
1:14.036,26653,(,0,0,0
1:14.086,26671,p,0,0,0
1:14.144,26692,),0,0,0
1:14.244,26728,(,0,0,1
1:14.292,26745,N,0,0,0
1:14.347,26765,),0,0,1
1:14.511,26824,(,0,0,2
1:14.608,26859,t,0,0,0
1:14.694,26890,),0,0,2
1:15.089,27032,(,0,0,0
1:15.136,27049,p,0,0,0
1:15.194,27070,),0,0,0
1:15.286,27103,(,0,0,1
1:15.333,27120,N,0,0,0
1:15.389,27140,),0,0,1
1:15.558,27201,(,0,0,2
1:15.644,27232,t,0,0,0
1:15.736,27265,),0,0,2
1:16.089,27392,(,0,0,0
1:16.122,27404,p,0,0,0
1:16.181,27425,),0,0,0
1:16.253,27451,(,0,0,1
1:16.319,27475,N,0,0,0
1:16.378,27496,),0,0,1
1:16.550,27558,(,0,0,2
1:16.644,27592,t,0,0,0
1:16.725,27621,),0,0,2
1:17.092,27753,(,0,0,0
1:17.136,27769,p,0,0,0
1:17.203,27793,),0,0,0
1:17.286,27823,(,0,0,1
1:17.331,27839,N,0,0,0
1:17.378,27856,),0,0,1
1:17.544,27916,(,0,0,2
1:17.636,27949,t,0,0,0
1:17.722,27980,),0,0,2
1:18.086,28111,(,0,0,0
1:18.128,28126,p,0,0,0
1:18.194,28150,),0,0,0
1:18.283,28182,(,0,0,1
1:18.333,28200,N,0,0,0
1:18.386,28219,),0,0,1
1:18.547,28277,(,0,0,2
1:18.633,28308,t,0,0,0
1:18.714,28337,),0,0,2
1:19.025,28449,(,0,0,0
1:19.069,28465,p,0,0,0
1:19.133,28488,),0,0,0
1:19.222,28520,(,0,0,1
1:19.278,28540,N,0,0,0
1:19.333,28560,),0,0,1
1:19.508,28623,(,0,0,2
1:19.592,28653,t,0,0,0
1:19.681,28685,),0,0,2
1:20.053,28819,(,0,0,0
1:20.097,28835,p,0,0,0
1:20.161,28858,),0,0,0
1:20.256,28892,(,0,0,1
1:20.300,28908,N,0,0,0
1:20.347,28925,),0,0,1
1:20.531,28991,(,0,0,2
1:20.617,29022,t,0,0,0
1:20.694,29050,),0,0,2
1:21.108,29199,(,0,0,0
1:21.150,29214,p,0,0,0
1:21.217,29238,),0,0,0
1:21.292,29265,(,0,0,1
1:21.356,29288,N,0,0,0
1:21.411,29308,),0,0,1
1:21.572,29366,(,0,0,2
1:21.669,29401,t,0,0,0
1:21.756,29432,),0,0,2
1:22.136,29569,(,0,0,0
1:22.186,29587,p,0,0,0
1:22.242,29607,),0,0,0
1:22.325,29637,(,0,0,1
1:22.386,29659,N,0,0,0
1:22.439,29678,),0,0,1
1:22.589,29732,(,0,0,2
1:22.694,29770,t,0,0,0
1:22.775,29799,),0,0,2
1:23.258,29973,(,0,0,0
1:23.306,29990,p,0,0,0
1:23.372,30014,),0,0,0
1:23.458,30045,(,0,0,1
1:23.514,30065,N,0,0,0
1:23.564,30083,),0,0,1
1:23.731,30143,(,0,0,2
1:23.825,30177,t,0,0,0
1:23.903,30205,),0,0,2
1:24.594,30454,(,0,0,0
1:24.642,30471,p,0,0,0
1:24.708,30495,),0,0,0
1:24.792,30525,(,0,0,1
1:24.844,30544,N,0,0,0
1:24.900,30564,),0,0,1
1:25.056,30620,(,0,0,2
1:25.161,30658,t,0,0,0
1:25.242,30687,),0,0,2
1:25.867,30912,(,0,0,0
1:25.908,30927,p,0,0,0
1:25.969,30949,),0,0,0
1:26.061,30982,(,0,0,1
1:26.111,31000,N,0,0,0
1:26.167,31020,),0,0,1
1:26.322,31076,(,0,0,2
1:26.419,31111,t,0,0,0
1:26.494,31138,),0,0,2
1:27.169,31381,(,0,0,0
1:27.217,31398,p,0,0,0
1:27.278,31420,),0,0,0
1:27.364,31451,(,0,0,1
1:27.417,31470,N,0,0,0
1:27.464,31487,),0,0,1
1:27.636,31549,(,0,0,2
1:27.733,31584,t,0,0,0
1:27.811,31612,),0,0,2
1:28.458,31845,(,0,0,0
1:28.508,31863,p,0,0,0
1:28.567,31884,),0,0,0
1:28.631,31907,(,0,0,1
1:28.703,31933,N,0,0,0
1:28.753,31951,),0,0,1
1:28.922,32012,(,0,0,2
1:29.028,32050,t,0,0,0
1:29.111,32080,),0,0,2
1:29.656,32276,(,0,0,0
1:29.697,32291,p,0,0,0
1:29.758,32313,),0,0,0
1:29.861,32350,(,0,0,1
1:29.900,32364,N,0,0,0
1:29.947,32381,),0,0,1
1:30.122,32444,(,0,0,2
1:30.225,32481,t,0,0,0
1:30.303,32509,),0,0,2
1:30.861,32710,(,0,0,0
1:30.906,32726,p,0,0,0
1:30.967,32748,),0,0,0
1:31.061,32782,(,0,0,1
1:31.106,32798,N,0,0,0
1:31.150,32814,),0,0,1
1:31.319,32875,(,0,0,2
1:31.419,32911,t,0,0,0
1:31.500,32940,),0,0,2
1:32.128,33166,(,0,0,0
1:32.175,33183,p,0,0,0
1:32.239,33206,),0,0,0
1:32.331,33239,(,0,0,1
1:32.381,33257,N,0,0,0
1:32.431,33275,),0,0,1
1:32.606,33338,(,0,0,2
1:32.708,33375,t,0,0,0
1:32.786,33403,),0,0,2
1:33.289,33584,(,0,0,0
1:33.336,33601,p,0,0,0
1:33.397,33623,),0,0,0
1:33.497,33659,(,0,0,1
1:33.539,33674,N,0,0,0
1:33.589,33692,),0,0,1
1:33.758,33753,(,0,0,2
1:33.861,33790,t,0,0,0
1:33.939,33818,),0,0,2
1:34.469,34009,(,0,0,0
1:34.517,34026,p,0,0,0
1:34.583,34050,),0,0,0
1:34.667,34080,(,0,0,1
1:34.725,34101,N,0,0,0
1:34.772,34118,),0,0,1
1:34.942,34179,(,0,0,2
1:35.047,34217,t,0,0,0
1:35.131,34247,),0,0,2
1:35.722,34460,(,0,0,0
1:35.767,34476,p,0,0,0
1:35.831,34499,),0,0,0
1:35.900,34524,(,0,0,1
1:35.961,34546,N,0,0,0
1:36.008,34563,),0,0,1
1:36.175,34623,(,0,0,2
1:36.278,34660,t,0,0,0
1:36.356,34688,),0,0,2
1:36.839,34862,(,0,0,0
1:36.889,34880,p,0,0,0
1:36.947,34901,),0,0,0
1:37.033,34932,(,0,0,1
1:37.089,34952,N,0,0,0
1:37.147,34973,),0,0,1
1:37.322,35036,(,0,0,2
1:37.414,35069,t,0,0,0
1:37.500,35100,),0,0,2
1:38.014,35285,(,0,0,0
1:38.056,35300,p,0,0,0
1:38.119,35323,),0,0,0
1:38.206,35354,(,0,0,1
1:38.258,35373,N,0,0,0
1:38.306,35390,),0,0,1
1:38.475,35451,(,0,0,2
1:38.569,35485,t,0,0,0
1:38.642,35511,),0,0,2
1:39.414,35789,(,0,0,0
1:39.461,35806,p,0,0,0
1:39.517,35826,),0,0,0
1:39.603,35857,(,0,0,1
1:39.658,35877,N,0,0,0
1:39.703,35893,),0,0,1
1:39.889,35960,(,0,0,2
1:39.986,35995,t,0,0,0
1:40.072,36026,),0,0,2
1:40.603,36217,(,0,0,0
1:40.647,36233,p,0,0,0
1:40.700,36252,),0,0,0
1:40.803,36289,(,0,0,1
1:40.844,36304,N,0,0,0
1:40.900,36324,),0,0,1
1:41.064,36383,(,0,0,2
1:41.158,36417,t,0,0,0
1:41.236,36445,),0,0,2
1:41.736,36625,(,0,0,0
1:41.781,36641,p,0,0,0
1:41.839,36662,),0,0,0
1:41.933,36696,(,0,0,1
1:41.978,36712,N,0,0,0
1:42.022,36728,),0,0,1
1:42.200,36792,(,0,0,2
1:42.289,36824,t,0,0,0
1:42.369,36853,),0,0,2
1:43.136,37129,(,0,0,0
1:43.186,37147,p,0,0,0
1:43.242,37167,),0,0,0
1:43.336,37201,(,0,0,1
1:43.381,37217,N,0,0,0
1:43.425,37233,),0,0,1
1:43.600,37296,(,0,0,2
1:43.694,37330,t,0,0,0
1:43.775,37359,),0,0,2
1:44.333,37560,(,0,0,0
1:44.369,37573,p,0,0,0
1:44.414,37589,),0,0,0
1:44.481,37613,(,0,0,1
1:44.564,37643,N,0,0,0
1:44.617,37662,),0,0,1
1:44.858,37749,(,0,0,2
1:44.889,37760,t,0,0,0
1:44.967,37788,),0,0,2
1:45.389,37940,(,0,0,0
1:45.453,37963,p,0,0,0
1:45.514,37985,),0,0,0
1:45.600,38016,(,0,0,1
1:45.642,38031,N,0,0,0
1:45.689,38048,),0,0,1
1:45.886,38119,(,0,0,2
1:45.956,38144,t,0,0,0
1:46.025,38169,),0,0,2
1:46.431,38315,(,0,0,0
1:46.458,38325,p,0,0,0
1:46.511,38344,),0,0,0
1:46.608,38379,(,0,0,1
1:46.650,38394,N,0,0,0
1:46.700,38412,),0,0,1
1:46.869,38473,(,0,0,2
1:46.964,38507,t,0,0,0
1:47.061,38542,),0,0,2
1:47.372,38654,(,0,0,0
1:47.408,38667,p,0,0,0
1:47.489,38696,),0,0,0
1:47.578,38728,(,0,0,1
1:47.619,38743,N,0,0,0
1:47.675,38763,),0,0,1
1:47.839,38822,(,0,0,2
1:47.936,38857,t,0,0,5
1:48.219,38959,t,0,0,5
1:48.256,38972,),0,0,2
1:48.439,39038,(,0,0,0
1:48.483,39054,p,0,0,0
1:48.511,39064,),0,0,0
1:48.544,39076,(,0,0,1
1:48.619,39103,N,0,0,0
1:48.664,39119,),0,0,1
1:48.836,39181,(,0,0,2
1:48.925,39213,t,0,0,5
1:49.108,39279,t,0,0,5
1:49.133,39288,),0,0,2
1:49.425,39393,(,0,0,0
1:49.461,39406,p,0,0,0
1:49.525,39429,),0,0,0
1:49.611,39460,(,0,0,1
1:49.667,39480,N,0,0,0
1:49.719,39499,),0,0,1
1:49.869,39553,(,0,0,2
1:49.964,39587,t,0,0,0
1:50.044,39616,),0,0,2
1:50.414,39749,(,0,0,0
1:50.464,39767,p,0,0,0
1:50.531,39791,),0,0,0
1:50.636,39829,(,0,0,1
1:50.675,39843,N,0,0,0
1:50.725,39861,),0,0,1
1:50.883,39918,(,0,0,2
1:50.975,39951,t,0,0,0
1:51.067,39984,),0,0,2
1:51.481,40133,(,0,0,0
1:51.528,40150,p,0,0,0
1:51.594,40174,),0,0,0
1:51.683,40206,(,0,0,1
1:51.739,40226,N,0,0,0
1:51.789,40244,),0,0,1
1:51.950,40302,(,0,0,2
1:52.047,40337,t,0,0,0
1:52.122,40364,),0,0,2
1:52.589,40532,(,0,0,0
1:52.639,40550,p,0,0,0
1:52.700,40572,),0,0,0
1:52.781,40601,(,0,0,1
1:52.844,40624,N,0,0,0
1:52.900,40644,),0,0,1
1:53.072,40706,(,0,0,2
1:53.164,40739,t,0,0,0
1:53.244,40768,),0,0,2
1:53.697,40931,(,0,0,0
1:53.739,40946,p,0,0,0
1:53.797,40967,),0,0,0
1:53.886,40999,(,0,0,1
1:53.936,41017,N,0,0,0
1:53.989,41036,),0,0,1
1:54.156,41096,(,0,0,2
1:54.256,41132,t,0,0,0
1:54.333,41160,),0,0,2
1:55.058,41421,(,0,0,0
1:55.103,41437,p,0,0,0
1:55.169,41461,),0,0,0
1:55.250,41490,(,0,0,1
1:55.308,41511,N,0,0,0
1:55.356,41528,),0,0,1
1:55.531,41591,(,0,0,2
1:55.639,41630,t,0,0,0
1:55.722,41660,),0,0,2
1:56.447,41921,(,0,0,0
1:56.492,41937,p,0,0,0
1:56.553,41959,),0,0,0
1:56.647,41993,(,0,0,1
1:56.692,42009,N,0,0,0
1:56.753,42031,),0,0,1
1:56.917,42090,(,0,0,2
1:57.019,42127,t,0,0,0
1:57.106,42158,),0,0,2
1:57.783,42402,(,0,0,0
1:57.831,42419,p,0,0,0
1:57.892,42441,),0,0,0
1:57.983,42474,(,0,0,1
1:58.031,42491,N,0,0,0
1:58.081,42509,),0,0,1
1:58.253,42571,(,0,0,2
1:58.361,42610,t,0,0,0
1:58.444,42640,),0,0,2
1:59.150,42894,(,0,0,0
1:59.197,42911,p,0,0,0
1:59.258,42933,),0,0,0
1:59.353,42967,(,0,0,1
1:59.400,42984,N,0,0,0
1:59.450,43002,),0,0,1
1:59.619,43063,(,0,0,2
1:59.722,43100,t,0,0,0
1:59.808,43131,),0,0,2
2:00.367,43332,(,0,0,0
2:00.414,43349,p,0,0,0
2:00.469,43369,),0,0,0
2:00.556,43400,(,0,0,1
2:00.608,43419,N,0,0,0
2:00.664,43439,),0,0,1
2:00.836,43501,(,0,0,2
2:00.939,43538,t,0,0,0
2:01.022,43568,),0,0,2
2:01.603,43777,(,0,0,0
2:01.644,43792,p,0,0,0
2:01.706,43814,),0,0,0
2:01.786,43843,(,0,0,1
2:01.844,43864,N,0,0,0
2:01.894,43882,),0,0,1
2:02.056,43940,(,0,0,2
2:02.164,43979,t,0,0,0
2:02.242,44007,),0,0,2
2:02.889,44240,(,0,0,0
2:02.942,44259,p,0,0,0
2:03.003,44281,),0,0,0
2:03.086,44311,(,0,0,1
2:03.142,44331,N,0,0,0
2:03.197,44351,),0,0,1
2:03.375,44415,(,0,0,2
2:03.475,44451,t,0,0,0
2:03.556,44480,),0,0,2
2:04.075,44667,(,0,0,0
2:04.117,44682,p,0,0,0
2:04.169,44701,),0,0,0
2:04.258,44733,(,0,0,1
2:04.308,44751,N,0,0,0
2:04.364,44771,),0,0,1
2:04.533,44832,(,0,0,2
2:04.631,44867,t,0,0,0
2:04.714,44897,),0,0,2
2:05.158,45057,(,0,0,0
2:05.203,45073,p,0,0,0
2:05.264,45095,),0,0,0
2:05.325,45117,(,0,0,1
2:05.392,45141,N,0,0,0
2:05.442,45159,),0,0,1
2:05.603,45217,(,0,0,2
2:05.697,45251,t,0,0,0
2:05.781,45281,),0,0,2
2:06.308,45471,(,0,0,0
2:06.353,45487,p,0,0,0
2:06.422,45512,),0,0,0
2:06.489,45536,(,0,0,1
2:06.556,45560,N,0,0,0
2:06.603,45577,),0,0,1
2:06.775,45639,(,0,0,2
2:06.867,45672,t,0,0,0
2:06.944,45700,),0,0,2
2:07.558,45921,(,0,0,0
2:07.606,45938,p,0,0,0
2:07.661,45958,),0,0,0
2:07.753,45991,(,0,0,1
2:07.797,46007,N,0,0,0
2:07.850,46026,),0,0,1
2:08.019,46087,(,0,0,2
2:08.119,46123,t,0,0,0
2:08.194,46150,),0,0,2
2:08.714,46337,(,0,0,0
2:08.758,46353,p,0,0,0
2:08.822,46376,),0,0,0
2:08.919,46411,(,0,0,1
2:08.969,46429,N,0,0,0
2:09.017,46446,),0,0,1
2:09.192,46509,(,0,0,2
2:09.281,46541,t,0,0,0
2:09.367,46572,),0,0,2
2:09.956,46784,(,0,0,0
2:10.000,46800,p,0,0,0
2:10.061,46822,),0,0,0
2:10.158,46857,(,0,0,1
2:10.203,46873,N,0,0,0
2:10.247,46889,),0,0,1
2:10.425,46953,(,0,0,2
2:10.522,46988,t,0,0,0
2:10.603,47017,),0,0,2
2:11.222,47240,(,0,0,0
2:11.269,47257,p,0,0,0
2:11.336,47281,),0,0,0
2:11.428,47314,(,0,0,1
2:11.475,47331,N,0,0,0
2:11.536,47353,),0,0,1
2:11.711,47416,(,0,0,2
2:11.803,47449,t,0,0,0
2:11.878,47476,),0,0,2
2:12.253,47611,(,0,0,0
2:12.300,47628,p,0,0,0
2:12.358,47649,),0,0,0
2:12.458,47685,(,0,0,1
2:12.500,47700,N,0,0,0
2:12.553,47719,),0,0,1
2:12.714,47777,(,0,0,2
2:12.817,47814,t,0,0,0
2:12.894,47842,),0,0,2
2:13.278,47980,(,0,0,0
2:13.319,47995,p,0,0,0
2:13.386,48019,),0,0,0
2:13.464,48047,(,0,0,1
2:13.514,48065,N,0,0,0
2:13.569,48085,),0,0,1
2:13.739,48146,(,0,0,2
2:13.833,48180,t,0,0,0
2:13.922,48212,),0,0,2
2:14.289,48344,(,0,0,0
2:14.342,48363,p,0,0,0
2:14.397,48383,),0,0,0
2:14.464,48407,(,0,0,1
2:14.536,48433,N,0,0,0
2:14.586,48451,),0,0,1
2:14.753,48511,(,0,0,2
2:14.839,48542,t,0,0,0
2:14.914,48569,),0,0,2
2:15.339,48722,(,0,0,0
2:15.381,48737,p,0,0,0
2:15.450,48762,),0,0,0
2:15.531,48791,(,0,0,1
2:15.589,48812,N,0,0,0
2:15.642,48831,),0,0,1
2:15.811,48892,(,0,0,2
2:15.903,48925,t,0,0,0
2:15.981,48953,),0,0,2
2:16.794,49246,(,0,0,0
2:16.850,49266,p,0,0,0
2:16.906,49286,),0,0,0
2:16.997,49319,(,0,0,1
2:17.050,49338,N,0,0,0
2:17.097,49355,),0,0,1
2:17.261,49414,(,0,0,2
2:17.358,49449,t,0,0,0
2:17.439,49478,),0,0,2
2:18.103,49717,(,0,0,0
2:18.153,49735,p,0,0,0
2:18.206,49754,),0,0,0
2:18.300,49788,(,0,0,1
2:18.353,49807,N,0,0,0
2:18.408,49827,),0,0,1
2:18.567,49884,(,0,0,2
2:18.667,49920,t,0,0,0
2:18.750,49950,),0,0,2
2:19.439,50198,(,0,0,0
2:19.494,50218,p,0,0,0
2:19.550,50238,),0,0,0
2:19.603,50257,(,0,0,1
2:19.689,50288,N,0,0,0
2:19.733,50304,),0,0,1
2:19.906,50366,(,0,0,2
2:20.000,50400,t,0,0,0
2:20.083,50430,),0,0,2
2:20.775,50679,(,0,0,0
2:20.825,50697,p,0,0,0
2:20.878,50716,),0,0,0
2:20.969,50749,(,0,0,1
2:21.017,50766,N,0,0,0
2:21.069,50785,),0,0,1
2:21.231,50843,(,0,0,2
2:21.325,50877,t,0,0,0
2:21.406,50906,),0,0,2
2:22.006,51122,(,0,0,0
2:22.058,51141,p,0,0,0
2:22.111,51160,),0,0,0
2:22.203,51193,(,0,0,1
2:22.253,51211,N,0,0,0
2:22.308,51231,),0,0,1
2:22.469,51289,(,0,0,2
2:22.569,51325,t,0,0,0
2:22.650,51354,),0,0,2
2:23.311,51592,(,0,0,0
2:23.361,51610,p,0,0,0
2:23.419,51631,),0,0,0
2:23.506,51662,(,0,0,1
2:23.561,51682,N,0,0,0
2:23.608,51699,),0,0,1
2:23.781,51761,(,0,0,2
2:23.881,51797,t,0,0,0
2:23.967,51828,),0,0,2
2:24.650,52074,(,0,0,0
2:24.692,52089,p,0,0,0
2:24.744,52108,),0,0,0
2:24.839,52142,(,0,0,1
2:24.894,52162,N,0,0,0
2:24.950,52182,),0,0,1
2:25.111,52240,(,0,0,2
2:25.208,52275,t,0,0,0
2:25.292,52305,),0,0,2
2:25.828,52498,(,0,0,0
2:25.875,52515,p,0,0,0
2:25.931,52535,),0,0,0
2:26.006,52562,(,0,0,1
2:26.072,52586,N,0,0,0
2:26.125,52605,),0,0,1
2:26.294,52666,(,0,0,2
2:26.389,52700,t,0,0,0
2:26.469,52729,),0,0,2
2:27.181,52985,(,0,0,0
2:27.233,53004,p,0,0,0
2:27.292,53025,),0,0,0
2:27.372,53054,(,0,0,1
2:27.436,53077,N,0,0,0
2:27.481,53093,),0,0,1
2:27.653,53155,(,0,0,2
2:27.753,53191,t,0,0,0
2:27.831,53219,),0,0,2
2:28.494,53458,(,0,0,0
2:28.539,53474,p,0,0,0
2:28.594,53494,),0,0,0
2:28.675,53523,(,0,0,1
2:28.736,53545,N,0,0,0
2:28.789,53564,),0,0,1
2:28.950,53622,(,0,0,2
2:29.044,53656,t,0,0,0
2:29.122,53684,),0,0,2
2:29.631,53867,(,0,0,0
2:29.686,53887,p,0,0,0
2:29.744,53908,),0,0,0
2:29.836,53941,(,0,0,1
2:29.886,53959,N,0,0,0
2:29.939,53978,),0,0,1
2:30.103,54037,(,0,0,2
2:30.200,54072,t,0,0,0
2:30.278,54100,),0,0,2
2:30.861,54310,(,0,0,0
2:30.900,54324,p,0,0,0
2:30.967,54348,),0,0,0
2:31.044,54376,(,0,0,1
2:31.106,54398,N,0,0,0
2:31.153,54415,),0,0,1
2:31.311,54472,(,0,0,2
2:31.422,54512,t,0,0,0
2:31.500,54540,),0,0,2
2:32.156,54776,(,0,0,0
2:32.200,54792,p,0,0,0
2:32.267,54816,),0,0,0
2:32.347,54845,(,0,0,1
2:32.408,54867,N,0,0,0
2:32.458,54885,),0,0,1
2:32.636,54949,(,0,0,2
2:32.733,54984,t,0,0,0
2:32.819,55015,),0,0,2
2:33.364,55211,(,0,0,0
2:33.403,55225,p,0,0,0
2:33.461,55246,),0,0,0
2:33.544,55276,(,0,0,1
2:33.603,55297,N,0,0,0
2:33.658,55317,),0,0,1
2:33.819,55375,(,0,0,2
2:33.922,55412,t,0,0,0
2:33.992,55437,),0,0,2
2:34.503,55621,(,0,0,0
2:34.544,55636,p,0,0,0
2:34.611,55660,),0,0,0
2:34.711,55696,(,0,0,1
2:34.761,55714,N,0,0,0
2:34.808,55731,),0,0,1
2:34.981,55793,(,0,0,2
2:35.086,55831,t,0,0,0
2:35.169,55861,),0,0,2
2:35.819,56095,(,0,0,0
2:35.867,56112,p,0,0,0
2:35.931,56135,),0,0,0
2:36.014,56165,(,0,0,1
2:36.067,56184,N,0,0,0
2:36.122,56204,),0,0,1
2:36.283,56262,(,0,0,2
2:36.386,56299,t,0,0,0
2:36.467,56328,),0,0,2
2:36.883,56478,(,0,0,0
2:36.931,56495,p,0,0,0
2:36.986,56515,),0,0,0
2:37.081,56549,(,0,0,1
2:37.125,56565,N,0,0,0
2:37.183,56586,),0,0,1
2:37.353,56647,(,0,0,2
2:37.447,56681,t,0,0,0
2:37.539,56714,),0,0,2
2:37.942,56859,(,0,0,0
2:37.983,56874,p,0,0,0
2:38.047,56897,),0,0,0
2:38.117,56922,(,0,0,1
2:38.183,56946,N,0,0,0
2:38.231,56963,),0,0,1
2:38.411,57028,(,0,0,2
2:38.494,57058,t,0,0,0
2:38.578,57088,),0,0,2
2:39.031,57251,(,0,0,0
2:39.078,57268,p,0,0,0
2:39.144,57292,),0,0,0
2:39.217,57318,(,0,0,1
2:39.283,57342,N,0,0,0
2:39.336,57361,),0,0,1
2:39.511,57424,(,0,0,2
2:39.597,57455,t,0,0,0
2:39.681,57485,),0,0,2
2:40.200,57672,(,0,0,0
2:40.239,57686,p,0,0,0
2:40.300,57708,),0,0,0
2:40.386,57739,(,0,0,1
2:40.447,57761,N,0,0,0
2:40.497,57779,),0,0,1
2:40.658,57837,(,0,0,2
2:40.756,57872,t,0,0,0
2:40.839,57902,),0,0,2
2:41.703,58213,(,0,0,0
2:41.761,58234,p,0,0,0
2:41.819,58255,),0,0,0
2:41.914,58289,(,0,0,1
2:41.956,58304,N,0,0,0
2:42.000,58320,),0,0,1
2:42.175,58383,(,0,0,2
2:42.278,58420,t,0,0,0
2:42.364,58451,),0,0,2
2:43.114,58721,(,0,0,0
2:43.161,58738,p,0,0,0
2:43.214,58757,),0,0,0
2:43.317,58794,(,0,0,1
2:43.358,58809,N,0,0,0
2:43.408,58827,),0,0,1
2:43.586,58891,(,0,0,2
2:43.675,58923,t,0,0,0
2:43.761,58954,),0,0,2
2:44.383,59178,(,0,0,0
2:44.436,59197,p,0,0,0
2:44.492,59217,),0,0,0
2:44.583,59250,(,0,0,1
2:44.631,59267,N,0,0,0
2:44.675,59283,),0,0,1
2:44.847,59345,(,0,0,2
2:44.950,59382,t,0,0,0
2:45.025,59409,),0,0,2
2:45.714,59657,(,0,0,0
2:45.767,59676,p,0,0,0
2:45.822,59696,),0,0,0
2:45.919,59731,(,0,0,1
2:45.961,59746,N,0,0,0
2:46.008,59763,),0,0,1
2:46.181,59825,(,0,0,2
2:46.286,59863,t,0,0,0
2:46.367,59892,),0,0,2
2:46.983,60114,(,0,0,0
2:47.031,60131,p,0,0,0
2:47.083,60150,),0,0,0
2:47.186,60187,(,0,0,1
2:47.228,60202,N,0,0,0
2:47.278,60220,),0,0,1
2:47.447,60281,(,0,0,2
2:47.556,60320,t,0,0,0
2:47.642,60351,),0,0,2
2:48.197,60551,(,0,0,0
2:48.242,60567,p,0,0,0
2:48.297,60587,),0,0,0
2:48.389,60620,(,0,0,1
2:48.442,60639,N,0,0,0
2:48.486,60655,),0,0,1
2:48.664,60719,(,0,0,2
2:48.761,60754,t,0,0,0
2:48.839,60782,),0,0,2
2:49.500,61020,(,0,0,0
2:49.550,61038,p,0,0,0
2:49.606,61058,),0,0,0
2:49.692,61089,(,0,0,1
2:49.744,61108,N,0,0,0
2:49.789,61124,),0,0,1
2:49.975,61191,(,0,0,2
2:50.069,61225,t,0,0,0
2:50.156,61256,),0,0,2
2:50.700,61452,(,0,0,0
2:50.744,61468,p,0,0,0
2:50.800,61488,),0,0,0
2:50.889,61520,(,0,0,1
2:50.936,61537,N,0,0,0
2:50.989,61556,),0,0,1
2:51.156,61616,(,0,0,2
2:51.256,61652,t,0,0,0
2:51.336,61681,),0,0,2
2:51.792,61845,(,0,0,0
2:51.839,61862,p,0,0,0
2:51.894,61882,),0,0,0
2:51.961,61906,(,0,0,1
2:52.039,61934,N,0,0,0
2:52.086,61951,),0,0,1
2:52.250,62010,(,0,0,2
2:52.342,62043,t,0,0,0
2:52.422,62072,),0,0,2
2:52.958,62265,(,0,0,0
2:53.006,62282,p,0,0,0
2:53.075,62307,),0,0,0
2:53.158,62337,(,0,0,1
2:53.217,62358,N,0,0,0
2:53.264,62375,),0,0,1
2:53.436,62437,(,0,0,2
2:53.525,62469,t,0,0,0
2:53.611,62500,),0,0,2
2:54.122,62684,(,0,0,0
2:54.169,62701,p,0,0,0
2:54.231,62723,),0,0,0
2:54.325,62757,(,0,0,1
2:54.367,62772,N,0,0,0
2:54.414,62789,),0,0,1
2:54.592,62853,(,0,0,2
2:54.681,62885,t,0,0,0
2:54.772,62918,),0,0,2
2:55.219,63079,(,0,0,0
2:55.261,63094,p,0,0,0
2:55.317,63114,),0,0,0
2:55.425,63153,(,0,0,1
2:55.464,63167,N,0,0,0
2:55.519,63187,),0,0,1
2:55.694,63250,(,0,0,2
2:55.792,63285,t,0,0,0
2:55.875,63315,),0,0,2
2:56.322,63476,(,0,0,0
2:56.369,63493,p,0,0,0
2:56.428,63514,),0,0,0
2:56.525,63549,(,0,0,1
2:56.572,63566,N,0,0,0
2:56.622,63584,),0,0,1
2:56.794,63646,(,0,0,2
2:56.894,63682,t,0,0,0
2:56.978,63712,),0,0,2
2:57.697,63971,(,0,0,0
2:57.744,63988,p,0,0,0
2:57.808,64011,),0,0,0
2:57.897,64043,(,0,0,1
2:57.950,64062,N,0,0,0
2:57.997,64079,),0,0,1
2:58.186,64147,(,0,0,2
2:58.292,64185,t,0,0,0
2:58.369,64213,),0,0,2
2:59.022,64448,(,0,0,0
2:59.064,64463,p,0,0,0
2:59.122,64484,),0,0,0
2:59.225,64521,(,0,0,1
2:59.267,64536,N,0,0,0
2:59.319,64555,),0,0,1
2:59.492,64617,(,0,0,2
2:59.592,64653,t,0,0,0
2:59.672,64682,),0,0,2
3:00.142,64851,(,0,0,0
3:00.186,64867,p,0,0,0
3:00.244,64888,),0,0,0
3:00.333,64920,(,0,0,1
3:00.386,64939,N,0,0,0
3:00.439,64958,),0,0,1
3:00.606,65018,(,0,0,2
3:00.711,65056,t,0,0,0
3:00.797,65087,),0,0,2
3:01.467,65328,(,0,0,0
3:01.508,65343,p,0,0,0
3:01.575,65367,),0,0,0
3:01.661,65398,(,0,0,1
3:01.711,65416,N,0,0,0
3:01.756,65432,),0,0,1
3:01.936,65497,(,0,0,2
3:02.033,65532,t,0,0,0
3:02.114,65561,),0,0,2
3:02.731,65783,(,0,0,0
3:02.781,65801,p,0,0,0
3:02.842,65823,),0,0,0
3:02.931,65855,(,0,0,1
3:02.975,65871,N,0,0,0
3:03.022,65888,),0,0,1
3:03.200,65952,(,0,0,2
3:03.303,65989,t,0,0,0
3:03.389,66020,),0,0,2
3:03.814,66173,(,0,0,0
3:03.856,66188,p,0,0,0
3:03.911,66208,),0,0,0
3:04.000,66240,(,0,0,1
3:04.044,66256,N,0,0,0
3:04.094,66274,),0,0,1
3:04.261,66334,(,0,0,2
3:04.356,66368,t,0,0,0
3:04.439,66398,),0,0,2
3:04.817,66534,(,0,0,0
3:04.858,66549,p,0,0,0
3:04.925,66573,),0,0,0
3:05.003,66601,(,0,0,1
3:05.058,66621,N,0,0,0
3:05.111,66640,),0,0,1
3:05.269,66697,(,0,0,2
3:05.364,66731,t,0,0,0
3:05.450,66762,),0,0,2
3:05.828,66898,(,0,0,0
3:05.872,66914,p,0,0,0
3:05.939,66938,),0,0,0
3:06.031,66971,(,0,0,1
3:06.083,66990,N,0,0,0
3:06.142,67011,),0,0,1
3:06.303,67069,(,0,0,2
3:06.394,67102,t,0,0,0
3:06.483,67134,),0,0,2
3:06.822,67256,(,0,0,0
3:06.867,67272,p,0,0,0
3:06.928,67294,),0,0,0
3:07.008,67323,(,0,0,1
3:07.069,67345,N,0,0,0
3:07.122,67364,),0,0,1
3:07.283,67422,(,0,0,2
3:07.381,67457,t,0,0,0
3:07.469,67489,),0,0,2
3:07.856,67628,(,0,0,0
3:07.897,67643,p,0,0,0
3:07.961,67666,),0,0,0
3:08.039,67694,(,0,0,1
3:08.100,67716,N,0,0,0
3:08.150,67734,),0,0,1
3:08.331,67799,(,0,0,2
3:08.419,67831,t,0,0,0
3:08.506,67862,),0,0,2
3:09.267,68136,(,0,0,0
3:09.319,68155,p,0,0,0
3:09.375,68175,),0,0,0
3:09.472,68210,(,0,0,1
3:09.522,68228,N,0,0,0
3:09.569,68245,),0,0,1
3:09.739,68306,(,0,0,2
3:09.836,68341,t,0,0,0
3:09.914,68369,),0,0,2
3:10.592,68613,(,0,0,0
3:10.639,68630,p,0,0,0
3:10.700,68652,),0,0,0
3:10.800,68688,(,0,0,1
3:10.844,68704,N,0,0,0
3:10.892,68721,),0,0,1
3:11.089,68792,(,0,0,2
3:11.178,68824,t,0,0,0
3:11.264,68855,),0,0,2
3:11.981,69113,(,0,0,0
3:12.039,69134,p,0,0,0
3:12.100,69156,),0,0,0
3:12.178,69184,(,0,0,1
3:12.236,69205,N,0,0,0
3:12.283,69222,),0,0,1
3:12.450,69282,(,0,0,2
3:12.556,69320,t,0,0,0
3:12.639,69350,),0,0,2
3:13.303,69589,(,0,0,0
3:13.344,69604,p,0,0,0
3:13.397,69623,),0,0,0
3:13.508,69663,(,0,0,1
3:13.553,69679,N,0,0,0
3:13.606,69698,),0,0,1
3:13.786,69763,(,0,0,2
3:13.881,69797,t,0,0,0
3:13.967,69828,),0,0,2
3:14.614,70061,(,0,0,0
3:14.667,70080,p,0,0,0
3:14.725,70101,),0,0,0
3:14.811,70132,(,0,0,1
3:14.864,70151,N,0,0,0
3:14.908,70167,),0,0,1
3:15.089,70232,(,0,0,2
3:15.189,70268,t,0,0,0
3:15.269,70297,),0,0,2
3:15.997,70559,(,0,0,0
3:16.047,70577,p,0,0,0
3:16.106,70598,),0,0,0
3:16.206,70634,(,0,0,1
3:16.247,70649,N,0,0,0
3:16.294,70666,),0,0,1
3:16.464,70727,(,0,0,2
3:16.567,70764,t,0,0,0
3:16.642,70791,),0,0,2
3:17.242,71007,(,0,0,0
3:17.289,71024,p,0,0,0
3:17.339,71042,),0,0,0
3:17.442,71079,(,0,0,1
3:17.483,71094,N,0,0,0
3:17.533,71112,),0,0,1
3:17.700,71172,(,0,0,2
3:17.803,71209,t,0,0,0
3:17.883,71238,),0,0,2
3:18.433,71436,(,0,0,0
3:18.486,71455,p,0,0,0
3:18.547,71477,),0,0,0
3:18.644,71512,(,0,0,1
3:18.692,71529,N,0,0,0
3:18.736,71545,),0,0,1
3:18.914,71609,(,0,0,2
3:19.014,71645,t,0,0,0
3:19.092,71673,),0,0,2
3:19.778,71920,(,0,0,0
3:19.831,71939,p,0,0,0
3:19.892,71961,),0,0,0
3:19.981,71993,(,0,0,1
3:20.025,72009,N,0,0,0
3:20.069,72025,),0,0,1
3:20.244,72088,(,0,0,2
3:20.344,72124,t,0,0,0
3:20.425,72153,),0,0,2
3:21.031,72371,(,0,0,0
3:21.078,72388,p,0,0,0
3:21.131,72407,),0,0,0
3:21.217,72438,(,0,0,1
3:21.283,72462,N,0,0,0
3:21.339,72482,),0,0,1
3:21.508,72543,(,0,0,2
3:21.611,72580,t,0,0,0
3:21.689,72608,),0,0,2
3:22.206,72794,(,0,0,0
3:22.253,72811,p,0,0,0
3:22.311,72832,),0,0,0
3:22.414,72869,(,0,0,1
3:22.458,72885,N,0,0,0
3:22.506,72902,),0,0,1
3:22.686,72967,(,0,0,2
3:22.783,73002,t,0,0,0
3:22.869,73033,),0,0,2
3:23.439,73238,(,0,0,0
3:23.483,73254,p,0,0,0
3:23.547,73277,),0,0,0
3:23.628,73306,(,0,0,1
3:23.689,73328,N,0,0,0
3:23.736,73345,),0,0,1
3:23.919,73411,(,0,0,2
3:24.017,73446,t,0,0,0
3:24.103,73477,),0,0,2
3:24.586,73651,(,0,0,0
3:24.636,73669,p,0,0,0
3:24.700,73692,),0,0,0
3:24.783,73722,(,0,0,1
3:24.864,73751,N,0,0,0
3:24.894,73762,),0,0,1
3:25.058,73821,(,0,0,2
3:25.156,73856,t,0,0,0
3:25.239,73886,),0,0,2
3:25.678,74044,(,0,0,0
3:25.731,74063,p,0,0,0
3:25.786,74083,),0,0,0
3:25.886,74119,(,0,0,1
3:25.928,74134,N,0,0,0
3:25.978,74152,),0,0,1
3:26.153,74215,(,0,0,2
3:26.253,74251,t,0,0,0
3:26.342,74283,),0,0,2
3:26.983,74514,(,0,0,0
3:27.025,74529,p,0,0,0
3:27.083,74550,),0,0,0
3:27.156,74576,(,0,0,1
3:27.217,74598,N,0,0,0
3:27.261,74614,),0,0,1
3:27.439,74678,(,0,0,2
3:27.539,74714,t,0,0,0
3:27.617,74742,),0,0,2
3:28.119,74923,(,0,0,0
3:28.164,74939,p,0,0,0
3:28.222,74960,),0,0,0
3:28.289,74984,(,0,0,1
3:28.381,75017,N,0,0,0
3:28.406,75026,),0,0,1
3:28.578,75088,(,0,0,2
3:28.669,75121,t,0,0,0
3:28.753,75151,),0,0,2
3:29.144,75292,(,0,0,0
3:29.183,75306,p,0,0,0
3:29.247,75329,),0,0,0
3:29.322,75356,(,0,0,1
3:29.411,75388,N,0,0,0
3:29.436,75397,),0,0,1
3:29.600,75456,(,0,0,2
3:29.692,75489,t,0,0,0
3:29.775,75519,),0,0,2
3:30.189,75668,(,0,0,0
3:30.236,75685,p,0,0,0
3:30.300,75708,),0,0,0
3:30.386,75739,(,0,0,1
3:30.469,75769,N,0,0,0
3:30.497,75779,),0,0,1
3:30.664,75839,(,0,0,2
3:30.744,75868,t,0,0,0
3:30.828,75898,),0,0,2
3:31.214,76037,(,0,0,0
3:31.258,76053,p,0,0,0
3:31.319,76075,),0,0,0
3:31.422,76112,(,0,0,1
3:31.494,76138,N,0,0,0
3:31.514,76145,),0,0,1
3:31.692,76209,(,0,0,2
3:31.786,76243,t,0,0,0
3:31.869,76273,),0,0,2
3:32.617,76542,(,0,0,0
3:32.669,76561,p,0,0,0
3:32.728,76582,),0,0,0
3:32.822,76616,(,0,0,1
3:32.869,76633,N,0,0,0
3:32.914,76649,),0,0,1
3:33.086,76711,(,0,0,2
3:33.192,76749,t,0,0,0
3:33.278,76780,),0,0,2
3:33.931,77015,(,0,0,0
3:33.978,77032,p,0,0,0
3:34.036,77053,),0,0,0
3:34.128,77086,(,0,0,1
3:34.219,77119,N,0,0,0
3:34.244,77128,),0,0,1
3:34.422,77192,(,0,0,2
3:34.519,77227,t,0,0,0
3:34.603,77257,),0,0,2
3:35.228,77482,(,0,0,0
3:35.281,77501,p,0,0,0
3:35.339,77522,),0,0,0
3:35.428,77554,(,0,0,1
3:35.517,77586,N,0,0,0
3:35.536,77593,),0,0,1
3:35.717,77658,(,0,0,2
3:35.806,77690,t,0,0,0
3:35.889,77720,),0,0,2
3:36.600,77976,(,0,0,0
3:36.656,77996,p,0,0,0
3:36.717,78018,),0,0,0
3:36.797,78047,(,0,0,1
3:36.894,78082,N,0,0,0
3:36.919,78091,),0,0,1
3:37.097,78155,(,0,0,2
3:37.197,78191,t,0,0,0
3:37.283,78222,),0,0,2
3:37.886,78439,(,0,0,0
3:37.931,78455,p,0,0,0
3:37.986,78475,),0,0,0
3:38.092,78513,(,0,0,1
3:38.164,78539,N,0,0,0
3:38.186,78547,),0,0,1
3:38.367,78612,(,0,0,2
3:38.453,78643,t,0,0,0
3:38.531,78671,),0,0,2
3:39.142,78891,(,0,0,0
3:39.194,78910,p,0,0,0
3:39.253,78931,),0,0,0
3:39.331,78959,(,0,0,1
3:39.425,78993,N,0,0,0
3:39.442,78999,),0,0,1
3:39.622,79064,(,0,0,2
3:39.725,79101,t,0,0,0
3:39.800,79128,),0,0,2
3:40.394,79342,(,0,0,0
3:40.444,79360,p,0,0,0
3:40.500,79380,),0,0,0
3:40.597,79415,(,0,0,1
3:40.664,79439,N,0,0,0
3:40.686,79447,),0,0,1
3:40.856,79508,(,0,0,2
3:40.956,79544,t,0,0,0
3:41.036,79573,),0,0,2
3:41.528,79750,(,0,0,0
3:41.572,79766,p,0,0,0
3:41.625,79785,),0,0,0
3:41.703,79813,(,0,0,1
3:41.800,79848,N,0,0,0
3:41.819,79855,),0,0,1
3:41.994,79918,(,0,0,2
3:42.100,79956,t,0,0,0
3:42.192,79989,),0,0,2
3:42.794,80206,(,0,0,0
3:42.853,80227,p,0,0,0
3:42.911,80248,),0,0,0
3:42.969,80269,(,0,0,1
3:43.075,80307,N,0,0,0
3:43.092,80313,),0,0,1
3:43.267,80376,(,0,0,2
3:43.367,80412,t,0,0,0
3:43.453,80443,),0,0,2
3:43.992,80637,(,0,0,0
3:44.042,80655,p,0,0,0
3:44.097,80675,),0,0,0
3:44.200,80712,(,0,0,1
3:44.269,80737,N,0,0,0
3:44.294,80746,),0,0,1
3:44.478,80812,(,0,0,2
3:44.575,80847,t,0,0,0
3:44.658,80877,),0,0,2
3:45.142,81051,(,0,0,0
3:45.186,81067,p,0,0,0
3:45.239,81086,),0,0,0
3:45.333,81120,(,0,0,1
3:45.408,81147,N,0,0,0
3:45.436,81157,),0,0,1
3:45.606,81218,(,0,0,2
3:45.700,81252,t,0,0,0
3:45.789,81284,),0,0,2
3:46.303,81469,(,0,0,0
3:46.347,81485,p,0,0,0
3:46.411,81508,),0,0,0
3:46.503,81541,(,0,0,1
3:46.572,81566,N,0,0,0
3:46.589,81572,),0,0,1
3:46.758,81633,(,0,0,2
3:46.858,81669,t,0,0,0
3:46.936,81697,),0,0,2
3:47.561,81922,(,0,0,0
3:47.608,81939,p,0,0,0
3:47.669,81961,),0,0,0
3:47.739,81986,(,0,0,1
3:47.831,82019,N,0,0,0
3:47.853,82027,),0,0,1
3:48.025,82089,(,0,0,2
3:48.117,82122,t,0,0,0
3:48.200,82152,),0,0,2
3:48.658,82317,(,0,0,0
3:48.700,82332,p,0,0,0
3:48.758,82353,),0,0,0
3:48.842,82383,(,0,0,1
3:48.931,82415,N,0,0,0
3:48.953,82423,),0,0,1
3:49.122,82484,(,0,0,2
3:49.219,82519,t,0,0,0
3:49.306,82550,),0,0,2
3:49.747,82709,(,0,0,0
3:49.797,82727,p,0,0,0
3:49.864,82751,),0,0,0
3:49.942,82779,(,0,0,1
3:50.036,82813,N,0,0,0
3:50.061,82822,),0,0,1
3:50.233,82884,(,0,0,2
3:50.325,82917,t,0,0,0
3:50.403,82945,),0,0,2
3:50.783,83082,(,0,0,0
3:50.831,83099,p,0,0,0
3:50.897,83123,),0,0,0
3:50.975,83151,(,0,0,1
3:51.056,83180,N,0,0,0
3:51.083,83190,),0,0,1
3:51.247,83249,(,0,0,2
3:51.342,83283,t,0,0,0
3:51.425,83313,),0,0,2
3:51.775,83439,(,0,0,0
3:51.817,83454,p,0,0,0
3:51.872,83474,),0,0,0
3:51.972,83510,(,0,0,1
3:52.044,83536,N,0,0,0
3:52.064,83543,),0,0,1
3:52.233,83604,(,0,0,2
3:52.331,83639,t,0,0,0
3:52.411,83668,),0,0,2
3:52.817,83814,(,0,0,0
3:52.864,83831,p,0,0,0
3:52.928,83854,),0,0,0
3:53.011,83884,(,0,0,1
3:53.089,83912,N,0,0,0
3:53.108,83919,),0,0,1
3:53.275,83979,(,0,0,2
3:53.369,84013,t,0,0,0
3:53.461,84046,),0,0,2
3:53.817,84174,(,0,0,0
3:53.864,84191,p,0,0,0
3:53.925,84213,),0,0,0
3:54.031,84251,(,0,0,1
3:54.103,84277,N,0,0,0
3:54.128,84286,),0,0,1
3:54.286,84343,(,0,0,2
3:54.378,84376,t,0,0,0
3:54.458,84405,),0,0,2
3:54.894,84562,(,0,0,0
3:54.939,84578,p,0,0,0
3:55.003,84601,),0,0,0
3:55.081,84629,(,0,0,1
3:55.178,84664,N,0,0,0
3:55.197,84671,),0,0,1
3:55.369,84733,(,0,0,2
3:55.461,84766,t,0,0,0
3:55.542,84795,),0,0,2
3:56.267,85056,(,0,0,0
3:56.306,85070,p,0,0,0
3:56.378,85096,),0,0,0
3:56.469,85129,(,0,0,1
3:56.542,85155,N,0,0,0
3:56.561,85162,),0,0,1
3:56.739,85226,(,0,0,2
3:56.836,85261,t,0,0,0
3:56.917,85290,),0,0,2
3:57.564,85523,(,0,0,0
3:57.606,85538,p,0,0,0
3:57.669,85561,),0,0,0
3:57.747,85589,(,0,0,1
3:57.842,85623,N,0,0,0
3:57.867,85632,),0,0,1
3:58.042,85695,(,0,0,2
3:58.142,85731,t,0,0,0
3:58.228,85762,),0,0,2
3:58.933,86016,(,0,0,0
3:58.981,86033,p,0,0,0
3:59.042,86055,),0,0,0
3:59.114,86081,(,0,0,1
3:59.208,86115,N,0,0,0
3:59.225,86121,),0,0,1
3:59.403,86185,(,0,0,2
3:59.503,86221,t,0,0,0
3:59.578,86248,),0,0,2
4:00.267,86496,(,0,0,0
4:00.322,86516,p,0,0,0
4:00.378,86536,),0,0,0
4:00.481,86573,(,0,0,1
4:00.556,86600,N,0,0,0
4:00.583,86610,),0,0,1
4:00.753,86671,(,0,0,2
4:00.853,86707,t,0,0,0
4:00.939,86738,),0,0,2
4:01.483,86934,(,0,0,0
4:01.542,86955,p,0,0,0
4:01.592,86973,),0,0,0
4:01.683,87006,(,0,0,1
4:01.764,87035,N,0,0,0
4:01.792,87045,),0,0,1
4:01.956,87104,(,0,0,2
4:02.056,87140,t,0,0,0
4:02.136,87169,),0,0,2
4:02.675,87363,(,0,0,0
4:02.719,87379,p,0,0,0
4:02.789,87404,),0,0,0
4:02.881,87437,(,0,0,1
4:02.956,87464,N,0,0,0
4:02.975,87471,),0,0,1
4:03.153,87535,(,0,0,2
4:03.250,87570,t,0,0,0
4:03.339,87602,),0,0,2
4:03.981,87833,(,0,0,0
4:04.028,87850,p,0,0,0
4:04.086,87871,),0,0,0
4:04.153,87895,(,0,0,1
4:04.250,87930,N,0,0,0
4:04.269,87937,),0,0,1
4:04.444,88000,(,0,0,2
4:04.539,88034,t,0,0,0
4:04.619,88063,),0,0,2
4:05.161,88258,(,0,0,0
4:05.208,88275,p,0,0,0
4:05.261,88294,),0,0,0
4:05.356,88328,(,0,0,1
4:05.433,88356,N,0,0,0
4:05.464,88367,),0,0,1
4:05.633,88428,(,0,0,2
4:05.736,88465,t,0,0,0
4:05.814,88493,),0,0,2
4:06.356,88688,(,0,0,0
4:06.406,88706,p,0,0,0
4:06.469,88729,),0,0,0
4:06.556,88760,(,0,0,1
4:06.633,88788,N,0,0,0
4:06.653,88795,),0,0,1
4:06.825,88857,(,0,0,2
4:06.922,88892,t,0,0,0
4:07.006,88922,),0,0,2
4:07.611,89140,(,0,0,0
4:07.653,89155,p,0,0,0
4:07.714,89177,),0,0,0
4:07.789,89204,(,0,0,1
4:07.883,89238,N,0,0,0
4:07.903,89245,),0,0,1
4:08.078,89308,(,0,0,2
4:08.189,89348,t,0,0,0
4:08.272,89378,),0,0,2
4:08.792,89565,(,0,0,0
4:08.836,89581,p,0,0,0
4:08.894,89602,),0,0,0
4:08.992,89637,(,0,0,1
4:09.064,89663,N,0,0,0
4:09.089,89672,),0,0,1
4:09.250,89730,(,0,0,2
4:09.356,89768,t,0,0,0
4:09.433,89796,),0,0,2
4:09.950,89982,(,0,0,0
4:09.994,89998,p,0,0,0
4:10.056,90020,),0,0,0
4:10.147,90053,(,0,0,1
4:10.219,90079,N,0,0,0
4:10.236,90085,),0,0,1
4:10.406,90146,(,0,0,2
4:10.508,90183,t,0,0,0
4:10.592,90213,),0,0,2
4:11.264,90455,(,0,0,0
4:11.311,90472,p,0,0,0
4:11.372,90494,),0,0,0
4:11.458,90525,(,0,0,1
4:11.536,90553,N,0,0,0
4:11.553,90559,),0,0,1
4:11.731,90623,(,0,0,2
4:11.825,90657,t,0,0,0
4:11.914,90689,),0,0,2
4:12.461,90886,(,0,0,0
4:12.511,90904,p,0,0,0
4:12.569,90925,),0,0,0
4:12.658,90957,(,0,0,1
4:12.736,90985,N,0,0,0
4:12.767,90996,),0,0,1
4:12.931,91055,(,0,0,2
4:13.031,91091,t,0,0,0
4:13.117,91122,),0,0,2
4:13.594,91294,(,0,0,0
4:13.642,91311,p,0,0,0
4:13.703,91333,),0,0,0
4:13.792,91365,(,0,0,1
4:13.869,91393,N,0,0,0
4:13.894,91402,),0,0,1
4:14.061,91462,(,0,0,2
4:14.156,91496,t,0,0,0
4:14.231,91523,),0,0,2
4:14.828,91738,(,0,0,0
4:14.878,91756,p,0,0,0
4:14.947,91781,),0,0,0
4:15.028,91810,(,0,0,1
4:15.103,91837,N,0,0,0
4:15.119,91843,),0,0,1
4:15.297,91907,(,0,0,2
4:15.389,91940,t,0,0,0
4:15.467,91968,),0,0,2
4:16.097,92195,(,0,0,0
4:16.147,92213,p,0,0,0
4:16.211,92236,),0,0,0
4:16.294,92266,(,0,0,1
4:16.375,92295,N,0,0,0
4:16.403,92305,),0,0,1
4:16.572,92366,(,0,0,2
4:16.661,92398,t,0,0,0
4:16.736,92425,),0,0,2
4:17.253,92611,(,0,0,0
4:17.300,92628,p,0,0,0
4:17.356,92648,),0,0,0
4:17.456,92684,(,0,0,1
4:17.528,92710,N,0,0,0
4:17.550,92718,),0,0,1
4:17.725,92781,(,0,0,2
4:17.814,92813,t,0,0,0
4:17.892,92841,),0,0,2
4:18.625,93105,(,0,0,0
4:18.667,93120,p,0,0,0
4:18.731,93143,),0,0,0
4:18.822,93176,(,0,0,1
4:18.894,93202,N,0,0,0
4:18.914,93209,),0,0,1
4:19.075,93267,(,0,0,2
4:19.181,93305,t,0,0,0
4:19.264,93335,),0,0,2
4:19.836,93541,(,0,0,0
4:19.881,93557,p,0,0,0
4:19.939,93578,),0,0,0
4:20.000,93600,(,0,0,1
4:20.103,93637,N,0,0,0
4:20.128,93646,),0,0,1
4:20.294,93706,(,0,0,2
4:20.394,93742,t,0,0,0
4:20.481,93773,),0,0,2
4:20.958,93945,(,0,0,0
4:21.006,93962,p,0,0,0
4:21.064,93983,),0,0,0
4:21.164,94019,(,0,0,1
4:21.244,94048,N,0,0,0
4:21.275,94059,),0,0,1
4:21.447,94121,(,0,0,2
4:21.536,94153,t,0,0,0
4:21.628,94186,),0,0,2
4:22.228,94402,(,0,0,0
4:22.269,94417,p,0,0,0
4:22.336,94441,),0,0,0
4:22.431,94475,(,0,0,1
4:22.500,94500,N,0,0,0
4:22.517,94506,),0,0,1
4:22.697,94571,(,0,0,2
4:22.789,94604,t,0,0,0
4:22.872,94634,),0,0,2
4:23.467,94848,(,0,0,0
4:23.514,94865,p,0,0,0
4:23.575,94887,),0,0,0
4:23.667,94920,(,0,0,1
4:23.747,94949,N,0,0,0
4:23.775,94959,),0,0,1
4:23.939,95018,(,0,0,2
4:24.044,95056,t,0,0,0
4:24.131,95087,),0,0,2
4:24.597,95255,(,0,0,0
4:24.647,95273,p,0,0,0
4:24.703,95293,),0,0,0
4:24.797,95327,(,0,0,1
4:24.881,95357,N,0,0,0
4:24.908,95367,),0,0,1
4:25.075,95427,(,0,0,2
4:25.175,95463,t,0,0,0
4:25.258,95493,),0,0,2
4:25.864,95711,(,0,0,0
4:25.906,95726,p,0,0,0
4:25.969,95749,),0,0,0
4:26.039,95774,(,0,0,1
4:26.133,95808,N,0,0,0
4:26.150,95814,),0,0,1
4:26.333,95880,(,0,0,2
4:26.431,95915,t,0,0,0
4:26.514,95945,),0,0,2
4:27.097,96155,(,0,0,0
4:27.144,96172,p,0,0,0
4:27.203,96193,),0,0,0
4:27.300,96228,(,0,0,1
4:27.369,96253,N,0,0,0
4:27.392,96261,),0,0,1
4:27.567,96324,(,0,0,2
4:27.664,96359,t,0,0,0
4:27.750,96390,),0,0,2
4:28.231,96563,(,0,0,0
4:28.278,96580,p,0,0,0
4:28.339,96602,),0,0,0
4:28.408,96627,(,0,0,1
4:28.506,96662,N,0,0,0
4:28.528,96670,),0,0,1
4:28.692,96729,(,0,0,2
4:28.792,96765,t,0,0,0
4:28.872,96794,),0,0,2
4:29.494,97018,(,0,0,0
4:29.536,97033,p,0,0,0
4:29.606,97058,),0,0,0
4:29.692,97089,(,0,0,1
4:29.761,97114,N,0,0,0
4:29.781,97121,),0,0,1
4:29.964,97187,(,0,0,2
4:30.056,97220,t,0,0,0
4:30.139,97250,),0,0,2
4:30.606,97418,(,0,0,0
4:30.650,97434,p,0,0,0
4:30.714,97457,),0,0,0
4:30.806,97490,(,0,0,1
4:30.875,97515,N,0,0,0
4:30.897,97523,),0,0,1
4:31.064,97583,(,0,0,2
4:31.158,97617,t,0,0,0
4:31.239,97646,),0,0,2
4:31.639,97790,(,0,0,0
4:31.686,97807,p,0,0,0
4:31.750,97830,),0,0,0
4:31.842,97863,(,0,0,1
4:31.919,97891,N,0,0,0
4:31.944,97900,),0,0,1
4:32.103,97957,(,0,0,2
4:32.200,97992,t,0,0,0
4:32.286,98023,),0,0,2
4:32.669,98161,(,0,0,0
4:32.719,98179,p,0,0,0
4:32.778,98200,),0,0,0
4:32.875,98235,(,0,0,1
4:32.947,98261,N,0,0,0
4:32.969,98269,),0,0,1
4:33.144,98332,(,0,0,2
4:33.239,98366,t,0,0,0
4:33.317,98394,),0,0,2
4:33.667,98520,(,0,0,0
4:33.708,98535,p,0,0,0
4:33.764,98555,),0,0,0
4:33.844,98584,(,0,0,1
4:33.933,98616,N,0,0,0
4:33.956,98624,),0,0,1
4:34.122,98684,(,0,0,2
4:34.225,98721,t,0,0,0
4:34.311,98752,),0,0,2
4:34.672,98882,(,0,0,0
4:34.719,98899,p,0,0,0
4:34.778,98920,),0,0,0
4:34.847,98945,(,0,0,1
4:34.942,98979,N,0,0,0
4:34.961,98986,),0,0,1
4:35.136,99049,(,0,0,2
4:35.231,99083,t,0,0,0
4:35.311,99112,),0,0,2
4:35.867,99312,(,0,0,1
4:35.900,99324,N,0,0,0
4:35.956,99344,),0,0,1
4:36.108,99399,(,0,0,2
4:36.211,99436,t,0,0,0
4:36.292,99465,),0,0,2
4:36.644,99592,(,0,0,0
4:36.694,99610,p,0,0,0
4:36.756,99632,),0,0,0
4:36.869,99673,(,0,0,1
4:36.903,99685,N,0,0,0
4:36.956,99704,),0,0,1
4:37.128,99766,(,0,0,2
4:37.222,99800,t,0,0,0
4:37.306,99830,),0,0,2
4:37.658,99957,(,0,0,0
4:37.703,99973,p,0,0,0
4:37.772,99998,),0,0,0
4:37.872   100034,(,0,0,1
4:37.906   100046,N,0,0,0
4:37.958   100065,),0,0,1
4:38.122   100124,(,0,0,2
4:38.214   100157,t,0,0,0
4:38.292   100185,),0,0,2
4:38.669   100321,(,0,0,0
4:38.714   100337,p,0,0,0
4:38.775   100359,),0,0,0
4:38.881   100397,(,0,0,1
4:38.914   100409,N,0,0,0
4:38.964   100427,),0,0,1
4:39.122   100484,(,0,0,2
4:39.233   100524,t,0,0,0
4:39.311   100552,),0,0,2
4:40.069   100825,(,0,0,0
4:40.117   100842,p,0,0,0
4:40.178   100864,),0,0,0
4:40.283   100902,(,0,0,1
4:40.319   100915,N,0,0,0
4:40.364   100931,),0,0,1
4:40.544   100996,(,0,0,2
4:40.633   101028,t,0,0,0
4:40.719   101059,),0,0,2
4:41.350   101286,(,0,0,0
4:41.397   101303,p,0,0,0
4:41.444   101320,),0,0,0
4:41.556   101360,(,0,0,1
4:41.592   101373,N,0,0,0
4:41.644   101392,),0,0,1
4:41.800   101448,(,0,0,2
4:41.925   101493,t,0,0,5
4:42.047   101537,t,0,0,5
4:42.106   101558,),0,0,2
4:42.644   101752,(,0,0,0
4:42.694   101770,p,0,0,0
4:42.753   101791,),0,0,0
4:42.858   101829,(,0,0,1
4:42.894   101842,N,0,0,0
4:42.939   101858,),0,0,1
4:43.108   101919,(,0,0,2
4:43.208   101955,t,0,0,0
4:43.289   101984,),0,0,2
4:44.014   102245,(,0,0,0
4:44.069   102265,p,0,0,0
4:44.119   102283,),0,0,0
4:44.239   102326,(,0,0,1
4:44.272   102338,N,0,0,0
4:44.331   102359,),0,0,1
4:44.497   102419,(,0,0,2
4:44.603   102457,t,0,0,0
4:44.689   102488,),0,0,2
4:45.297   102707,(,0,0,0
4:45.336   102721,p,0,0,0
4:45.383   102738,),0,0,0
4:45.497   102779,(,0,0,1
4:45.531   102791,N,0,0,0
4:45.586   102811,),0,0,1
4:45.750   102870,(,0,0,2
4:45.856   102908,t,0,0,5
4:45.969   102949,t,0,0,5
4:46.050   102978,),0,0,2
4:46.606   103178,(,0,0,0
4:46.656   103196,p,0,0,0
4:46.711   103216,),0,0,0
4:46.822   103256,(,0,0,1
4:46.858   103269,N,0,0,0
4:46.906   103286,),0,0,1
4:47.083   103350,(,0,0,2
4:47.197   103391,t,0,0,0
4:47.278   103420,),0,0,2
4:47.992   103677,(,0,0,0
4:48.042   103695,p,0,0,0
4:48.092   103713,),0,0,0
4:48.208   103755,(,0,0,1
4:48.242   103767,N,0,0,0
4:48.297   103787,),0,0,1
4:48.464   103847,(,0,0,2
4:48.569   103885,t,0,0,0
4:48.647   103913,),0,0,2
4:49.231   104123,(,0,0,0
4:49.275   104139,p,0,0,0
4:49.325   104157,),0,0,0
4:49.442   104199,(,0,0,1
4:49.475   104211,N,0,0,0
4:49.533   104232,),0,0,1
4:49.689   104288,(,0,0,2
4:49.806   104330,t,0,0,0
4:49.889   104360,),0,0,2
4:50.469   104569,(,0,0,0
4:50.525   104589,p,0,0,0
4:50.586   104611,),0,0,0
4:50.692   104649,(,0,0,1
4:50.725   104661,N,0,0,0
4:50.769   104677,),0,0,1
4:50.947   104741,(,0,0,2
4:51.044   104776,t,0,0,0
4:51.128   104806,),0,0,2
4:51.747   105029,(,0,0,0
4:51.797   105047,p,0,0,0
4:51.858   105069,),0,0,0
4:51.961   105106,(,0,0,1
4:51.997   105119,N,0,0,0
4:52.044   105136,),0,0,1
4:52.222   105200,(,0,0,2
4:52.322   105236,t,0,0,0
4:52.411   105268,),0,0,2
4:52.922   105452,(,0,0,0
4:52.967   105468,p,0,0,0
4:53.028   105490,),0,0,0
4:53.136   105529,(,0,0,1
4:53.169   105541,N,0,0,0
4:53.217   105558,),0,0,1
4:53.386   105619,(,0,0,2
4:53.489   105656,t,0,0,0
4:53.569   105685,),0,0,2
4:54.161   105898,(,0,0,0
4:54.208   105915,p,0,0,0
4:54.275   105939,),0,0,0
4:54.378   105976,(,0,0,1
4:54.411   105988,N,0,0,0
4:54.456   106004,),0,0,1
4:54.642   106071,(,0,0,2
4:54.744   106108,t,0,0,0
4:54.825   106137,),0,0,2
4:55.492   106377,(,0,0,0
4:55.542   106395,p,0,0,0
4:55.608   106419,),0,0,0
4:55.706   106454,(,0,0,1
4:55.742   106467,N,0,0,0
4:55.797   106487,),0,0,1
4:55.961   106546,(,0,0,2
4:56.064   106583,t,0,0,0
4:56.147   106613,),0,0,2
4:56.725   106821,(,0,0,0
4:56.772   106838,p,0,0,0
4:56.825   106857,),0,0,0
4:56.928   106894,(,0,0,1
4:56.961   106906,N,0,0,0
4:57.014   106925,),0,0,1
4:57.183   106986,(,0,0,2
4:57.292   107025,t,0,0,0
4:57.367   107052,),0,0,2
4:57.972   107270,(,0,0,0
4:58.017   107286,p,0,0,0
4:58.086   107311,),0,0,0
4:58.189   107348,(,0,0,1
4:58.225   107361,N,0,0,0
4:58.272   107378,),0,0,1
4:58.442   107439,(,0,0,2
4:58.547   107477,t,0,0,0
4:58.631   107507,),0,0,2
4:59.308   107751,(,0,0,0
4:59.356   107768,p,0,0,0
4:59.414   107789,),0,0,0
4:59.522   107828,(,0,0,1
4:59.558   107841,N,0,0,0
4:59.611   107860,),0,0,1
4:59.781   107921,(,0,0,2
4:59.886   107959,t,0,0,0
4:59.967   107988,),0,0,2
5:00.550   108198,(,0,0,0
5:00.592   108213,p,0,0,0
5:00.644   108232,),0,0,0
5:00.761   108274,(,0,0,1
5:00.792   108285,N,0,0,0
5:00.844   108304,),0,0,1
5:01.019   108367,(,0,0,2
5:01.114   108401,t,0,0,0
5:01.194   108430,),0,0,2
5:01.817   108654,(,0,0,0
5:01.858   108669,p,0,0,0
5:01.925   108693,),0,0,0
5:02.025   108729,(,0,0,1
5:02.058   108741,N,0,0,0
5:02.106   108758,),0,0,1
5:02.289   108824,(,0,0,2
5:02.386   108859,t,0,0,0
5:02.469   108889,),0,0,2
5:03.169   109141,(,0,0,0
5:03.222   109160,p,0,0,0
5:03.278   109180,),0,0,0
5:03.386   109219,(,0,0,1
5:03.419   109231,N,0,0,0
5:03.478   109252,),0,0,1
5:03.639   109310,(,0,0,2
5:03.742   109347,t,0,0,0
5:03.828   109378,),0,0,2
5:04.372   109574,(,0,0,0
5:04.419   109591,p,0,0,0
5:04.469   109609,),0,0,0
5:04.575   109647,(,0,0,1
5:04.611   109660,N,0,0,0
5:04.656   109676,),0,0,1
5:04.825   109737,(,0,0,2
5:04.931   109775,t,0,0,0
5:05.011   109804,),0,0,2
5:05.661   110038,(,0,0,0
5:05.717   110058,p,0,0,0
5:05.772   110078,),0,0,0
5:05.881   110117,(,0,0,1
5:05.917   110130,N,0,0,0
5:05.961   110146,),0,0,1
5:06.128   110206,(,0,0,2
5:06.233   110244,t,0,0,0
5:06.322   110276,),0,0,2
5:06.953   110503,(,0,0,0
5:07.003   110521,p,0,0,0
5:07.056   110540,),0,0,0
5:07.164   110579,(,0,0,1
5:07.197   110591,N,0,0,0
5:07.253   110611,),0,0,1
5:07.411   110668,(,0,0,2
5:07.525   110709,t,0,0,0
5:07.608   110739,),0,0,2
5:08.133   110928,(,0,0,0
5:08.172   110942,p,0,0,0
5:08.225   110961,),0,0,0
5:08.336   111001,(,0,0,1
5:08.372   111014,N,0,0,0
5:08.422   111032,),0,0,1
5:08.578   111088,(,0,0,2
5:08.689   111128,t,0,0,0
5:08.772   111158,),0,0,2
5:09.375   111375,(,0,0,0
5:09.419   111391,p,0,0,0
5:09.483   111414,),0,0,0
5:09.583   111450,(,0,0,1
5:09.617   111462,N,0,0,0
5:09.661   111478,),0,0,1
5:09.839   111542,(,0,0,2
5:09.942   111579,t,0,0,0
5:10.025   111609,),0,0,2
5:10.561   111802,(,0,0,0
5:10.608   111819,p,0,0,0
5:10.669   111841,),0,0,0
5:10.764   111875,(,0,0,1
5:10.797   111887,N,0,0,0
5:10.853   111907,),0,0,1
5:11.028   111970,(,0,0,2
5:11.117   112002,t,0,0,0
5:11.197   112031,),0,0,2
5:11.569   112165,(,0,0,0
5:11.617   112182,p,0,0,0
5:11.669   112201,),0,0,0
5:11.775   112239,(,0,0,1
5:11.808   112251,N,0,0,0
5:11.861   112270,),0,0,1
5:12.025   112329,(,0,0,2
5:12.111   112360,t,0,0,0
5:12.192   112389,),0,0,2
5:12.558   112521,(,0,0,0
5:12.603   112537,p,0,0,0
5:12.667   112560,),0,0,0
5:12.772   112598,(,0,0,1
5:12.808   112611,N,0,0,0
5:12.858   112629,),0,0,1
5:13.039   112694,(,0,0,2
5:13.131   112727,t,0,0,0
5:13.208   112755,),0,0,2
5:13.581   112889,(,0,0,0
5:13.625   112905,p,0,0,0
5:13.692   112929,),0,0,0
5:13.794   112966,(,0,0,1
5:13.828   112978,N,0,0,0
5:13.886   112999,),0,0,1
5:14.050   113058,(,0,0,2
5:14.142   113091,t,0,0,0
5:14.219   113119,),0,0,2
5:14.575   113247,(,0,0,0
5:14.619   113263,p,0,0,0
5:14.675   113283,),0,0,0
5:14.786   113323,(,0,0,1
5:14.819   113335,N,0,0,0
5:14.869   113353,),0,0,1
5:15.047   113417,(,0,0,2
5:15.139   113450,t,0,0,0
5:15.219   113479,),0,0,2
5:15.719   113659,(,0,0,0
5:15.764   113675,p,0,0,0
5:15.833   113700,),0,0,0
5:15.942   113739,(,0,0,1
5:15.978   113752,N,0,0,0
5:16.019   113767,),0,0,1
5:16.189   113828,(,0,0,2
5:16.286   113863,t,0,0,0
5:16.364   113891,),0,0,2
5:17.197   114191,(,0,0,0
5:17.242   114207,p,0,0,0
5:17.300   114228,),0,0,0
5:17.406   114266,(,0,0,1
5:17.439   114278,N,0,0,0
5:17.489   114296,),0,0,1
5:17.661   114358,(,0,0,2
5:17.767   114396,t,0,0,0
5:17.844   114424,),0,0,2
5:18.528   114670,(,0,0,0
5:18.581   114689,p,0,0,0
5:18.636   114709,),0,0,0
5:18.744   114748,(,0,0,1
5:18.778   114760,N,0,0,0
5:18.828   114778,),0,0,1
5:18.992   114837,(,0,0,2
5:19.092   114873,t,0,0,0
5:19.172   114902,),0,0,2
5:19.872   115154,(,0,0,0
5:19.922   115172,p,0,0,0
5:19.981   115193,),0,0,0
5:20.078   115228,(,0,0,1
5:20.111   115240,N,0,0,0
5:20.161   115258,),0,0,1
5:20.333   115320,(,0,0,2
5:20.436   115357,t,0,0,0
5:20.517   115386,),0,0,2
5:21.142   115611,(,0,0,0
5:21.189   115628,p,0,0,0
5:21.244   115648,),0,0,0
5:21.350   115686,(,0,0,1
5:21.383   115698,N,0,0,0
5:21.433   115716,),0,0,1
5:21.597   115775,(,0,0,2
5:21.703   115813,t,0,0,0
5:21.783   115842,),0,0,2
5:22.392   116061,(,0,0,0
5:22.450   116082,p,0,0,0
5:22.506   116102,),0,0,0
5:22.617   116142,(,0,0,1
5:22.653   116155,N,0,0,0
5:22.700   116172,),0,0,1
5:22.872   116234,(,0,0,2
5:22.978   116272,t,0,0,0
5:23.061   116302,),0,0,2
5:23.744   116548,(,0,0,0
5:23.789   116564,p,0,0,0
5:23.847   116585,),0,0,0
5:23.950   116622,(,0,0,1
5:23.986   116635,N,0,0,0
5:24.036   116653,),0,0,1
5:24.211   116716,(,0,0,2
5:24.306   116750,t,0,0,0
5:24.386   116779,),0,0,2
5:24.975   116991,(,0,0,0
5:25.019   117007,p,0,0,0
5:25.072   117026,),0,0,0
5:25.181   117065,(,0,0,1
5:25.214   117077,N,0,0,0
5:25.269   117097,),0,0,1
5:25.428   117154,(,0,0,2
5:25.542   117195,t,0,0,0
5:25.628   117226,),0,0,2
5:26.189   117428,(,0,0,0
5:26.242   117447,p,0,0,0
5:26.306   117470,),0,0,0
5:26.408   117507,(,0,0,1
5:26.442   117519,N,0,0,0
5:26.486   117535,),0,0,1
5:26.672   117602,(,0,0,2
5:26.761   117634,t,0,0,0
5:26.842   117663,),0,0,2
5:27.467   117888,(,0,0,0
5:27.514   117905,p,0,0,0
5:27.575   117927,),0,0,0
5:27.672   117962,(,0,0,1
5:27.706   117974,N,0,0,0
5:27.761   117994,),0,0,1
5:27.917   118050,(,0,0,2
5:28.017   118086,t,0,0,0
5:28.097   118115,),0,0,2
5:28.622   118304,(,0,0,0
5:28.667   118320,p,0,0,0
5:28.722   118340,),0,0,0
5:28.828   118378,(,0,0,1
5:28.864   118391,N,0,0,0
5:28.917   118410,),0,0,1
5:29.075   118467,(,0,0,2
5:29.181   118505,t,0,0,0
5:29.267   118536,),0,0,2
5:29.889   118760,(,0,0,0
5:29.936   118777,p,0,0,0
5:30.000   118800,),0,0,0
5:30.106   118838,(,0,0,1
5:30.139   118850,N,0,0,0
5:30.183   118866,),0,0,1
5:30.356   118928,(,0,0,2
5:30.461   118966,t,0,0,0
5:30.544   118996,),0,0,2
5:31.194   119230,(,0,0,0
5:31.244   119248,p,0,0,0
5:31.306   119270,),0,0,0
5:31.414   119309,(,0,0,1
5:31.444   119320,N,0,0,0
5:31.494   119338,),0,0,1
5:31.661   119398,(,0,0,2
5:31.764   119435,t,0,0,0
5:31.853   119467,),0,0,2
5:32.378   119656,(,0,0,0
5:32.422   119672,p,0,0,0
5:32.478   119692,),0,0,0
5:32.589   119732,(,0,0,1
5:32.622   119744,N,0,0,0
5:32.672   119762,),0,0,1
5:32.836   119821,(,0,0,2
5:32.936   119857,t,0,0,0
5:33.019   119887,),0,0,2
5:33.653   120115,(,0,0,0
5:33.697   120131,p,0,0,0
5:33.761   120154,),0,0,0
5:33.869   120193,(,0,0,1
5:33.903   120205,N,0,0,0
5:33.947   120221,),0,0,1
5:34.128   120286,(,0,0,2
5:34.228   120322,t,0,0,0
5:34.314   120353,),0,0,2
5:34.928   120574,(,0,0,0
5:34.975   120591,p,0,0,0
5:35.033   120612,),0,0,0
5:35.139   120650,(,0,0,1
5:35.172   120662,N,0,0,0
5:35.228   120682,),0,0,1
5:35.403   120745,(,0,0,2
5:35.489   120776,t,0,0,0
5:35.564   120803,),0,0,2
5:36.089   120992,(,0,0,0
5:36.136   121009,p,0,0,0
5:36.194   121030,),0,0,0
5:36.311   121072,(,0,0,1
5:36.344   121084,N,0,0,0
5:36.389   121100,),0,0,1
5:36.564   121163,(,0,0,2
5:36.667   121200,t,0,0,0
5:36.750   121230,),0,0,2
5:37.414   121469,(,0,0,0
5:37.453   121483,p,0,0,0
5:37.519   121507,),0,0,0
5:37.622   121544,(,0,0,1
5:37.656   121556,N,0,0,0
5:37.706   121574,),0,0,1
5:37.872   121634,(,0,0,2
5:37.972   121670,t,0,0,0
5:38.058   121701,),0,0,2
5:38.694   121930,(,0,0,0
5:38.744   121948,p,0,0,0
5:38.797   121967,),0,0,0
5:38.906   122006,(,0,0,1
5:38.942   122019,N,0,0,0
5:38.997   122039,),0,0,1
5:39.164   122099,(,0,0,2
5:39.267   122136,t,0,0,0
5:39.356   122168,),0,0,2
5:39.861   122350,(,0,0,0
5:39.908   122367,p,0,0,0
5:39.967   122388,),0,0,0
5:40.075   122427,(,0,0,1
5:40.108   122439,N,0,0,0
5:40.156   122456,),0,0,1
5:40.328   122518,(,0,0,2
5:40.419   122551,t,0,0,0
5:40.503   122581,),0,0,2
5:41.050   122778,(,0,0,0
5:41.097   122795,p,0,0,0
5:41.164   122819,),0,0,0
5:41.272   122858,(,0,0,1
5:41.308   122871,N,0,0,0
5:41.356   122888,),0,0,1
5:41.533   122952,(,0,0,2
5:41.639   122990,t,0,0,0
5:41.725   123021,),0,0,2
5:42.150   123174,(,0,0,0
5:42.189   123188,p,0,0,0
5:42.250   123210,),0,0,0
5:42.356   123248,(,0,0,1
5:42.389   123260,N,0,0,0
5:42.444   123280,),0,0,1
5:42.611   123340,(,0,0,2
5:42.708   123375,t,0,0,0
5:42.797   123407,),0,0,2
5:43.142   123531,(,0,0,0
5:43.186   123547,p,0,0,0
5:43.253   123571,),0,0,0
5:43.347   123605,(,0,0,1
5:43.381   123617,N,0,0,0
5:43.428   123634,),0,0,1
5:43.594   123694,(,0,0,2
5:43.686   123727,t,0,0,0
5:43.772   123758,),0,0,2
5:44.158   123897,(,0,0,0
5:44.206   123914,p,0,0,0
5:44.269   123937,),0,0,0
5:44.372   123974,(,0,0,1
5:44.408   123987,N,0,0,0
5:44.456   124004,),0,0,1
5:44.622   124064,(,0,0,2
5:44.714   124097,t,0,0,0
5:44.803   124129,),0,0,2
5:45.186   124267,(,0,0,0
5:45.231   124283,p,0,0,0
5:45.292   124305,),0,0,0
5:45.397   124343,(,0,0,1
5:45.431   124355,N,0,0,0
5:45.481   124373,),0,0,1
5:45.650   124434,(,0,0,2
5:45.744   124468,t,0,0,0
5:45.828   124498,),0,0,2
5:46.242   124647,(,0,0,0
5:46.292   124665,p,0,0,0
5:46.358   124689,),0,0,0
5:46.472   124730,(,0,0,1
5:46.506   124742,N,0,0,0
5:46.553   124759,),0,0,1
5:46.739   124826,(,0,0,2
5:46.831   124859,t,0,0,0
5:46.919   124891,),0,0,2
5:47.758   125193,(,0,0,0
5:47.814   125213,p,0,0,0
5:47.869   125233,),0,0,0
5:47.972   125270,(,0,0,1
5:48.011   125284,N,0,0,0
5:48.056   125300,),0,0,1
5:48.225   125361,(,0,0,2
5:48.328   125398,t,0,0,0
5:48.414   125429,),0,0,2
5:49.117   125682,(,0,0,0
5:49.167   125700,p,0,0,0
5:49.217   125718,),0,0,0
5:49.339   125762,(,0,0,1
5:49.375   125775,N,0,0,0
5:49.425   125793,),0,0,1
5:49.592   125853,(,0,0,2
5:49.703   125893,t,0,0,0
5:49.778   125920,),0,0,2
5:50.464   126167,(,0,0,0
5:50.511   126184,p,0,0,0
5:50.572   126206,),0,0,0
5:50.681   126245,(,0,0,1
5:50.717   126258,N,0,0,0
5:50.761   126274,),0,0,1
5:50.942   126339,(,0,0,2
5:51.033   126372,t,0,0,0
5:51.108   126399,),0,0,2
5:51.828   126658,(,0,0,0
5:51.883   126678,p,0,0,0
5:51.942   126699,),0,0,0
5:52.050   126738,(,0,0,1
5:52.083   126750,N,0,0,0
5:52.133   126768,),0,0,1
5:52.289   126824,(,0,0,2
5:52.397   126863,t,0,0,0
5:52.481   126893,),0,0,2
5:53.075   127107,(,0,0,0
5:53.117   127122,p,0,0,0
5:53.167   127140,),0,0,0
5:53.275   127179,(,0,0,1
5:53.311   127192,N,0,0,0
5:53.364   127211,),0,0,1
5:53.531   127271,(,0,0,2
5:53.633   127308,t,0,0,0
5:53.717   127338,),0,0,2
5:54.397   127583,(,0,0,0
5:54.453   127603,p,0,0,0
5:54.514   127625,),0,0,0
5:54.622   127664,(,0,0,1
5:54.656   127676,N,0,0,0
5:54.700   127692,),0,0,1
5:54.875   127755,(,0,0,2
5:54.978   127792,t,0,0,0
5:55.058   127821,),0,0,2
5:55.714   128057,(,0,0,0
5:55.767   128076,p,0,0,0
5:55.819   128095,),0,0,0
5:55.928   128134,(,0,0,1
5:55.961   128146,N,0,0,0
5:56.019   128167,),0,0,1
5:56.183   128226,(,0,0,2
5:56.283   128262,t,0,0,0
5:56.372   128294,),0,0,2
5:56.908   128487,(,0,0,0
5:56.944   128500,p,0,0,0
5:57.003   128521,),0,0,0
5:57.117   128562,(,0,0,1
5:57.153   128575,N,0,0,0
5:57.206   128594,),0,0,1
5:57.378   128656,(,0,0,2
5:57.478   128692,t,0,0,0
5:57.558   128721,),0,0,2
5:58.142   128931,(,0,0,0
5:58.194   128950,p,0,0,0
5:58.253   128971,),0,0,0
5:58.367   129012,(,0,0,1
5:58.400   129024,N,0,0,0
5:58.447   129041,),0,0,1
5:58.636   129109,(,0,0,2
5:58.728   129142,t,0,0,0
5:58.811   129172,),0,0,2
5:59.411   129388,(,0,0,0
5:59.467   129408,p,0,0,0
5:59.522   129428,),0,0,0
5:59.639   129470,(,0,0,1
5:59.672   129482,N,0,0,0
5:59.728   129502,),0,0,1
5:59.886   129559,(,0,0,2
5:59.997   129599,t,0,0,0
6:00.081   129629,),0,0,2
6:00.592   129813,(,0,0,0
6:00.647   129833,p,0,0,0
6:00.703   129853,),0,0,0
6:00.814   129893,(,0,0,1
6:00.847   129905,N,0,0,0
6:00.900   129924,),0,0,1
6:01.069   129985,(,0,0,2
6:01.169   130021,t,0,0,0
6:01.250   130050,),0,0,2
6:01.722   130220,(,0,0,0
6:01.769   130237,p,0,0,0
6:01.833   130260,),0,0,0
6:01.936   130297,(,0,0,1
6:01.969   130309,N,0,0,0
6:02.017   130326,),0,0,1
6:02.197   130391,(,0,0,2
6:02.297   130427,t,0,0,0
6:02.378   130456,),0,0,2
6:02.975   130671,(,0,0,0
6:03.017   130686,p,0,0,0
6:03.081   130709,),0,0,0
6:03.181   130745,(,0,0,1
6:03.217   130758,N,0,0,0
6:03.264   130775,),0,0,1
6:03.436   130837,(,0,0,2
6:03.533   130872,t,0,0,0
6:03.619   130903,),0,0,2
6:04.175   131103,(,0,0,0
6:04.217   131118,p,0,0,0
6:04.275   131139,),0,0,0
6:04.375   131175,(,0,0,1
6:04.408   131187,N,0,0,0
6:04.461   131206,),0,0,1
6:04.617   131262,(,0,0,2
6:04.731   131303,t,0,0,0
6:04.819   131335,),0,0,2
6:05.281   131501,(,0,0,0
6:05.325   131517,p,0,0,0
6:05.383   131538,),0,0,0
6:05.483   131574,(,0,0,1
6:05.519   131587,N,0,0,0
6:05.569   131605,),0,0,1
6:05.733   131664,(,0,0,2
6:05.833   131700,t,0,0,0
6:05.914   131729,),0,0,2
6:06.461   131926,(,0,0,0
6:06.506   131942,p,0,0,0
6:06.575   131967,),0,0,0
6:06.669   132001,(,0,0,1
6:06.703   132013,N,0,0,0
6:06.750   132030,),0,0,1
6:06.914   132089,(,0,0,2
6:07.006   132122,t,0,0,0
6:07.083   132150,),0,0,2
6:07.533   132312,(,0,0,0
6:07.586   132331,p,0,0,0
6:07.647   132353,),0,0,0
6:07.756   132392,(,0,0,1
6:07.789   132404,N,0,0,0
6:07.842   132423,),0,0,1
6:08.017   132486,(,0,0,2
6:08.106   132518,t,0,0,0
6:08.183   132546,),0,0,2
6:08.717   132738,(,0,0,0
6:08.764   132755,p,0,0,0
6:08.833   132780,),0,0,0
6:08.931   132815,(,0,0,1
6:08.964   132827,N,0,0,0
6:09.008   132843,),0,0,1
6:09.189   132908,(,0,0,2
6:09.283   132942,t,0,0,0
6:09.364   132971,),0,0,2
6:09.972   133190,(,0,0,0
6:10.017   133206,p,0,0,0
6:10.078   133228,),0,0,0
6:10.186   133267,(,0,0,1
6:10.222   133280,N,0,0,0
6:10.281   133301,),0,0,1
6:10.464   133367,(,0,0,2
6:10.553   133399,t,0,0,0
6:10.644   133432,),0,0,2
6:11.164   133619,(,0,0,0
6:11.208   133635,p,0,0,0
6:11.269   133657,),0,0,0
6:11.375   133695,(,0,0,1
6:11.408   133707,N,0,0,0
6:11.461   133726,),0,0,1
6:11.631   133787,(,0,0,2
6:11.725   133821,t,0,0,0
6:11.808   133851,),0,0,2
6:12.417   134070,(,0,0,0
6:12.461   134086,p,0,0,0
6:12.528   134110,),0,0,0
6:12.633   134148,(,0,0,1
6:12.669   134161,N,0,0,0
6:12.714   134177,),0,0,1
6:12.894   134242,(,0,0,2
6:13.008   134283,t,0,0,0
6:13.089   134312,),0,0,2
6:13.692   134529,(,0,0,0
6:13.733   134544,p,0,0,0
6:13.789   134564,),0,0,0
6:13.894   134602,(,0,0,1
6:13.931   134615,N,0,0,0
6:13.983   134634,),0,0,1
6:14.153   134695,(,0,0,2
6:14.250   134730,t,0,0,0
6:14.339   134762,),0,0,2
6:14.833   134940,(,0,0,0
6:14.878   134956,p,0,0,0
6:14.944   134980,),0,0,0
6:15.047   135017,(,0,0,1
6:15.083   135030,N,0,0,0
6:15.131   135047,),0,0,1
6:15.319   135115,(,0,0,2
6:15.408   135147,t,0,0,0
6:15.492   135177,),0,0,2
6:16.061   135382,(,0,0,0
6:16.108   135399,p,0,0,0
6:16.167   135420,),0,0,0
6:16.267   135456,(,0,0,1
6:16.303   135469,N,0,0,0
6:16.350   135486,),0,0,1
6:16.519   135547,(,0,0,2
6:16.614   135581,t,0,0,0
6:16.697   135611,),0,0,2
6:17.186   135787,(,0,0,0
6:17.231   135803,p,0,0,0
6:17.289   135824,),0,0,0
6:17.394   135862,(,0,0,1
6:17.428   135874,N,0,0,0
6:17.481   135893,),0,0,1
6:17.653   135955,(,0,0,2
6:17.750   135990,t,0,0,0
6:17.828   136018,),0,0,2
6:18.367   136212,(,0,0,0
6:18.408   136227,p,0,0,0
6:18.475   136251,),0,0,0
6:18.578   136288,(,0,0,1
6:18.608   136299,N,0,0,0
6:18.653   136315,),0,0,1
6:18.828   136378,(,0,0,2
6:18.919   136411,t,0,0,0
6:19.006   136442,),0,0,2
6:19.622   136664,(,0,0,0
6:19.669   136681,p,0,0,0
6:19.731   136703,),0,0,0
6:19.831   136739,(,0,0,1
6:19.864   136751,N,0,0,0
6:19.917   136770,),0,0,1
6:20.092   136833,(,0,0,2
6:20.186   136867,t,0,0,0
6:20.269   136897,),0,0,2
6:20.786   137083,(,0,0,0
6:20.825   137097,p,0,0,0
6:20.886   137119,),0,0,0
6:20.992   137157,(,0,0,1
6:21.025   137169,N,0,0,0
6:21.078   137188,),0,0,1
6:21.250   137250,(,0,0,2
6:21.342   137283,t,0,0,0
6:21.428   137314,),0,0,2
6:21.933   137496,(,0,0,0
6:21.981   137513,p,0,0,0
6:22.047   137537,),0,0,0
6:22.153   137575,(,0,0,1
6:22.189   137588,N,0,0,0
6:22.236   137605,),0,0,1
6:22.406   137666,(,0,0,2
6:22.500   137700,t,0,0,0
6:22.581   137729,),0,0,2
6:23.106   137918,(,0,0,0
6:23.156   137936,p,0,0,0
6:23.222   137960,),0,0,0
6:23.328   137998,(,0,0,1
6:23.361   138010,N,0,0,0
6:23.411   138028,),0,0,1
6:23.583   138090,(,0,0,2
6:23.675   138123,t,0,0,0
6:23.761   138154,),0,0,2
6:24.131   138287,(,0,0,0
6:24.175   138303,p,0,0,0
6:24.231   138323,),0,0,0
6:24.339   138362,(,0,0,1
6:24.372   138374,N,0,0,0
6:24.425   138393,),0,0,1
6:24.589   138452,(,0,0,2
6:24.686   138487,t,0,0,0
6:24.767   138516,),0,0,2
6:25.117   138642,(,0,0,0
6:25.158   138657,p,0,0,0
6:25.222   138680,),0,0,0
6:25.322   138716,(,0,0,1
6:25.356   138728,N,0,0,0
6:25.408   138747,),0,0,1
6:25.578   138808,(,0,0,2
6:25.675   138843,t,0,0,0
6:25.761   138874,),0,0,2
6:26.128   139006,(,0,0,0
6:26.172   139022,p,0,0,0
6:26.236   139045,),0,0,0
6:26.339   139082,(,0,0,1
6:26.372   139094,N,0,0,0
6:26.419   139111,),0,0,1
6:26.589   139172,(,0,0,2
6:26.683   139206,t,0,0,0
6:26.769   139237,),0,0,2
6:27.131   139367,(,0,0,0
6:27.169   139381,p,0,0,0
6:27.236   139405,),0,0,0
6:27.339   139442,(,0,0,1
6:27.372   139454,N,0,0,0
6:27.425   139473,),0,0,1
6:27.594   139534,(,0,0,2
6:27.681   139565,t,0,0,0
6:27.764   139595,),0,0,2
6:28.175   139743,(,0,0,0
6:28.219   139759,p,0,0,0
6:28.289   139784,),0,0,0
6:28.397   139823,(,0,0,1
6:28.433   139836,N,0,0,0
6:28.483   139854,),0,0,1
6:28.653   139915,(,0,0,2
6:28.747   139949,t,0,0,0
6:28.833   139980,),0,0,2
6:29.517   140226,(,0,0,0
6:29.567   140244,p,0,0,0
6:29.633   140268,),0,0,0
6:29.733   140304,(,0,0,1
6:29.769   140317,N,0,0,0
6:29.817   140334,),0,0,1
6:29.989   140396,(,0,0,2
6:30.083   140430,t,0,0,0
6:30.164   140459,),0,0,2
6:30.842   140703,(,0,0,0
6:30.892   140721,p,0,0,0
6:30.950   140742,),0,0,0
6:31.061   140782,(,0,0,1
6:31.094   140794,N,0,0,0
6:31.144   140812,),0,0,1
6:31.308   140871,(,0,0,2
6:31.406   140906,t,0,0,0
6:31.489   140936,),0,0,2
6:32.067   141144,(,0,0,0
6:32.114   141161,p,0,0,0
6:32.175   141183,),0,0,0
6:32.278   141220,(,0,0,1
6:32.311   141232,N,0,0,0
6:32.358   141249,),0,0,1
6:32.531   141311,(,0,0,2
6:32.631   141347,t,0,0,0
6:32.714   141377,),0,0,2
6:33.456   141644,(,0,0,0
6:33.506   141662,p,0,0,0
6:33.569   141685,),0,0,0
6:33.675   141723,(,0,0,1
6:33.711   141736,N,0,0,0
6:33.761   141754,),0,0,1
6:33.933   141816,(,0,0,2
6:34.036   141853,t,0,0,0
6:34.111   141880,),0,0,2
6:34.739   142106,(,0,0,0
6:34.778   142120,p,0,0,0
6:34.836   142141,),0,0,0
6:34.933   142176,(,0,0,1
6:34.967   142188,N,0,0,0
6:35.022   142208,),0,0,1
6:35.183   142266,(,0,0,2
6:35.286   142303,t,0,0,0
6:35.369   142333,),0,0,2
6:36.014   142565,(,0,0,0
6:36.058   142581,p,0,0,0
6:36.128   142606,),0,0,0
6:36.228   142642,(,0,0,1
6:36.264   142655,N,0,0,0
6:36.308   142671,),0,0,1
6:36.481   142733,(,0,0,2
6:36.583   142770,t,0,0,0
6:36.667   142800,),0,0,2
6:37.286   143023,(,0,0,0
6:37.339   143042,p,0,0,0
6:37.392   143061,),0,0,0
6:37.503   143101,(,0,0,1
6:37.536   143113,N,0,0,0
6:37.592   143133,),0,0,1
6:37.744   143188,(,0,0,2
6:37.844   143224,t,0,0,0
6:37.919   143251,),0,0,2
6:38.428   143434,(,0,0,0
6:38.475   143451,p,0,0,0
6:38.528   143470,),0,0,0
6:38.650   143514,(,0,0,1
6:38.683   143526,N,0,0,0
6:38.736   143545,),0,0,1
6:38.906   143606,(,0,0,2
6:38.997   143639,t,0,0,0
6:39.081   143669,),0,0,2
6:39.681   143885,(,0,0,0
6:39.725   143901,p,0,0,0
6:39.789   143924,),0,0,0
6:39.889   143960,(,0,0,1
6:39.925   143973,N,0,0,0
6:39.969   143989,),0,0,1
6:40.142   144051,(,0,0,2
6:40.242   144087,t,0,0,0
6:40.322   144116,),0,0,2
6:40.903   144325,(,0,0,0
6:40.947   144341,p,0,0,0
6:41.014   144365,),0,0,0
6:41.117   144402,(,0,0,1
6:41.153   144415,N,0,0,0
6:41.206   144434,),0,0,1
6:41.378   144496,(,0,0,2
6:41.481   144533,t,0,0,0
6:41.564   144563,),0,0,2
6:42.039   144734,(,0,0,0
6:42.081   144749,p,0,0,0
6:42.144   144772,),0,0,0
6:42.250   144810,(,0,0,1
6:42.286   144823,N,0,0,0
6:42.339   144842,),0,0,1
6:42.506   144902,(,0,0,2
6:42.600   144936,t,0,0,0
6:42.681   144965,),0,0,2
6:43.283   145182,(,0,0,0
6:43.331   145199,p,0,0,0
6:43.397   145223,),0,0,0
6:43.503   145261,(,0,0,1
6:43.539   145274,N,0,0,0
6:43.586   145291,),0,0,1
6:43.781   145361,(,0,0,2
6:43.878   145396,t,0,0,0
6:43.956   145424,),0,0,2
6:44.528   145630,(,0,0,0
6:44.572   145646,p,0,0,0
6:44.642   145671,),0,0,0
6:44.742   145707,(,0,0,1
6:44.775   145719,N,0,0,0
6:44.833   145740,),0,0,1
6:45.008   145803,(,0,0,2
6:45.097   145835,t,0,0,0
6:45.181   145865,),0,0,2
6:45.603   146017,(,0,0,0
6:45.642   146031,p,0,0,0
6:45.703   146053,),0,0,0
6:45.808   146091,(,0,0,1
6:45.839   146102,N,0,0,0
6:45.894   146122,),0,0,1
6:46.058   146181,(,0,0,2
6:46.164   146219,t,0,0,0
6:46.253   146251,),0,0,2
6:46.786   146443,(,0,0,0
6:46.828   146458,p,0,0,0
6:46.894   146482,),0,0,0
6:46.997   146519,(,0,0,1
6:47.031   146531,N,0,0,0
6:47.075   146547,),0,0,1
6:47.244   146608,(,0,0,2
6:47.344   146644,t,0,0,0
6:47.425   146673,),0,0,2
6:48.006   146882,(,0,0,0
6:48.047   146897,p,0,0,0
6:48.117   146922,),0,0,0
6:48.219   146959,(,0,0,1
6:48.253   146971,N,0,0,0
6:48.303   146989,),0,0,1
6:48.478   147052,(,0,0,2
6:48.575   147087,t,0,0,0
6:48.658   147117,),0,0,2
6:49.122   147284,(,0,0,0
6:49.167   147300,p,0,0,0
6:49.225   147321,),0,0,0
6:49.336   147361,(,0,0,1
6:49.369   147373,N,0,0,0
6:49.425   147393,),0,0,1
6:49.578   147448,(,0,0,2
6:49.675   147483,t,0,0,0
6:49.756   147512,),0,0,2
6:50.186   147667,(,0,0,0
6:50.231   147683,p,0,0,0
6:50.294   147706,),0,0,0
6:50.406   147746,(,0,0,1
6:50.439   147758,N,0,0,0
6:50.486   147775,),0,0,1
6:50.658   147837,(,0,0,2
6:50.753   147871,t,0,0,0
6:50.833   147900,),0,0,2
6:51.292   148065,(,0,0,0
6:51.339   148082,p,0,0,0
6:51.403   148105,),0,0,0
6:51.514   148145,(,0,0,1
6:51.547   148157,N,0,0,0
6:51.603   148177,),0,0,1
6:51.769   148237,(,0,0,2
6:51.864   148271,t,0,0,0
6:51.950   148302,),0,0,2
6:52.286   148423,(,0,0,0
6:52.331   148439,p,0,0,0
6:52.386   148459,),0,0,0
6:52.492   148497,(,0,0,1
6:52.525   148509,N,0,0,0
6:52.581   148529,),0,0,1
6:52.753   148591,(,0,0,2
6:52.842   148623,t,0,0,0
6:52.922   148652,),0,0,2
6:53.272   148778,(,0,0,0
6:53.317   148794,p,0,0,0
6:53.381   148817,),0,0,0
6:53.481   148853,(,0,0,1
6:53.514   148865,N,0,0,0
6:53.564   148883,),0,0,1
6:53.728   148942,(,0,0,2
6:53.825   148977,t,0,0,0
6:53.908   149007,),0,0,2
6:54.286   149143,(,0,0,0
6:54.331   149159,p,0,0,0
6:54.394   149182,),0,0,0
6:54.497   149219,(,0,0,1
6:54.531   149231,N,0,0,0
6:54.578   149248,),0,0,1
6:54.750   149310,(,0,0,2
6:54.836   149341,t,0,0,0
6:54.922   149372,),0,0,2
6:55.281   149501,(,0,0,0
6:55.331   149519,p,0,0,0
6:55.394   149542,),0,0,0
6:55.503   149581,(,0,0,1
6:55.539   149594,N,0,0,0
6:55.589   149612,),0,0,1
6:55.761   149674,(,0,0,2
6:55.853   149707,t,0,0,0
6:55.936   149737,),0,0,2
6:56.383   149898,(,0,0,0
6:56.428   149914,p,0,0,0
6:56.492   149937,),0,0,0
6:56.608   149979,(,0,0,1
6:56.644   149992,N,0,0,0
6:56.689   150008,),0,0,1
6:56.861   150070,(,0,0,2
6:56.961   150106,t,0,0,0
6:57.042   150135,),0,0,2
6:57.692   150369,(,0,0,0
6:57.733   150384,p,0,0,0
6:57.797   150407,),0,0,0
6:57.897   150443,(,0,0,1
6:57.933   150456,N,0,0,0
6:57.981   150473,),0,0,1
6:58.161   150538,(,0,0,2
6:58.256   150572,t,0,0,0
6:58.339   150602,),0,0,2
6:58.931   150815,(,0,0,0
6:58.983   150834,p,0,0,0
6:59.044   150856,),0,0,0
6:59.156   150896,(,0,0,1
6:59.189   150908,N,0,0,0
6:59.244   150928,),0,0,1
6:59.414   150989,(,0,0,2
6:59.511   151024,t,0,0,0
6:59.592   151053,),0,0,2
7:19.511   158224,(,0,0,0
7:19.558   158241,p,0,0,0
7:19.619   158263,),0,0,0
7:19.733   158304,(,0,0,1
7:19.767   158316,N,0,0,0
7:19.822   158336,),0,0,1
7:19.986   158395,(,0,0,2
7:20.086   158431,t,0,0,5
7:20.511   158584,t,0,0,5
7:20.603   158617,),0,0,2
7:23.061   159502,(,0,0,0
7:23.103   159517,p,0,0,0
7:23.158   159537,),0,0,0
7:23.269   159577,(,0,0,1
7:23.300   159588,N,0,0,0
7:23.356   159608,),0,0,1
7:23.522   159668,(,0,0,2
7:23.619   159703,t,0,0,0
7:23.708   159735,),0,0,2
7:26.600   160776,(,0,0,0
7:26.644   160792,p,0,0,0
7:26.706   160814,),0,0,0
7:26.814   160853,(,0,0,1
7:26.850   160866,N,0,0,0
7:26.900   160884,),0,0,1
7:27.061   160942,(,0,0,2
7:27.164   160979,t,0,0,0
7:27.247   161009,),0,0,2
7:29.889   161960,(,0,0,0
7:29.947   161981,p,0,0,0
7:30.006   162002,),0,0,0
7:30.047   162017,(,0,0,1
7:30.083   162030,N,0,0,0
7:30.136   162049,),0,0,1
7:30.342   162123,(,0,0,2
7:30.411   162148,t,0,0,5
7:30.825   162297,t,0,0,5
7:30.897   162323,),0,0,2
7:31.819   162655,(,0,0,0
7:31.858   162669,p,0,0,0
7:31.914   162689,),0,0,0
7:32.022   162728,(,0,0,1
7:32.053   162739,N,0,0,0
7:32.106   162758,),0,0,1
7:32.244   162808,(,0,0,2
7:32.344   162844,t,0,0,5
7:32.453   162883,t,0,0,5
7:32.539   162914,),0,0,2
7:32.739   162986,(,0,0,0
7:32.778   163000,p,0,0,0
7:32.833   163020,),0,0,0
7:32.944   163060,(,0,0,1
7:32.981   163073,N,0,0,0
7:33.031   163091,),0,0,1
7:33.197   163151,(,0,0,2
7:33.283   163182,t,0,0,5
7:33.419   163231,t,0,0,5
7:33.478   163252,),0,0,2
7:33.717   163338,(,0,0,0
7:33.753   163351,p,0,0,0
7:33.817   163374,),0,0,0
7:33.919   163411,(,0,0,1
7:33.953   163423,N,0,0,0
7:34.006   163442,),0,0,1
7:34.172   163502,(,0,0,2
7:34.264   163535,t,0,0,0
7:34.350   163566,),0,0,2
7:34.786   163723,(,0,0,0
7:34.833   163740,p,0,0,0
7:34.897   163763,),0,0,0
7:35.008   163803,(,0,0,1
7:35.042   163815,N,0,0,0
7:35.086   163831,),0,0,1
7:35.250   163890,(,0,0,2
7:35.353   163927,t,0,0,0
7:35.433   163956,),0,0,2
7:35.839   164102,(,0,0,0
7:35.883   164118,p,0,0,0
7:35.947   164141,),0,0,0
7:36.058   164181,(,0,0,1
7:36.092   164193,N,0,0,0
7:36.139   164210,),0,0,1
7:36.286   164263,(,0,0,2
7:36.394   164302,t,0,0,0
7:36.478   164332,),0,0,2
7:36.864   164471,(,0,0,0
7:36.908   164487,p,0,0,0
7:36.978   164512,),0,0,0
7:37.083   164550,(,0,0,1
7:37.117   164562,N,0,0,0
7:37.169   164581,),0,0,1
7:37.336   164641,(,0,0,2
7:37.428   164674,t,0,0,0
7:37.514   164705,),0,0,2
7:54.714   170897,(,0,0,0
7:54.758   170913,p,0,0,0
7:54.817   170934,),0,0,0
7:54.928   170974,(,0,0,1
7:54.958   170985,N,0,0,0
7:55.008   171003,),0,0,1
7:55.181   171065,(,0,0,2
7:55.267   171096,t,0,0,0
7:55.344   171124,),0,0,2
7:55.694   171250,(,0,0,0
7:55.733   171264,p,0,0,0
7:55.797   171287,),0,0,0
7:55.900   171324,(,0,0,1
7:55.933   171336,N,0,0,0
7:55.983   171354,),0,0,1
7:56.147   171413,(,0,0,2
7:56.242   171447,t,0,0,5
7:56.667   171600,t,0,0,5
7:56.742   171627,),0,0,2
8:11.925   177093,(,0,0,0
8:11.975   177111,p,0,0,0
8:12.042   177135,),0,0,0
8:12.150   177174,(,0,0,1
8:12.183   177186,N,0,0,0
8:12.233   177204,),0,0,1
8:12.411   177268,(,0,0,2
8:12.492   177297,t,0,0,5
8:12.950   177462,t,0,0,5
8:13.011   177484,),0,0,2
8:15.622   178424,(,0,0,0
8:15.667   178440,p,0,0,0
8:15.725   178461,),0,0,0
8:15.833   178500,(,0,0,1
8:15.867   178512,N,0,0,0
8:15.914   178529,),0,0,1
8:16.078   178588,(,0,0,2
8:16.178   178624,t,0,0,0
8:16.258   178653,),0,0,2
8:19.553   179839,(,0,0,0
8:19.594   179854,p,0,0,0
8:19.650   179874,),0,0,0
8:19.764   179915,(,0,0,1
8:19.800   179928,N,0,0,0
8:19.847   179945,),0,0,1
8:20.028   180010,(,0,0,2
8:20.122   180044,t,0,0,0
8:20.203   180073,),0,0,2
8:20.858   180309,(,0,0,0
8:20.908   180327,p,0,0,0
8:20.972   180350,),0,0,0
8:21.081   180389,(,0,0,1
8:21.114   180401,N,0,0,0
8:21.161   180418,),0,0,1
8:21.333   180480,(,0,0,2
8:21.431   180515,t,0,0,0
8:21.522   180548,),0,0,2
8:23.467   181248,(,0,0,0
8:23.511   181264,p,0,0,0
8:23.569   181285,),0,0,0
8:23.678   181324,(,0,0,1
8:23.714   181337,N,0,0,0
8:23.767   181356,),0,0,1
8:23.928   181414,(,0,0,2
8:24.031   181451,t,0,0,0
8:24.119   181483,),0,0,2
8:24.772   181718,(,0,0,0
8:24.819   181735,p,0,0,0
8:24.889   181760,),0,0,0
8:24.994   181798,(,0,0,1
8:25.031   181811,N,0,0,0
8:25.078   181828,),0,0,1
8:25.258   181893,(,0,0,2
8:25.358   181929,t,0,0,0
8:25.447   181961,),0,0,2
8:27.300   182628,(,0,0,0
8:27.347   182645,p,0,0,0
8:27.403   182665,),0,0,0
8:27.519   182707,(,0,0,1
8:27.581   182729,N,0,0,0
8:27.608   182739,),0,0,1
8:27.772   182798,(,0,0,2
8:27.872   182834,t,0,0,0
8:27.950   182862,),0,0,2
8:30.967   183948,(,0,0,0
8:31.011   183964,p,0,0,0
8:31.075   183987,),0,0,0
8:31.183   184026,(,0,0,1
8:31.244   184048,N,0,0,0
8:31.269   184057,),0,0,1
8:31.442   184119,(,0,0,2
8:31.533   184152,t,0,0,0
8:31.614   184181,),0,0,2
8:33.142   184731,(,0,0,0
8:33.194   184750,p,0,0,0
8:33.242   184767,),0,0,0
8:33.356   184808,(,0,0,1
8:33.417   184830,N,0,0,0
8:33.447   184841,),0,0,1
8:33.603   184897,(,0,0,2
8:33.703   184933,t,0,0,0
8:33.786   184963,),0,0,2
8:34.178   185104,(,0,0,0
8:34.219   185119,p,0,0,0
8:34.286   185143,),0,0,0
8:34.397   185183,(,0,0,1
8:34.453   185203,N,0,0,0
8:34.475   185211,),0,0,1
8:34.636   185269,(,0,0,2
8:34.728   185302,t,0,0,0
8:34.811   185332,),0,0,2
8:35.189   185468,(,0,0,0
8:35.233   185484,p,0,0,0
8:35.306   185510,),0,0,0
8:35.419   185551,(,0,0,1
8:35.483   185574,N,0,0,0
8:35.506   185582,),0,0,1
8:35.664   185639,(,0,0,2
8:35.764   185675,t,0,0,0
8:35.844   185704,),0,0,2
9:12.222   198800,(,0,0,1
9:12.297   198827,N,0,0,0
9:12.428   198874,),0,0,1
9:12.964   199067,(,0,0,2
9:12.997   199079,t,0,0,0
9:13.031   199091,),0,0,2
9:14.203   199513,(,0,0,1
9:14.297   199547,N,0,0,0
9:14.439   199598,),0,0,1
9:14.897   199763,(,0,0,2
9:14.928   199774,t,0,0,0
9:14.961   199786,),0,0,2
9:16.103   200197,(,0,0,1
9:16.156   200216,N,0,0,0
9:16.297   200267,),0,0,1
9:16.789   200444,(,0,0,2
9:16.819   200455,t,0,0,0
9:16.853   200467,),0,0,2
9:17.011   200524,(,0,0,1
9:17.144   200572,N,0,0,0
9:17.261   200614,),0,0,1
9:17.742   200787,(,0,0,2
9:17.772   200798,t,0,0,0
9:17.808   200811,),0,0,2
9:18.931   201215,(,0,0,1
9:19.033   201252,N,0,0,0
9:19.169   201301,),0,0,1
9:19.667   201480,(,0,0,2
9:19.700   201492,t,0,0,0
9:19.733   201504,),0,0,2
9:37.875   208035,(,0,0,1
9:38.008   208083,N,0,0,0
9:38.117   208122,),0,0,1
9:38.708   208335,(,0,0,2
9:38.739   208346,t,0,0,0
9:38.772   208358,),0,0,2
9:40.014   208805,(,0,0,1
9:40.081   208829,N,0,0,0
9:40.222   208880,),0,0,1
9:40.775   209079,(,0,0,2
9:40.808   209091,t,0,0,0
9:40.842   209103,),0,0,2
9:42.056   209540,(,0,0,1
9:42.156   209576,N,0,0,0
9:42.289   209624,),0,0,1
9:42.864   209831,(,0,0,2
9:42.911   209848,t,0,0,0
9:42.997   209879,),0,0,2
9:56.594   214774,(,0,0,1
9:56.700   214812,N,0,0,0
9:56.833   214860,),0,0,1
9:57.389   215060,(,0,0,2
9:57.442   215079,t,0,0,0
9:57.517   215106,),0,0,2
   10:00.028   216010,(,0,0,1
   10:00.131   216047,N,0,0,0
   10:00.267   216096,),0,0,1
   10:00.817   216294,(,0,0,2
   10:00.850   216306,t,0,0,0
   10:00.883   216318,),0,0,2
   10:03.369   217213,(,0,0,1
   10:03.478   217252,N,0,0,0
   10:03.603   217297,),0,0,1
   10:07.603   218737,(,0,0,1
   10:07.622   218744,N,0,0,0
   10:07.742   218787,),0,0,1
   10:08.297   218987,(,0,0,2
   10:08.356   219008,t,0,0,5
   10:08.439   219038,t,0,0,5
   10:08.544   219076,),0,0,2
   10:09.975   219591,(,0,0,1
   10:10.097   219635,N,0,0,0
   10:10.272   219698,),0,0,1
   10:10.350   219726,(,0,0,2
   10:10.656   219836,t,0,0,1
   10:10.897   219923,),0,0,2
   10:11.308   220071,(,0,0,1
   10:11.433   220116,N,0,0,0
   10:11.608   220179,),0,0,1
   10:12.106   220358,(,0,0,2
   10:12.164   220379,t,0,0,0
   10:12.219   220399,),0,0,2
   10:13.769   220957,(,0,0,1
   10:13.800   220968,N,0,0,0
   10:13.944   221020,),0,0,1
   10:14.522   221228,(,0,0,2
   10:14.553   221239,t,0,0,0
   10:14.589   221252,),0,0,2
   10:14.778   221320,(,0,0,1
   10:14.872   221354,N,0,0,0
   10:15.014   221405,),0,0,1
   10:15.478   221572,t,0,0,2
   10:15.564   221603,),0,0,2
   10:15.775   221679,(,0,0,1
   10:15.872   221714,N,0,0,0
   10:16.014   221765,),0,0,1
   10:16.553   221959,(,0,0,2
   10:16.586   221971,t,0,0,0
   10:16.619   221983,),0,0,2
   10:16.811   222052,(,0,0,1
   10:16.903   222085,N,0,0,0
   10:17.075   222147,),0,0,1
   10:17.625   222345,(,0,0,2
   10:17.656   222356,t,0,0,0
   10:17.686   222367,),0,0,2
   10:17.878   222436,(,0,0,1
   10:17.969   222469,N,0,0,0
   10:18.081   222509,),0,0,1
   10:18.133   222528,),0,0,2
   10:18.197   222551,t,0,0,1
   10:18.261   222574,(,0,0,2
   10:19.272   222938,(,0,0,1
   10:19.378   222976,N,0,0,0
   10:19.514   223025,),0,0,1
   10:20.081   223229,(,0,0,2
   10:20.133   223248,t,0,0,0
   10:20.192   223269,),0,0,2
   10:28.111   226120,(,0,0,1
   10:28.239   226166,N,0,0,0
   10:28.353   226207,),0,0,1
   10:28.936   226417,(,0,0,2
   10:28.989   226436,t,0,0,0
   10:29.056   226460,),0,0,2
   10:31.886   227479,(,0,0,1
   10:31.981   227513,N,0,0,0
   10:32.119   227563,),0,0,1
   10:32.650   227754,(,0,0,2
   10:32.706   227774,t,0,0,0
   10:32.767   227796,),0,0,2
   10:37.858   229629,(,0,0,1
   10:37.978   229672,N,0,0,0
   10:38.081   229709,),0,0,1
   10:38.658   229917,(,0,0,2
   10:38.711   229936,t,0,0,0
   10:38.786   229963,),0,0,2
   10:39.119   230083,(,0,0,1
   10:39.214   230117,N,0,0,0
   10:39.392   230181,),0,0,1
   10:39.919   230371,),0,0,2
   10:39.975   230391,t,0,0,0
   10:40.031   230411,(,0,0,2
   10:41.492   230937,(,0,0,1
   10:41.542   230955,N,0,0,0
   10:41.614   230981,),0,0,1
   10:42.269   231217,(,0,0,2
   10:42.322   231236,t,0,0,0
   10:42.397   231263,),0,0,2
   10:42.756   231392,(,0,0,1
   10:42.856   231428,N,0,0,0
   10:42.997   231479,),0,0,1
   10:43.631   231707,(,0,0,2
   10:43.661   231718,t,0,0,0
   10:43.694   231730,),0,0,2
   11:02.903   238645,(,0,0,1
   11:02.967   238668,N,0,0,0
   11:03.008   238683,),0,0,1
   11:03.181   238745,(,0,0,2
   11:03.289   238784,t,0,0,0
   11:03.375   238815,),0,0,2
   11:04.097   239075,(,0,0,1
   11:04.167   239100,N,0,0,0
   11:04.206   239114,),0,0,1
   11:04.375   239175,(,0,0,2
   11:04.486   239215,t,0,0,0
   11:04.569   239245,),0,0,2
   11:05.339   239522,(,0,0,1
   11:05.400   239544,N,0,0,0
   11:05.444   239560,),0,0,1
   11:05.617   239622,(,0,0,2
   11:05.728   239662,t,0,0,0
   11:05.806   239690,),0,0,2
   11:06.469   239929,(,0,0,1
   11:06.542   239955,N,0,0,0
   11:06.586   239971,),0,0,1
   11:06.775   240039,(,0,0,2
   11:06.861   240070,t,0,0,0
   11:06.942   240099,),0,0,2
   11:07.681   240365,(,0,0,1
   11:07.711   240376,N,0,0,0
   11:07.753   240391,),0,0,1
   11:07.914   240449,(,0,0,2
   11:08.036   240493,t,0,0,0
   11:08.117   240522,),0,0,2
   11:08.750   240750,(,0,0,1
   11:08.781   240761,N,0,0,0
   11:08.836   240781,),0,0,1
   11:09.008   240843,(,0,0,2
   11:09.097   240875,t,0,0,5
   11:09.553   241039,t,0,0,5
   11:09.614   241061,),0,0,2
   11:10.769   241477,(,0,0,1
   11:10.817   241494,N,0,0,0
   11:10.858   241509,),0,0,1
   11:11.047   241577,(,0,0,2
   11:11.139   241610,t,0,0,0
   11:11.219   241639,),0,0,2
   11:11.736   241825,(,0,0,1
   11:11.800   241848,N,0,0,0
   11:11.842   241863,),0,0,1
   11:12.014   241925,(,0,0,2
   11:12.114   241961,t,0,0,0
   11:12.197   241991,),0,0,2
   11:12.714   242177,(,0,0,1
   11:12.761   242194,N,0,0,0
   11:12.806   242210,),0,0,1
   11:12.983   242274,(,0,0,2
   11:13.072   242306,t,0,0,5
   11:13.489   242456,t,0,0,5
   11:13.550   242478,),0,0,2
   11:14.744   242908,(,0,0,1
   11:14.819   242935,N,0,0,0
   11:14.864   242951,),0,0,1
   11:15.025   243009,(,0,0,2
   11:15.133   243048,t,0,0,0
   11:15.214   243077,),0,0,2
   11:16.158   243417,(,0,0,1
   11:16.194   243430,N,0,0,0
   11:16.239   243446,),0,0,1
   11:16.433   243516,(,0,0,2
   11:16.522   243548,t,0,0,0
   11:16.614   243581,),0,0,2
   11:17.519   243907,(,0,0,1
   11:17.553   243919,N,0,0,0
   11:17.592   243933,),0,0,1
   11:17.769   243997,(,0,0,2
   11:17.869   244033,t,0,0,0
   11:17.950   244062,),0,0,2
   11:18.844   244384,(,0,0,1
   11:18.911   244408,N,0,0,0
   11:18.950   244422,),0,0,1
   11:19.125   244485,(,0,0,2
   11:19.233   244524,t,0,0,0
   11:19.311   244552,),0,0,2
   11:20.081   244829,(,0,0,1
   11:20.125   244845,N,0,0,0
   11:20.178   244864,),0,0,1
   11:20.347   244925,(,0,0,2
   11:20.447   244961,t,0,0,0
   11:20.528   244990,),0,0,2
   11:21.283   245262,(,0,0,1
   11:21.350   245286,N,0,0,0
   11:21.392   245301,),0,0,1
   11:21.583   245370,(,0,0,2
   11:21.681   245405,t,0,0,0
   11:21.761   245434,),0,0,2
   11:22.617   245742,(,0,0,1
   11:22.675   245763,N,0,0,0
   11:22.717   245778,),0,0,1
   11:22.897   245843,(,0,0,2
   11:23.000   245880,t,0,0,0
   11:23.081   245909,),0,0,2
   11:23.819   246175,(,0,0,1
   11:23.883   246198,N,0,0,0
   11:23.944   246220,),0,0,1
   11:24.128   246286,(,0,0,2
   11:24.219   246319,t,0,0,0
   11:24.311   246352,),0,0,2
   11:25.050   246618,(,0,0,1
   11:25.100   246636,N,0,0,0
   11:25.142   246651,),0,0,1
   11:25.328   246718,(,0,0,2
   11:25.425   246753,t,0,0,0
   11:25.514   246785,),0,0,2
   11:26.350   247086,(,0,0,1
   11:26.406   247106,N,0,0,0
   11:26.447   247121,),0,0,1
   11:26.650   247194,(,0,0,2
   11:26.733   247224,t,0,0,0
   11:26.817   247254,),0,0,2
   11:27.517   247506,(,0,0,1
   11:27.578   247528,N,0,0,0
   11:27.622   247544,),0,0,1
   11:27.792   247605,(,0,0,2
   11:27.897   247643,t,0,0,0
   11:27.978   247672,),0,0,2
   11:28.844   247984,(,0,0,1
   11:28.878   247996,N,0,0,0
   11:28.919   248011,),0,0,1
   11:29.103   248077,(,0,0,2
   11:29.206   248114,t,0,0,0
   11:29.292   248145,),0,0,2
   11:30.192   248469,(,0,0,1
   11:30.233   248484,N,0,0,0
   11:30.278   248500,),0,0,1
   11:30.444   248560,(,0,0,2
   11:30.558   248601,t,0,0,0
   11:30.636   248629,),0,0,2
   11:31.333   248880,(,0,0,1
   11:31.369   248893,N,0,0,0
   11:31.414   248909,),0,0,1
   11:31.600   248976,(,0,0,2
   11:31.697   249011,t,0,0,0
   11:31.786   249043,),0,0,2
   11:32.594   249334,(,0,0,1
   11:32.653   249355,N,0,0,0
   11:32.694   249370,),0,0,1
   11:32.881   249437,(,0,0,2
   11:32.978   249472,t,0,0,0
   11:33.061   249502,),0,0,2
   11:33.892   249801,(,0,0,1
   11:33.956   249824,N,0,0,0
   11:33.997   249839,),0,0,1
   11:34.172   249902,(,0,0,2
   11:34.278   249940,t,0,0,0
   11:34.367   249972,),0,0,2
   11:35.058   250221,(,0,0,1
   11:35.119   250243,N,0,0,0
   11:35.161   250258,),0,0,1
   11:35.344   250324,(,0,0,2
   11:35.442   250359,t,0,0,0
   11:35.528   250390,),0,0,2
   11:36.325   250677,(,0,0,1
   11:36.389   250700,N,0,0,0
   11:36.428   250714,),0,0,1
   11:36.603   250777,(,0,0,2
   11:36.708   250815,t,0,0,0
   11:36.794   250846,),0,0,2
   11:37.692   251169,(,0,0,1
   11:37.750   251190,N,0,0,0
   11:37.792   251205,),0,0,1
   11:37.972   251270,(,0,0,2
   11:38.072   251306,t,0,0,0
   11:38.156   251336,),0,0,2
   11:38.864   251591,(,0,0,1
   11:38.925   251613,N,0,0,0
   11:38.967   251628,),0,0,1
   11:39.133   251688,(,0,0,2
   11:39.236   251725,t,0,0,0
   11:39.319   251755,),0,0,2
   11:40.167   252060,(,0,0,1
   11:40.208   252075,N,0,0,0
   11:40.247   252089,),0,0,1
   11:40.425   252153,(,0,0,2
   11:40.525   252189,t,0,0,0
   11:40.608   252219,),0,0,2
   11:41.400   252504,(,0,0,1
   11:41.431   252515,N,0,0,0
   11:41.472   252530,),0,0,1
   11:41.636   252589,(,0,0,2
   11:41.733   252624,t,0,0,0
   11:41.808   252651,),0,0,2
   11:42.522   252908,(,0,0,1
   11:42.600   252936,N,0,0,0
   11:42.642   252951,),0,0,1
   11:42.814   253013,(,0,0,2
   11:42.917   253050,t,0,0,0
   11:43.003   253081,),0,0,2
   11:43.764   253355,(,0,0,1
   11:43.836   253381,N,0,0,0
   11:43.875   253395,),0,0,1
   11:44.050   253458,(,0,0,2
   11:44.158   253497,t,0,0,0
   11:44.244   253528,),0,0,2
   11:45.006   253802,(,0,0,1
   11:45.042   253815,N,0,0,0
   11:45.086   253831,),0,0,1
   11:45.267   253896,(,0,0,2
   11:45.369   253933,t,0,0,0
   11:45.456   253964,),0,0,2
   11:46.131   254207,(,0,0,1
   11:46.167   254220,N,0,0,0
   11:46.211   254236,),0,0,1
   11:46.386   254299,(,0,0,2
   11:46.486   254335,t,0,0,0
   11:46.567   254364,),0,0,2
   11:47.372   254654,(,0,0,1
   11:47.403   254665,N,0,0,0
   11:47.447   254681,),0,0,1
   11:47.639   254750,(,0,0,2
   11:47.744   254788,t,0,0,0
   11:47.825   254817,),0,0,2
   11:48.600   255096,(,0,0,1
   11:48.631   255107,N,0,0,0
   11:48.675   255123,),0,0,1
   11:48.861   255190,(,0,0,2
   11:48.953   255223,t,0,0,0
   11:49.036   255253,),0,0,2
   11:49.697   255491,(,0,0,1
   11:49.767   255516,N,0,0,0
   11:49.808   255531,),0,0,1
   11:49.994   255598,(,0,0,2
   11:50.094   255634,t,0,0,0
   11:50.178   255664,),0,0,2
   11:51.003   255961,(,0,0,1
   11:51.053   255979,N,0,0,0
   11:51.094   255994,),0,0,1
   11:51.272   256058,(,0,0,2
   11:51.369   256093,t,0,0,0
   11:51.447   256121,),0,0,2
   11:52.272   256418,(,0,0,1
   11:52.303   256429,N,0,0,0
   11:52.358   256449,),0,0,1
   11:52.536   256513,(,0,0,2
   11:52.631   256547,t,0,0,0
   11:52.711   256576,),0,0,2
   11:53.406   256826,(,0,0,1
   11:53.444   256840,N,0,0,0
   11:53.486   256855,),0,0,1
   11:53.658   256917,(,0,0,2
   11:53.758   256953,t,0,0,0
   11:53.839   256982,),0,0,2
   11:55.869   257713,(,0,0,1
   11:55.936   257737,N,0,0,0
   11:55.978   257752,),0,0,1
   11:56.158   257817,(,0,0,2
   11:56.258   257853,t,0,0,0
   11:56.344   257884,),0,0,2
   11:57.039   258134,(,0,0,1
   11:57.094   258154,N,0,0,0
   11:57.136   258169,),0,0,1
   11:57.317   258234,(,0,0,2
   11:57.408   258267,t,0,0,0
   11:57.492   258297,),0,0,2
   11:58.344   258604,(,0,0,1
   11:58.386   258619,N,0,0,0
   11:58.428   258634,),0,0,1
   11:58.603   258697,(,0,0,2
   11:58.703   258733,t,0,0,0
   11:58.792   258765,),0,0,2
   11:59.575   259047,(,0,0,1
   11:59.608   259059,N,0,0,0
   11:59.658   259077,),0,0,1
   11:59.844   259144,(,0,0,2
   11:59.933   259176,t,0,0,0
   12:00.028   259210,),0,0,2
   12:00.675   259443,(,0,0,1
   12:00.744   259468,N,0,0,0
   12:00.786   259483,),0,0,1
   12:00.969   259549,(,0,0,2
   12:01.064   259583,t,0,0,0
   12:01.142   259611,),0,0,2
   12:03.103   260317,(,0,0,1
   12:03.158   260337,N,0,0,0
   12:03.206   260354,),0,0,1
   12:03.367   260412,(,0,0,2
   12:03.478   260452,t,0,0,0
   12:03.558   260481,),0,0,2
   12:04.208   260715,(,0,0,1
   12:04.269   260737,N,0,0,0
   12:04.311   260752,),0,0,1
   12:04.489   260816,(,0,0,2
   12:04.594   260854,t,0,0,0
   12:04.669   260881,),0,0,2
   12:06.547   261557,(,0,0,1
   12:06.581   261569,N,0,0,0
   12:06.628   261586,),0,0,1
   12:06.786   261643,(,0,0,2
   12:06.906   261686,t,0,0,0
   12:06.983   261714,),0,0,2
   12:07.611   261940,(,0,0,1
   12:07.658   261957,N,0,0,0
   12:07.703   261973,),0,0,1
   12:07.881   262037,(,0,0,2
   12:07.983   262074,t,0,0,0
   12:08.058   262101,),0,0,2
   12:11.081   263189,(,0,0,1
   12:11.117   263202,N,0,0,0
   12:11.158   263217,),0,0,1
   12:11.325   263277,(,0,0,2
   12:11.436   263317,t,0,0,0
   12:11.522   263348,),0,0,2
   12:13.481   264053,(,0,0,1
   12:13.542   264075,N,0,0,0
   12:13.586   264091,),0,0,1
   12:13.761   264154,(,0,0,2
   12:13.864   264191,t,0,0,0
   12:13.944   264220,),0,0,2
   12:14.617   264462,(,0,0,1
   12:14.672   264482,N,0,0,0
   12:14.714   264497,),0,0,1
   12:14.892   264561,(,0,0,2
   12:14.989   264596,t,0,0,0
   12:15.067   264624,),0,0,2
   12:17.150   265374,(,0,0,1
   12:17.217   265398,N,0,0,0
   12:17.258   265413,),0,0,1
   12:17.433   265476,(,0,0,2
   12:17.539   265514,t,0,0,0
   12:17.619   265543,),0,0,2
   12:18.319   265795,(,0,0,1
   12:18.392   265821,N,0,0,0
   12:18.436   265837,),0,0,1
   12:18.628   265906,(,0,0,2
   12:18.722   265940,t,0,0,0
   12:18.811   265972,),0,0,2
   12:22.086   267151,(,0,0,1
   12:22.131   267167,N,0,0,0
   12:22.172   267182,),0,0,1
   12:22.353   267247,(,0,0,2
   12:22.450   267282,t,0,0,0
   12:22.533   267312,),0,0,2
   12:41.131   274007,(,0,0,1
   12:41.186   274027,N,0,0,0
   12:41.228   274042,),0,0,1
   12:41.414   274109,(,0,0,2
   12:41.514   274145,t,0,0,0
   12:41.600   274176,),0,0,2
   12:42.164   274379,(,0,0,1
   12:42.203   274393,N,0,0,0
   12:42.244   274408,),0,0,1
   12:42.408   274467,(,0,0,2
   12:42.519   274507,t,0,0,0
   12:42.600   274536,),0,0,2
   12:43.094   274714,(,0,0,1
   12:43.156   274736,N,0,0,0
   12:43.200   274752,),0,0,1
   12:43.369   274813,(,0,0,2
   12:43.464   274847,t,0,0,0
   12:43.539   274874,),0,0,2
   12:44.033   275052,(,0,0,1
   12:44.097   275075,N,0,0,0
   12:44.139   275090,),0,0,1
   12:44.317   275154,(,0,0,2
   12:44.417   275190,t,0,0,0
   12:44.497   275219,),0,0,2
   12:45.036   275413,(,0,0,1
   12:45.072   275426,N,0,0,0
   12:45.117   275442,),0,0,1
   12:45.286   275503,(,0,0,2
   12:45.386   275539,t,0,0,0
   12:45.467   275568,),0,0,2
   12:46.039   275774,(,0,0,1
   12:46.069   275785,N,0,0,0
   12:46.108   275799,),0,0,1
   12:46.278   275860,(,0,0,2
   12:46.383   275898,t,0,0,0
   12:46.467   275928,),0,0,2
   12:47.331   276239,(,0,0,1
   12:47.394   276262,N,0,0,0
   12:47.436   276277,),0,0,1
   12:47.625   276345,(,0,0,2
   12:47.714   276377,t,0,0,0
   12:47.800   276408,),0,0,2
   12:48.406   276626,(,0,0,1
   12:48.467   276648,N,0,0,0
   12:48.506   276662,),0,0,1
   12:48.675   276723,(,0,0,2
   12:48.769   276757,t,0,0,0
   12:48.853   276787,),0,0,2
   12:49.503   277021,(,0,0,1
   12:49.536   277033,N,0,0,0
   12:49.583   277050,),0,0,1
   12:49.756   277112,(,0,0,2
   12:49.864   277151,t,0,0,0
   12:49.944   277180,),0,0,2
   12:50.567   277404,(,0,0,1
   12:50.642   277431,N,0,0,0
   12:50.683   277446,),0,0,1
   12:50.867   277512,(,0,0,2
   12:50.958   277545,t,0,0,0
   12:51.036   277573,),0,0,2
   12:51.839   277862,(,0,0,1
   12:51.883   277878,N,0,0,0
   12:51.925   277893,),0,0,1
   12:52.114   277961,(,0,0,2
   12:52.217   277998,t,0,0,0
   12:52.300   278028,),0,0,2
   12:53.103   278317,(,0,0,1
   12:53.156   278336,N,0,0,0
   12:53.200   278352,),0,0,1
   12:53.386   278419,(,0,0,2
   12:53.475   278451,t,0,0,0
   12:53.561   278482,),0,0,2
   12:54.272   278738,(,0,0,1
   12:54.342   278763,N,0,0,0
   12:54.383   278778,),0,0,1
   12:54.569   278845,(,0,0,2
   12:54.675   278883,t,0,0,0
   12:54.769   278917,),0,0,2
   12:55.536   279193,(,0,0,1
   12:55.600   279216,N,0,0,0
   12:55.642   279231,),0,0,1
   12:55.817   279294,(,0,0,2
   12:55.919   279331,t,0,0,0
   12:56.003   279361,),0,0,2
   12:57.936   280057,(,0,0,1
   12:58.000   280080,N,0,0,0
   12:58.042   280095,),0,0,1
   12:58.225   280161,(,0,0,2
   12:58.325   280197,t,0,0,0
   12:58.403   280225,),0,0,2
   12:59.178   280504,(,0,0,1
   12:59.225   280521,N,0,0,0
   12:59.267   280536,),0,0,1
   12:59.439   280598,(,0,0,2
   12:59.539   280634,t,0,0,0
   12:59.622   280664,),0,0,2
   13:01.608   281379,(,0,0,1
   13:01.669   281401,N,0,0,0
   13:01.711   281416,),0,0,1
   13:01.889   281480,(,0,0,2
   13:01.989   281516,t,0,0,0
   13:02.072   281546,),0,0,2
   13:02.997   281879,(,0,0,1
   13:03.028   281890,N,0,0,0
   13:03.067   281904,),0,0,1
   13:03.250   281970,(,0,0,2
   13:03.339   282002,t,0,0,0
   13:03.425   282033,),0,0,2
   13:05.614   282821,(,0,0,1
   13:05.661   282838,N,0,0,0
   13:05.706   282854,),0,0,1
   13:05.883   282918,(,0,0,2
   13:05.978   282952,t,0,0,0
   13:06.061   282982,),0,0,2
   13:09.583   284250,(,0,0,1
   13:09.619   284263,N,0,0,0
   13:09.667   284280,),0,0,1
   13:09.825   284337,(,0,0,2
   13:09.942   284379,t,0,0,0
   13:10.022   284408,),0,0,2
   13:10.883   284718,(,0,0,1
   13:10.939   284738,N,0,0,0
   13:10.981   284753,),0,0,1
   13:11.153   284815,(,0,0,2
   13:11.258   284853,t,0,0,0
   13:11.344   284884,),0,0,2
   13:13.439   285638,(,0,0,1
   13:13.503   285661,N,0,0,0
   13:13.547   285677,),0,0,1
   13:13.728   285742,(,0,0,2
   13:13.828   285778,t,0,0,0
   13:13.911   285808,),0,0,2
   13:17.219   286999,(,0,0,1
   13:17.250   287010,N,0,0,0
   13:17.308   287031,),0,0,1
   13:17.456   287084,(,0,0,2
   13:17.575   287127,t,0,0,0
   13:17.661   287158,),0,0,2
   13:21.025   288369,(,0,0,1
   13:21.056   288380,N,0,0,0
   13:21.111   288400,),0,0,1
   13:21.286   288463,(,0,0,2
   13:21.381   288497,t,0,0,0
   13:21.458   288525,),0,0,2
   13:24.622   289664,(,0,0,1
   13:24.672   289682,N,0,0,0
   13:24.717   289698,),0,0,1
   13:24.889   289760,(,0,0,2
   13:24.994   289798,t,0,0,0
   13:25.072   289826,),0,0,2
   13:27.786   290803,(,0,0,1
   13:27.836   290821,N,0,0,0
   13:27.881   290837,),0,0,1
   13:28.050   290898,(,0,0,2
   13:28.153   290935,t,0,0,0
   13:28.231   290963,),0,0,2
   13:28.761   291154,(,0,0,1
   13:28.825   291177,N,0,0,0
   13:28.869   291193,),0,0,1
   13:29.039   291254,(,0,0,2
   13:29.136   291289,t,0,0,5
   13:29.503   291421,t,0,0,5
   13:29.589   291452,),0,0,2
   13:30.694   291850,(,0,0,1
   13:30.753   291871,N,0,0,0
   13:30.794   291886,),0,0,1
   13:30.978   291952,(,0,0,2
   13:31.069   291985,t,0,0,0
   13:31.164   292019,),0,0,2
   13:31.761   292234,(,0,0,1
   13:31.800   292248,N,0,0,0
   13:31.842   292263,),0,0,1
   13:32.014   292325,(,0,0,2
   13:32.117   292362,t,0,0,0
   13:32.197   292391,),0,0,2
   13:34.631   293267,(,0,0,1
   13:34.672   293282,N,0,0,0
   13:34.717   293298,),0,0,1
   13:34.897   293363,(,0,0,2
   13:34.997   293399,t,0,0,0
   13:35.078   293428,),0,0,2
   13:36.028   293770,(,0,0,1
   13:36.097   293795,N,0,0,0
   13:36.136   293809,),0,0,1
   13:36.319   293875,(,0,0,2
   13:36.433   293916,t,0,0,0
   13:36.511   293944,),0,0,2
   13:37.367   294252,(,0,0,1
   13:37.422   294272,N,0,0,0
   13:37.467   294288,),0,0,1
   13:37.664   294359,(,0,0,2
   13:37.756   294392,t,0,0,0
   13:37.839   294422,),0,0,2
   13:38.597   294695,(,0,0,1
   13:38.658   294717,N,0,0,0
   13:38.703   294733,),0,0,1
   13:38.878   294796,(,0,0,2
   13:38.989   294836,t,0,0,0
   13:39.069   294865,),0,0,2
   13:41.164   295619,(,0,0,1
   13:41.200   295632,N,0,0,0
   13:41.256   295652,),0,0,1
   13:41.428   295714,(,0,0,2
   13:41.533   295752,t,0,0,5
   13:41.658   295797,t,0,0,5
   13:41.731   295823,),0,0,2
   13:42.383   296058,(,0,0,1
   13:42.417   296070,N,0,0,0
   13:42.458   296085,),0,0,1
   13:42.650   296154,(,0,0,2
   13:42.739   296186,t,0,0,0
   13:42.817   296214,),0,0,2
   13:44.800   296928,(,0,0,1
   13:44.872   296954,N,0,0,0
   13:44.931   296975,),0,0,1
   13:45.103   297037,(,0,0,2
   13:45.197   297071,t,0,0,0
   13:45.281   297101,),0,0,2
   13:47.336   297841,(,0,0,1
   13:47.408   297867,N,0,0,0
   13:47.433   297876,),0,0,1
   13:47.617   297942,(,0,0,2
   13:47.736   297985,t,0,0,0
   13:47.814   298013,),0,0,2
   15:38.825   337977,(,0,0,1
   15:38.892   338001,N,0,0,0
   15:38.917   338010,),0,0,1
   15:39.119   338083,(,0,0,2
   15:39.217   338118,t,0,0,0
   15:39.292   338145,),0,0,2
   15:40.125   338445,(,0,0,1
   15:40.175   338463,N,0,0,0
   15:40.200   338472,),0,0,1
   15:40.400   338544,(,0,0,2
   15:40.503   338581,t,0,0,0
   15:40.583   338610,),0,0,2
   15:41.428   338914,(,0,0,1
   15:41.469   338929,N,0,0,0
   15:41.494   338938,),0,0,1
   15:41.700   339012,(,0,0,2
   15:41.800   339048,t,0,0,0
   15:41.881   339077,),0,0,2
   15:42.594   339334,(,0,0,1
   15:42.642   339351,N,0,0,0
   15:42.667   339360,),0,0,1
   15:42.858   339429,(,0,0,2
   15:42.958   339465,t,0,0,0
   15:43.042   339495,),0,0,2
   15:43.900   339804,(,0,0,1
   15:43.947   339821,N,0,0,0
   15:43.972   339830,),0,0,1
   15:44.172   339902,(,0,0,2
   15:44.275   339939,t,0,0,0
   15:44.356   339968,),0,0,2
   15:45.161   340258,(,0,0,1
   15:45.208   340275,N,0,0,0
   15:45.233   340284,),0,0,1
   15:45.439   340358,(,0,0,2
   15:45.536   340393,t,0,0,0
   15:45.622   340424,),0,0,2
   15:46.300   340668,(,0,0,1
   15:46.331   340679,N,0,0,0
   15:46.358   340689,),0,0,1
   15:46.528   340750,(,0,0,2
   15:46.653   340795,t,0,0,0
   15:46.733   340824,),0,0,2
   15:47.497   341099,(,0,0,1
   15:47.542   341115,N,0,0,0
   15:47.567   341124,),0,0,1
   15:47.761   341194,(,0,0,2
   15:47.858   341229,t,0,0,0
   15:47.936   341257,),0,0,2
   15:48.800   341568,(,0,0,1
   15:48.853   341587,N,0,0,0
   15:48.878   341596,),0,0,1
   15:49.086   341671,(,0,0,2
   15:49.178   341704,t,0,0,0
   15:49.256   341732,),0,0,2
   15:49.969   341989,(,0,0,1
   15:50.014   342005,N,0,0,0
   15:50.039   342014,),0,0,1
   15:50.228   342082,(,0,0,2
   15:50.322   342116,t,0,0,0
   15:50.397   342143,),0,0,2
   15:51.100   342396,(,0,0,1
   15:51.153   342415,N,0,0,0
   15:51.178   342424,),0,0,1
   15:51.372   342494,(,0,0,2
   15:51.469   342529,t,0,0,0
   15:51.550   342558,),0,0,2
   15:52.308   342831,(,0,0,1
   15:52.381   342857,N,0,0,0
   15:52.406   342866,),0,0,1
   15:52.597   342935,(,0,0,2
   15:52.697   342971,t,0,0,0
   15:52.783   343002,),0,0,2
   15:53.506   343262,(,0,0,1
   15:53.550   343278,N,0,0,0
   15:53.575   343287,),0,0,1
   15:53.775   343359,(,0,0,2
   15:53.881   343397,t,0,0,0
   15:53.967   343428,),0,0,2
   15:54.636   343669,(,0,0,1
   15:54.678   343684,N,0,0,0
   15:54.703   343693,),0,0,1
   15:54.883   343758,(,0,0,2
   15:54.994   343798,t,0,0,0
   15:55.078   343828,),0,0,2
   15:55.878   344116,(,0,0,1
   15:55.950   344142,N,0,0,0
   15:55.975   344151,),0,0,1
   15:56.172   344222,(,0,0,2
   15:56.292   344265,t,0,0,0
   15:56.372   344294,),0,0,2
   15:57.164   344579,(,0,0,1
   15:57.194   344590,N,0,0,0
   15:57.222   344600,),0,0,1
   15:57.433   344676,(,0,0,2
   15:57.525   344709,t,0,0,0
   15:57.600   344736,),0,0,2
   15:58.250   344970,(,0,0,1
   15:58.314   344993,N,0,0,0
   15:58.339   345002,),0,0,1
   15:58.533   345072,(,0,0,2
   15:58.650   345114,t,0,0,0
   15:58.742   345147,),0,0,2
   15:59.514   345425,(,0,0,1
   15:59.583   345450,N,0,0,0
   15:59.608   345459,),0,0,1
   15:59.800   345528,(,0,0,2
   15:59.906   345566,t,0,0,0
   15:59.994   345598,),0,0,2
   16:00.764   345875,(,0,0,1
   16:00.794   345886,N,0,0,0
   16:00.819   345895,),0,0,1
   16:01.008   345963,(,0,0,2
   16:01.125   346005,t,0,0,0
   16:01.208   346035,),0,0,2
   16:01.878   346276,(,0,0,1
   16:01.900   346284,N,0,0,0
   16:01.925   346293,),0,0,1
   16:02.117   346362,(,0,0,2
   16:02.219   346399,t,0,0,0
   16:02.300   346428,),0,0,2
   16:02.981   346673,(,0,0,1
   16:03.039   346694,N,0,0,0
   16:03.064   346703,),0,0,1
   16:03.244   346768,(,0,0,2
   16:03.358   346809,t,0,0,0
   16:03.442   346839,),0,0,2
   16:04.178   347104,(,0,0,1
   16:04.208   347115,N,0,0,0
   16:04.233   347124,),0,0,1
   16:04.428   347194,(,0,0,2
   16:04.519   347227,t,0,0,0
   16:04.603   347257,),0,0,2
   16:05.247   347489,(,0,0,1
   16:05.275   347499,N,0,0,0
   16:05.303   347509,),0,0,1
   16:05.494   347578,(,0,0,2
   16:05.592   347613,t,0,0,0
   16:05.672   347642,),0,0,2
   16:06.308   347871,(,0,0,1
   16:06.342   347883,N,0,0,0
   16:06.367   347892,),0,0,1
   16:06.558   347961,(,0,0,2
   16:06.664   347999,t,0,0,0
   16:06.747   348029,),0,0,2
   16:07.481   348293,(,0,0,1
   16:07.511   348304,N,0,0,0
   16:07.536   348313,),0,0,1
   16:07.736   348385,(,0,0,2
   16:07.833   348420,t,0,0,0
   16:07.917   348450,),0,0,2
   16:08.650   348714,(,0,0,1
   16:08.686   348727,N,0,0,0
   16:08.711   348736,),0,0,1
   16:08.908   348807,(,0,0,2
   16:09.019   348847,t,0,0,0
   16:09.108   348879,),0,0,2
   16:09.750   349110,(,0,0,1
   16:09.775   349119,N,0,0,0
   16:09.800   349128,),0,0,1
   16:09.994   349198,(,0,0,2
   16:10.094   349234,t,0,0,0
   16:10.175   349263,),0,0,2
   16:10.983   349554,(,0,0,1
   16:11.017   349566,N,0,0,0
   16:11.042   349575,),0,0,1
   16:11.239   349646,(,0,0,2
   16:11.342   349683,t,0,0,0
   16:11.439   349718,),0,0,2
   16:12.253   350011,(,0,0,1
   16:12.286   350023,N,0,0,0
   16:12.314   350033,),0,0,1
   16:12.525   350109,(,0,0,2
   16:12.611   350140,t,0,0,0
   16:12.703   350173,),0,0,2
   16:13.389   350420,(,0,0,1
   16:13.442   350439,N,0,0,0
   16:13.467   350448,),0,0,1
   16:13.644   350512,(,0,0,2
   16:13.756   350552,t,0,0,0
   16:13.844   350584,),0,0,2
   16:14.683   350886,(,0,0,1
   16:14.717   350898,N,0,0,0
   16:14.742   350907,),0,0,1
   16:14.939   350978,(,0,0,2
   16:15.036   351013,t,0,0,0
   16:15.119   351043,),0,0,2
   16:15.953   351343,(,0,0,1
   16:16.011   351364,N,0,0,0
   16:16.039   351374,),0,0,1
   16:16.242   351447,(,0,0,2
   16:16.333   351480,t,0,0,0
   16:16.422   351512,),0,0,2
   16:17.153   351775,(,0,0,1
   16:17.178   351784,N,0,0,0
   16:17.203   351793,),0,0,1
   16:17.414   351869,(,0,0,2
   16:17.492   351897,t,0,0,0
   16:17.581   351929,),0,0,2
   16:18.422   352232,(,0,0,1
   16:18.461   352246,N,0,0,0
   16:18.486   352255,),0,0,1
   16:18.664   352319,(,0,0,2
   16:18.781   352361,t,0,0,0
   16:18.856   352388,),0,0,2
   16:19.728   352702,(,0,0,1
   16:19.769   352717,N,0,0,0
   16:19.794   352726,),0,0,1
   16:19.992   352797,(,0,0,2
   16:20.092   352833,t,0,0,0
   16:20.169   352861,),0,0,2
   16:20.828   353098,(,0,0,1
   16:20.906   353126,N,0,0,0
   16:20.931   353135,),0,0,1
   16:21.111   353200,(,0,0,2
   16:21.217   353238,t,0,0,0
   16:21.297   353267,),0,0,2
   16:22.125   353565,(,0,0,1
   16:22.169   353581,N,0,0,0
   16:22.194   353590,),0,0,1
   16:22.392   353661,(,0,0,2
   16:22.494   353698,t,0,0,0
   16:22.583   353730,),0,0,2
   16:23.397   354023,(,0,0,1
   16:23.436   354037,N,0,0,0
   16:23.461   354046,),0,0,1
   16:23.650   354114,(,0,0,2
   16:23.758   354153,t,0,0,0
   16:23.842   354183,),0,0,2
   16:24.492   354417,(,0,0,1
   16:24.539   354434,N,0,0,0
   16:24.564   354443,),0,0,1
   16:24.769   354517,(,0,0,2
   16:24.867   354552,t,0,0,0
   16:24.950   354582,),0,0,2
   16:25.631   354827,(,0,0,1
   16:25.708   354855,N,0,0,0
   16:25.733   354864,),0,0,1
   16:25.931   354935,(,0,0,2
   16:26.025   354969,t,0,0,0
   16:26.108   354999,),0,0,2
   16:26.900   355284,(,0,0,1
   16:26.947   355301,N,0,0,0
   16:26.972   355310,),0,0,1
   16:27.189   355388,(,0,0,2
   16:27.281   355421,t,0,0,0
   16:27.369   355453,),0,0,2
   16:28.031   355691,(,0,0,1
   16:28.078   355708,N,0,0,0
   16:28.103   355717,),0,0,1
   16:28.286   355783,(,0,0,2
   16:28.400   355824,t,0,0,0
   16:28.481   355853,),0,0,2
   16:29.236   356125,(,0,0,1
   16:29.308   356151,N,0,0,0
   16:29.333   356160,),0,0,1
   16:29.531   356231,(,0,0,2
   16:29.642   356271,t,0,0,0
   16:29.725   356301,),0,0,2
   16:30.564   356603,(,0,0,1
   16:30.622   356624,N,0,0,0
   16:30.647   356633,),0,0,1
   16:30.836   356701,(,0,0,2
   16:30.944   356740,t,0,0,0
   16:31.031   356771,),0,0,2
   16:31.736   357025,(,0,0,1
   16:31.769   357037,N,0,0,0
   16:31.797   357047,),0,0,1
   16:32.003   357121,(,0,0,2
   16:32.100   357156,t,0,0,0
   16:32.183   357186,),0,0,2
   16:32.933   357456,(,0,0,1
   16:32.964   357467,N,0,0,0
   16:32.989   357476,),0,0,1
   16:33.178   357544,(,0,0,2
   16:33.283   357582,t,0,0,0
   16:33.361   357610,),0,0,2
   16:34.158   357897,(,0,0,1
   16:34.192   357909,N,0,0,0
   16:34.217   357918,),0,0,1
   16:34.408   357987,(,0,0,2
   16:34.517   358026,t,0,0,0
   16:34.608   358059,),0,0,2
   16:35.339   358322,(,0,0,1
   16:35.417   358350,N,0,0,0
   16:35.444   358360,),0,0,1
   16:35.639   358430,(,0,0,2
   16:35.742   358467,t,0,0,0
   16:35.819   358495,),0,0,2
   16:36.547   358757,(,0,0,1
   16:36.581   358769,N,0,0,0
   16:36.606   358778,),0,0,1
   16:36.789   358844,(,0,0,2
   16:36.889   358880,t,0,0,0
   16:36.972   358910,),0,0,2
   16:37.808   359211,(,0,0,1
   16:37.856   359228,N,0,0,0
   16:37.881   359237,),0,0,1
   16:38.075   359307,(,0,0,2
   16:38.175   359343,t,0,0,0
   16:38.256   359372,),0,0,2
   16:39.078   359668,(,0,0,1
   16:39.106   359678,N,0,0,0
   16:39.131   359687,),0,0,1
   16:39.336   359761,(,0,0,2
   16:39.428   359794,t,0,0,0
   16:39.514   359825,),0,0,2
   16:40.214   360077,(,0,0,1
   16:40.261   360094,N,0,0,0
   16:40.289   360104,),0,0,1
   16:40.475   360171,(,0,0,2
   16:40.589   360212,t,0,0,0
   16:40.672   360242,),0,0,2
   16:41.503   360541,(,0,0,1
   16:41.536   360553,N,0,0,0
   16:41.561   360562,),0,0,1
   16:41.750   360630,(,0,0,2
   16:41.861   360670,t,0,0,0
   16:41.942   360699,),0,0,2
   16:42.775   360999,(,0,0,1
   16:42.808   361011,N,0,0,0
   16:42.833   361020,),0,0,1
   16:43.042   361095,(,0,0,2
   16:43.133   361128,t,0,0,0
   16:43.225   361161,),0,0,2
   16:43.881   361397,(,0,0,1
   16:43.925   361413,N,0,0,0
   16:43.950   361422,),0,0,1
   16:44.161   361498,(,0,0,2
   16:44.258   361533,t,0,0,0
   16:44.339   361562,),0,0,2
   16:45.069   361825,(,0,0,1
   16:45.100   361836,N,0,0,0
   16:45.125   361845,),0,0,1
   16:45.333   361920,(,0,0,2
   16:45.433   361956,t,0,0,0
   16:45.517   361986,),0,0,2
   16:46.217   362238,(,0,0,1
   16:46.289   362264,N,0,0,0
   16:46.314   362273,),0,0,1
   16:46.508   362343,(,0,0,2
   16:46.614   362381,t,0,0,0
   16:46.700   362412,),0,0,2
   16:47.378   362656,(,0,0,1
   16:47.400   362664,N,0,0,0
   16:47.428   362674,),0,0,1
   16:47.628   362746,(,0,0,2
   16:47.725   362781,t,0,0,0
   16:47.808   362811,),0,0,2
   16:48.511   363064,(,0,0,1
   16:48.542   363075,N,0,0,0
   16:48.567   363084,),0,0,1
   16:48.750   363150,(,0,0,2
   16:48.856   363188,t,0,0,0
   16:48.942   363219,),0,0,2
   16:49.686   363487,(,0,0,1
   16:49.744   363508,N,0,0,0
   16:49.769   363517,),0,0,1
   16:49.958   363585,(,0,0,2
   16:50.061   363622,t,0,0,0
   16:50.144   363652,),0,0,2
   16:50.853   363907,(,0,0,1
   16:50.911   363928,N,0,0,0
   16:50.939   363938,),0,0,1
   16:51.125   364005,(,0,0,2
   16:51.233   364044,t,0,0,0
   16:51.319   364075,),0,0,2
   16:51.950   364302,(,0,0,1
   16:51.994   364318,N,0,0,0
   16:52.022   364328,),0,0,1
   16:52.203   364393,(,0,0,2
   16:52.308   364431,t,0,0,0
   16:52.386   364459,),0,0,2
   16:53.086   364711,(,0,0,1
   16:53.131   364727,N,0,0,0
   16:53.156   364736,),0,0,1
   16:53.350   364806,(,0,0,2
   16:53.458   364845,t,0,0,0
   16:53.544   364876,),0,0,2
   16:55.322   365516,(,0,0,1
   16:55.386   365539,N,0,0,0
   16:55.414   365549,),0,0,1
   16:55.603   365617,(,0,0,2
   16:55.711   365656,t,0,0,0
   16:55.794   365686,),0,0,2
   16:59.161   366898,(,0,0,1
   16:59.186   366907,N,0,0,0
   16:59.214   366917,),0,0,1
   16:59.417   366990,(,0,0,2
   16:59.508   367023,t,0,0,0
   16:59.589   367052,),0,0,2
   17:02.786   368203,(,0,0,1
   17:02.817   368214,N,0,0,0
   17:02.842   368223,),0,0,1
   17:03.028   368290,(,0,0,2
   17:03.144   368332,t,0,0,0
   17:03.228   368362,),0,0,2
   17:06.333   369480,(,0,0,1
   17:06.408   369507,N,0,0,0
   17:06.436   369517,),0,0,1
   17:06.628   369586,(,0,0,2
   17:06.733   369624,t,0,0,0
   17:06.808   369651,),0,0,2
   17:10.992   371157,(,0,0,1
   17:11.022   371168,N,0,0,0
   17:11.047   371177,),0,0,1
   17:11.244   371248,(,0,0,2
   17:11.350   371286,t,0,0,0
   17:11.436   371317,),0,0,2
   17:14.572   372446,(,0,0,1
   17:14.622   372464,N,0,0,0
   17:14.647   372473,),0,0,1
   17:14.847   372545,(,0,0,2
   17:14.942   372579,t,0,0,0
   17:15.022   372608,),0,0,2
   17:18.206   373754,(,0,0,1
   17:18.236   373765,N,0,0,0
   17:18.264   373775,),0,0,1
   17:18.453   373843,(,0,0,2
   17:18.556   373880,t,0,0,0
   17:18.639   373910,),0,0,2
   17:19.378   374176,(,0,0,1
   17:19.428   374194,N,0,0,0
   17:19.453   374203,),0,0,1
   17:19.656   374276,(,0,0,2
   17:19.747   374309,t,0,0,0
   17:19.833   374340,),0,0,2
   17:21.714   375017,(,0,0,1
   17:21.792   375045,N,0,0,0
   17:21.819   375055,),0,0,1
   17:22.017   375126,(,0,0,2
   17:22.122   375164,t,0,0,0
   17:22.206   375194,),0,0,2
   17:23.017   375486,(,0,0,1
   17:23.069   375505,N,0,0,0
   17:23.097   375515,),0,0,1
   17:23.294   375586,(,0,0,2
   17:23.397   375623,t,0,0,0
   17:23.475   375651,),0,0,2
   17:24.314   375953,(,0,0,1
   17:24.367   375972,N,0,0,0
   17:24.394   375982,),0,0,1
   17:24.583   376050,(,0,0,2
   17:24.694   376090,t,0,0,0
   17:24.778   376120,),0,0,2
   17:25.517   376386,(,0,0,1
   17:25.542   376395,N,0,0,0
   17:25.569   376405,),0,0,1
   17:25.758   376473,(,0,0,2
   17:25.864   376511,t,0,0,0
   17:25.944   376540,),0,0,2
   17:26.700   376812,(,0,0,1
   17:26.733   376824,N,0,0,0
   17:26.758   376833,),0,0,1
   17:26.947   376901,(,0,0,2
   17:27.067   376944,t,0,0,0
   17:27.150   376974,),0,0,2
   17:27.847   377225,(,0,0,1
   17:27.881   377237,N,0,0,0
   17:27.908   377247,),0,0,1
   17:28.108   377319,(,0,0,2
   17:28.197   377351,t,0,0,0
   17:28.278   377380,),0,0,2
   17:28.817   377574,(,0,0,1
   17:28.850   377586,N,0,0,0
   17:28.875   377595,),0,0,1
   17:29.067   377664,(,0,0,2
   17:29.167   377700,t,0,0,0
   17:29.247   377729,),0,0,2
   17:29.822   377936,(,0,0,1
   17:29.858   377949,N,0,0,0
   17:29.883   377958,),0,0,1
   17:30.072   378026,(,0,0,2
   17:30.169   378061,t,0,0,0
   17:30.250   378090,),0,0,2
   17:30.761   378274,(,0,0,1
   17:30.825   378297,N,0,0,0
   17:30.850   378306,),0,0,1
   17:31.047   378377,(,0,0,2
   17:31.136   378409,t,0,0,0
   17:31.217   378438,),0,0,2
   17:31.686   378607,(,0,0,1
   17:31.722   378620,N,0,0,0
   17:31.750   378630,),0,0,1
   17:31.953   378703,(,0,0,2
   17:32.050   378738,t,0,0,0
   17:32.133   378768,),0,0,2
   17:32.619   378943,(,0,0,1
   17:32.667   378960,N,0,0,0
   17:32.692   378969,),0,0,1
   17:32.886   379039,(,0,0,2
   17:32.978   379072,t,0,0,0
   17:33.058   379101,),0,0,2
   17:33.553   379279,(,0,0,1
   17:33.600   379296,N,0,0,0
   17:33.625   379305,),0,0,1
   17:33.822   379376,(,0,0,2
   17:33.917   379410,t,0,0,0
   17:33.994   379438,),0,0,2
   17:34.650   379674,(,0,0,1
   17:34.683   379686,N,0,0,0
   17:34.708   379695,),0,0,1
   17:34.911   379768,(,0,0,2
   17:35.008   379803,t,0,0,0
   17:35.094   379834,),0,0,2
   17:35.725   380061,(,0,0,1
   17:35.789   380084,N,0,0,0
   17:35.817   380094,),0,0,1
   17:36.008   380163,(,0,0,2
   17:36.111   380200,t,0,0,0
   17:36.186   380227,),0,0,2
   17:38.561   381082,(,0,0,1
   17:38.594   381094,N,0,0,0
   17:38.619   381103,),0,0,1
   17:38.792   381165,(,0,0,2
   17:38.917   381210,t,0,0,5
   17:39.033   381252,t,0,0,5
   17:39.106   381278,),0,0,2
   17:42.561   382522,(,0,0,1
   17:42.603   382537,N,0,0,0
   17:42.631   382547,),0,0,1
   17:42.828   382618,(,0,0,2
   17:42.931   382655,t,0,0,5
   17:43.042   382695,t,0,0,5
   17:43.128   382726,),0,0,2
   17:43.864   382991,(,0,0,1
   17:43.908   383007,N,0,0,0
   17:43.933   383016,),0,0,1
   17:44.128   383086,(,0,0,2
   17:44.236   383125,t,0,0,0
   17:44.322   383156,),0,0,2
   17:46.467   383928,(,0,0,1
   17:46.503   383941,N,0,0,0
   17:46.525   383949,),0,0,1
   17:46.706   384014,(,0,0,2
   17:46.825   384057,t,0,0,0
   17:46.900   384084,),0,0,2
   17:47.669   384361,(,0,0,1
   17:47.736   384385,N,0,0,0
   17:47.761   384394,),0,0,1
   17:47.950   384462,(,0,0,2
   17:48.061   384502,t,0,0,0
   17:48.139   384530,),0,0,2
   18:24.389   397580,(,0,0,1
   18:24.511   397624,N,0,0,0
   18:24.692   397689,),0,0,1
   18:25.294   397906,),0,0,2
   18:25.339   397922,t,0,0,0
   18:25.383   397938,(,0,0,2
   18:25.397   397943,(,0,0,0
   18:25.422   397952,p,0,0,0
   18:25.450   397962,),0,0,0
   18:25.578   398008,(,0,0,1
   18:25.739   398066,N,0,0,0
   18:25.861   398110,),0,0,1
   18:26.431   398315,(,0,0,2
   18:26.461   398326,t,0,0,0
   18:26.494   398338,),0,0,2
   18:26.686   398407,(,0,0,1
   18:26.781   398441,N,0,0,0
   18:26.925   398493,),0,0,1
   18:27.431   398675,(,0,0,2
   18:27.464   398687,t,0,0,0
   18:27.497   398699,),0,0,2
   18:27.658   398757,(,0,0,1
   18:27.781   398801,N,0,0,0
   18:27.867   398832,),0,0,1
   18:28.422   399032,(,0,0,2
   18:28.453   399043,t,0,0,0
   18:28.489   399056,),0,0,2
   18:28.650   399114,(,0,0,1
   18:28.778   399160,N,0,0,0
   18:28.928   399214,),0,0,1
   18:29.397   399383,(,0,0,2
   18:29.428   399394,t,0,0,0
   18:29.458   399405,),0,0,2
   18:29.631   399467,(,0,0,1
   18:29.742   399507,N,0,0,0
   18:29.864   399551,),0,0,1
   18:30.319   399715,t,0,0,2
   18:30.403   399745,),0,0,2
   18:30.586   399811,(,0,0,1
   18:30.717   399858,N,0,0,0
   18:30.833   399900,),0,0,1
   18:31.314   400073,(,0,0,2
   18:31.403   400105,t,0,0,1
   18:31.511   400144,),0,0,2
   18:31.683   400206,(,0,0,1
   18:31.847   400265,N,0,0,0
   18:31.994   400318,),0,0,1
   18:32.408   400467,(,0,0,2
   18:32.458   400485,t,0,0,0
   18:32.508   400503,),0,0,2
   18:32.639   400550,(,0,0,0
   18:32.664   400559,p,0,0,0
   18:32.692   400569,),0,0,0
   18:32.864   400631,(,0,0,1
   18:32.989   400676,N,0,0,0
   18:33.069   400705,),0,0,1
   18:33.242   400767,(,0,0,2
   18:33.456   400844,t,0,0,1
   18:33.489   400856,),0,0,2
   18:34.128   401086,(,0,0,0
   18:34.156   401096,p,0,0,0
   18:34.183   401106,),0,0,0
   18:34.367   401172,(,0,0,1
