Elapsedtime,sample,Type,Sub,Chan,Num
0:00.444,160,(,0,0,0
0:00.508,183,p,0,0,0
0:00.561,202,),0,0,0
0:00.589,212,(,0,0,1
0:00.672,242,N,0,0,0
0:00.753,271,),0,0,1
0:00.881,317,(,0,0,2
0:00.958,345,t,0,0,4
0:01.075,387,t,0,0,4
0:01.142,411,),0,0,2
0:01.842,663,(,0,0,1
0:01.919,691,N,0,0,0
0:01.989,716,),0,0,1
0:02.081,749,(,0,0,2
0:02.178,784,t,0,0,4
0:02.283,822,t,0,0,4
0:02.358,849,),0,0,2
0:02.903,1045,(,0,0,0
0:02.950,1062,p,0,0,0
0:03.006,1082,),0,0,0
0:03.031,1091,(,0,0,1
0:03.103,1117,N,0,0,0
0:03.178,1144,),0,0,1
0:03.256,1172,(,0,0,2
0:03.383,1218,t,0,0,4
0:03.489,1256,t,0,0,4
0:03.558,1281,),0,0,2
0:04.094,1474,(,0,0,0
0:04.147,1493,p,0,0,0
0:04.203,1513,),0,0,0
0:04.231,1523,(,0,0,1
0:04.308,1551,N,0,0,0
0:04.386,1579,),0,0,1
0:04.483,1614,(,0,0,2
0:04.594,1654,t,0,0,4
0:04.706,1694,t,0,0,4
0:04.786,1723,),0,0,2
0:05.442,1959,(,0,0,1
0:05.522,1988,N,0,0,0
0:05.586,2011,),0,0,1
0:05.686,2047,(,0,0,2
0:05.797,2087,t,0,0,4
0:05.903,2125,t,0,0,4
0:05.972,2150,),0,0,2
0:06.708,2415,(,0,0,1
0:06.783,2442,N,0,0,0
0:06.853,2467,),0,0,1
0:06.950,2502,(,0,0,2
0:07.056,2540,t,0,0,4
0:07.167,2580,t,0,0,4
0:07.250,2610,),0,0,2
0:07.803,2809,(,0,0,0
0:07.844,2824,p,0,0,0
0:07.900,2844,),0,0,0
0:07.928,2854,(,0,0,1
0:08.011,2884,N,0,0,0
0:08.083,2910,),0,0,1
0:08.192,2949,(,0,0,2
0:08.297,2987,t,0,0,4
0:08.411,3028,t,0,0,4
0:08.486,3055,),0,0,2
0:09.108,3279,(,0,0,1
0:09.183,3306,N,0,0,0
0:09.253,3331,),0,0,1
0:09.356,3368,(,0,0,2
0:09.458,3405,t,0,0,4
0:09.564,3443,t,0,0,4
0:09.642,3471,),0,0,2
0:10.181,3665,(,0,0,0
0:10.233,3684,p,0,0,0
0:10.289,3704,),0,0,0
0:10.317,3714,(,0,0,1
0:10.397,3743,N,0,0,0
0:10.458,3765,),0,0,1
0:10.561,3802,(,0,0,2
0:10.669,3841,t,0,0,4
0:10.775,3879,t,0,0,4
0:10.844,3904,),0,0,2
0:11.467,4128,(,0,0,1
0:11.539,4154,N,0,0,0
0:11.611,4180,),0,0,1
0:11.714,4217,(,0,0,2
0:11.822,4256,t,0,0,4
0:11.933,4296,t,0,0,4
0:12.011,4324,),0,0,2
0:12.678,4564,(,0,0,1
0:12.758,4593,N,0,0,0
0:12.822,4616,),0,0,1
0:12.911,4648,(,0,0,2
0:13.036,4693,t,0,0,4
0:13.144,4732,t,0,0,4
0:13.211,4756,),0,0,2
0:13.850,4986,(,0,0,1
0:13.931,5015,N,0,0,0
0:13.994,5038,),0,0,1
0:14.117,5082,(,0,0,2
0:14.189,5108,t,0,0,4
0:14.300,5148,t,0,0,4
0:14.375,5175,),0,0,2
0:15.075,5427,(,0,0,1
0:15.156,5456,N,0,0,0
0:15.219,5479,),0,0,1
0:15.344,5524,(,0,0,2
0:15.431,5555,t,0,0,4
0:15.550,5598,t,0,0,4
0:15.619,5623,),0,0,2
0:16.244,5848,(,0,0,1
0:16.325,5877,N,0,0,0
0:16.394,5902,),0,0,1
0:16.483,5934,(,0,0,2
0:16.597,5975,t,0,0,4
0:16.703,6013,t,0,0,4
0:16.775,6039,),0,0,2
0:17.347,6245,(,0,0,0
0:17.400,6264,p,0,0,0
0:17.458,6285,),0,0,0
0:17.483,6294,(,0,0,1
0:17.569,6325,N,0,0,0
0:17.644,6352,),0,0,1
0:17.756,6392,(,0,0,2
0:17.847,6425,t,0,0,4
0:17.956,6464,t,0,0,4
0:18.033,6492,),0,0,2
0:18.553,6679,(,0,0,0
0:18.589,6692,p,0,0,0
0:18.608,6699,),0,0,0
0:18.692,6729,(,0,0,1
0:18.764,6755,N,0,0,0
0:18.825,6777,),0,0,1
0:18.900,6804,(,0,0,2
0:19.031,6851,t,0,0,4
0:19.142,6891,t,0,0,4
0:19.214,6917,),0,0,2
0:19.914,7169,(,0,0,1
0:19.994,7198,N,0,0,0
0:20.061,7222,),0,0,1
0:20.158,7257,(,0,0,2
0:20.269,7297,t,0,0,4
0:20.375,7335,t,0,0,4
0:20.453,7363,),0,0,2
0:21.117,7602,(,0,0,1
0:21.197,7631,N,0,0,0
0:21.267,7656,),0,0,1
0:21.392,7701,(,0,0,2
0:21.475,7731,t,0,0,4
0:21.583,7770,t,0,0,4
0:21.647,7793,),0,0,2
0:22.344,8044,(,0,0,1
0:22.419,8071,N,0,0,0
0:22.489,8096,),0,0,1
0:22.586,8131,(,0,0,2
0:22.686,8167,t,0,0,4
0:22.803,8209,t,0,0,4
0:22.881,8237,),0,0,2
0:23.403,8425,(,0,0,0
0:23.428,8434,p,0,0,0
0:23.447,8441,),0,0,0
0:23.533,8472,(,0,0,1
0:23.606,8498,N,0,0,0
0:23.678,8524,),0,0,1
0:23.767,8556,(,0,0,2
0:23.889,8600,t,0,0,4
0:24.000,8640,t,0,0,4
0:24.069,8665,),0,0,2
0:24.603,8857,(,0,0,0
0:24.656,8876,p,0,0,0
0:24.714,8897,),0,0,0
0:24.742,8907,(,0,0,1
0:24.819,8935,N,0,0,0
0:24.894,8962,),0,0,1
0:25.000,9000,(,0,0,2
0:25.092,9033,t,0,0,4
0:25.194,9070,t,0,0,4
0:25.267,9096,),0,0,2
0:25.911,9328,(,0,0,1
0:25.983,9354,N,0,0,0
0:26.056,9380,),0,0,1
0:26.158,9417,(,0,0,2
0:26.261,9454,t,0,0,4
0:26.375,9495,t,0,0,4
0:26.439,9518,),0,0,2
0:27.136,9769,(,0,0,1
0:27.200,9792,N,0,0,0
0:27.269,9817,),0,0,1
0:27.356,9848,(,0,0,2
0:27.475,9891,t,0,0,4
0:27.583,9930,t,0,0,4
0:27.656,9956,),0,0,2
0:28.306,10190,(,0,0,1
0:28.386,10219,N,0,0,0
0:28.461,10246,),0,0,1
0:28.572,10286,(,0,0,2
0:28.678,10324,t,0,0,4
0:28.792,10365,t,0,0,4
0:28.856,10388,),0,0,2
0:29.400,10584,(,0,0,0
0:29.425,10593,p,0,0,0
0:29.442,10599,),0,0,0
0:29.533,10632,(,0,0,1
0:29.608,10659,N,0,0,0
0:29.678,10684,),0,0,1
0:29.769,10717,(,0,0,2
0:29.872,10754,t,0,0,4
0:29.978,10792,t,0,0,4
0:30.047,10817,),0,0,2
0:30.717,11058,(,0,0,1
0:30.792,11085,N,0,0,0
0:30.858,11109,),0,0,1
0:30.992,11157,(,0,0,2
0:31.069,11185,t,0,0,4
0:31.178,11224,t,0,0,4
0:31.250,11250,),0,0,2
0:31.778,11440,(,0,0,0
0:31.828,11458,p,0,0,0
0:31.881,11477,),0,0,0
0:31.908,11487,(,0,0,1
0:31.989,11516,N,0,0,0
0:32.061,11542,),0,0,1
0:32.181,11585,(,0,0,2
0:32.278,11620,t,0,0,4
0:32.389,11660,t,0,0,4
0:32.464,11687,),0,0,2
0:32.989,11876,(,0,0,0
0:33.039,11894,p,0,0,0
0:33.094,11914,),0,0,0
0:33.119,11923,(,0,0,1
0:33.194,11950,N,0,0,0
0:33.267,11976,),0,0,1
0:33.392,12021,(,0,0,2
0:33.475,12051,t,0,0,4
0:33.575,12087,t,0,0,4
0:33.650,12114,),0,0,2
0:34.325,12357,(,0,0,1
0:34.403,12385,N,0,0,0
0:34.467,12408,),0,0,1
0:34.564,12443,(,0,0,2
0:34.669,12481,t,0,0,4
0:34.775,12519,t,0,0,4
0:34.853,12547,),0,0,2
0:35.514,12785,(,0,0,1
0:35.583,12810,N,0,0,0
0:35.661,12838,),0,0,1
0:35.750,12870,(,0,0,2
0:35.864,12911,t,0,0,4
0:35.975,12951,t,0,0,4
0:36.053,12979,),0,0,2
0:36.550,13158,(,0,0,0
0:36.583,13170,p,0,0,0
0:36.603,13177,),0,0,0
0:36.692,13209,(,0,0,1
0:36.764,13235,N,0,0,0
0:36.831,13259,),0,0,1
0:36.919,13291,(,0,0,2
0:37.031,13331,t,0,0,4
0:37.147,13373,t,0,0,4
0:37.211,13396,),0,0,2
0:37.892,13641,(,0,0,1
0:37.972,13670,N,0,0,0
0:38.036,13693,),0,0,1
0:38.153,13735,(,0,0,2
0:38.231,13763,t,0,0,4
0:38.350,13806,t,0,0,4
0:38.414,13829,),0,0,2
0:38.947,14021,(,0,0,0
0:38.989,14036,p,0,0,0
0:39.008,14043,),0,0,0
0:39.086,14071,(,0,0,1
0:39.164,14099,N,0,0,0
0:39.231,14123,),0,0,1
0:39.331,14159,(,0,0,2
0:39.444,14200,t,0,0,4
0:39.564,14243,t,0,0,4
0:39.642,14271,),0,0,2
0:40.136,14449,(,0,0,0
0:40.167,14460,p,0,0,0
0:40.186,14467,),0,0,0
0:40.272,14498,(,0,0,1
0:40.350,14526,N,0,0,0
0:40.419,14551,),0,0,1
0:40.514,14585,(,0,0,2
0:40.631,14627,t,0,0,4
0:40.747,14669,t,0,0,4
0:40.817,14694,),0,0,2
0:41.394,14902,(,0,0,0
0:41.447,14921,p,0,0,0
0:41.503,14941,),0,0,0
0:41.531,14951,(,0,0,1
0:41.611,14980,N,0,0,0
0:41.675,15003,),0,0,1
0:41.767,15036,(,0,0,2
0:41.883,15078,t,0,0,4
0:41.997,15119,t,0,0,4
0:42.072,15146,),0,0,2
0:42.589,15332,(,0,0,0
0:42.639,15350,p,0,0,0
0:42.658,15357,),0,0,0
0:42.750,15390,(,0,0,1
0:42.828,15418,N,0,0,0
0:42.894,15442,),0,0,1
0:43.008,15483,(,0,0,2
0:43.103,15517,t,0,0,4
0:43.231,15563,t,0,0,4
0:43.306,15590,),0,0,2
0:43.992,15837,(,0,0,1
0:44.067,15864,N,0,0,0
0:44.133,15888,),0,0,1
0:44.233,15924,(,0,0,2
0:44.339,15962,t,0,0,4
0:44.453,16003,t,0,0,4
0:44.519,16027,),0,0,2
0:45.089,16232,(,0,0,0
0:45.119,16243,p,0,0,0
0:45.144,16252,),0,0,0
0:45.239,16286,(,0,0,1
0:45.319,16315,N,0,0,0
0:45.397,16343,),0,0,1
0:45.500,16380,(,0,0,2
0:45.594,16414,t,0,0,4
0:45.703,16453,t,0,0,4
0:45.775,16479,),0,0,2
0:46.500,16740,(,0,0,1
0:46.572,16766,N,0,0,0
0:46.636,16789,),0,0,1
0:46.731,16823,(,0,0,2
0:46.842,16863,t,0,0,4
0:46.956,16904,t,0,0,4
0:47.039,16934,),0,0,2
0:47.697,17171,(,0,0,1
0:47.775,17199,N,0,0,0
0:47.842,17223,),0,0,1
0:47.942,17259,(,0,0,2
0:48.053,17299,t,0,0,4
0:48.158,17337,t,0,0,4
0:48.222,17360,),0,0,2
0:48.811,17572,(,0,0,0
0:48.836,17581,p,0,0,0
0:48.853,17587,),0,0,0
0:48.944,17620,(,0,0,1
0:49.022,17648,N,0,0,0
0:49.100,17676,),0,0,1
0:49.242,17727,(,0,0,2
0:49.294,17746,t,0,0,4
0:49.403,17785,t,0,0,4
0:49.478,17812,),0,0,2
0:50.164,18059,(,0,0,1
0:50.244,18088,N,0,0,0
0:50.308,18111,),0,0,1
0:50.433,18156,(,0,0,2
0:50.522,18188,t,0,0,4
0:50.639,18230,t,0,0,4
0:50.714,18257,),0,0,2
0:51.414,18509,(,0,0,1
0:51.489,18536,N,0,0,0
0:51.567,18564,),0,0,1
0:51.667,18600,(,0,0,2
0:51.769,18637,t,0,0,4
0:51.881,18677,t,0,0,4
0:51.950,18702,),0,0,2
0:52.508,18903,(,0,0,0
0:52.556,18920,p,0,0,0
0:52.614,18941,),0,0,0
0:52.647,18953,(,0,0,1
0:52.728,18982,N,0,0,0
0:52.800,19008,),0,0,1
0:52.900,19044,(,0,0,2
0:52.997,19079,t,0,0,4
0:53.108,19119,t,0,0,4
0:53.186,19147,),0,0,2
0:53.722,19340,(,0,0,0
0:53.769,19357,p,0,0,0
0:53.825,19377,),0,0,0
0:53.853,19387,(,0,0,1
0:53.928,19414,N,0,0,0
0:54.006,19442,),0,0,1
0:54.103,19477,(,0,0,2
0:54.211,19516,t,0,0,4
0:54.325,19557,t,0,0,4
0:54.397,19583,),0,0,2
0:54.958,19785,(,0,0,0
0:55.003,19801,p,0,0,0
0:55.019,19807,),0,0,0
0:55.106,19838,(,0,0,1
0:55.186,19867,N,0,0,0
0:55.256,19892,),0,0,1
0:55.372,19934,(,0,0,2
0:55.464,19967,t,0,0,4
0:55.575,20007,t,0,0,4
0:55.653,20035,),0,0,2
0:56.353,20287,(,0,0,1
0:56.433,20316,N,0,0,0
0:56.503,20341,),0,0,1
0:56.617,20382,(,0,0,2
0:56.728,20422,t,0,0,4
0:56.836,20461,t,0,0,4
0:56.900,20484,),0,0,2
0:57.625,20745,(,0,0,1
0:57.697,20771,N,0,0,0
0:57.767,20796,),0,0,1
0:57.869,20833,(,0,0,2
0:57.956,20864,t,0,0,4
0:58.072,20906,t,0,0,4
0:58.147,20933,),0,0,2
0:58.869,21193,(,0,0,1
0:58.944,21220,N,0,0,0
0:59.011,21244,),0,0,1
0:59.133,21288,(,0,0,2
0:59.217,21318,t,0,0,4
0:59.328,21358,t,0,0,4
0:59.408,21387,),0,0,2
0:59.894,21562,(,0,0,0
0:59.964,21587,p,0,0,0
1:00.022,21608,),0,0,0
1:00.061,21622,(,0,0,1
1:00.136,21649,N,0,0,0
1:00.208,21675,),0,0,1
1:00.306,21710,(,0,0,2
1:00.419,21751,t,0,0,4
1:00.533,21792,t,0,0,4
1:00.597,21815,),0,0,2
1:01.294,22066,(,0,0,1
1:01.367,22092,N,0,0,0
1:01.433,22116,),0,0,1
1:01.547,22157,(,0,0,2
1:01.628,22186,t,0,0,4
1:01.739,22226,t,0,0,4
1:01.817,22254,),0,0,2
1:02.517,22506,(,0,0,1
1:02.586,22531,N,0,0,0
1:02.650,22554,),0,0,1
1:02.761,22594,(,0,0,2
1:02.864,22631,t,0,0,4
1:02.978,22672,t,0,0,4
1:03.056,22700,),0,0,2
1:03.653,22915,(,0,0,0
1:03.694,22930,p,0,0,0
1:03.747,22949,),0,0,0
1:03.769,22957,(,0,0,1
1:03.850,22986,N,0,0,0
1:03.917,23010,),0,0,1
1:04.036,23053,(,0,0,2
1:04.144,23092,t,0,0,4
1:04.244,23128,t,0,0,4
1:04.303,23149,),0,0,2
1:04.986,23395,(,0,0,1
1:05.058,23421,N,0,0,0
1:05.133,23448,),0,0,1
1:05.239,23486,(,0,0,2
1:05.331,23519,t,0,0,4
1:05.447,23561,t,0,0,4
1:05.517,23586,),0,0,2
1:06.300,23868,(,0,0,1
1:06.378,23896,N,0,0,0
1:06.447,23921,),0,0,1
1:06.561,23962,(,0,0,2
1:06.658,23997,t,0,0,4
1:06.772,24038,t,0,0,4
1:06.844,24064,),0,0,2
1:07.500,24300,(,0,0,0
1:07.519,24307,p,0,0,0
1:07.556,24320,),0,0,0
1:07.589,24332,(,0,0,1
1:07.669,24361,N,0,0,0
1:07.744,24388,),0,0,1
1:07.864,24431,(,0,0,2
1:07.956,24464,t,0,0,4
1:08.069,24505,t,0,0,4
1:08.144,24532,),0,0,2
1:08.725,24741,(,0,0,0
1:08.750,24750,p,0,0,0
1:08.769,24757,),0,0,0
1:08.856,24788,(,0,0,1
1:08.928,24814,N,0,0,0
1:08.989,24836,),0,0,1
1:09.078,24868,(,0,0,2
1:09.189,24908,t,0,0,4
1:09.297,24947,t,0,0,4
1:09.364,24971,),0,0,2
1:10.067,25224,(,0,0,1
1:10.142,25251,N,0,0,0
1:10.211,25276,),0,0,1
1:10.314,25313,(,0,0,2
1:10.414,25349,t,0,0,4
1:10.519,25387,t,0,0,4
1:10.594,25414,),0,0,2
1:11.139,25610,(,0,0,0
1:11.189,25628,p,0,0,0
1:11.244,25648,),0,0,0
1:11.272,25658,(,0,0,1
1:11.353,25687,N,0,0,0
1:11.422,25712,),0,0,1
1:11.542,25755,(,0,0,2
1:11.647,25793,t,0,0,4
1:11.756,25832,t,0,0,4
1:11.822,25856,),0,0,2
1:12.453,26083,(,0,0,1
1:12.519,26107,N,0,0,0
1:12.583,26130,),0,0,1
1:12.700,26172,(,0,0,2
1:12.786,26203,t,0,0,4
1:12.894,26242,t,0,0,4
1:12.964,26267,),0,0,2
1:13.639,26510,(,0,0,1
1:13.717,26538,N,0,0,0
1:13.781,26561,),0,0,1
1:13.900,26604,(,0,0,2
1:13.978,26632,t,0,0,4
1:14.094,26674,t,0,0,4
1:14.172,26702,),0,0,2
1:14.792,26925,(,0,0,1
1:14.864,26951,N,0,0,0
1:14.944,26980,),0,0,1
1:15.025,27009,(,0,0,2
1:15.156,27056,t,0,0,4
1:15.267,27096,t,0,0,4
1:15.336,27121,),0,0,2
1:16.019,27367,(,0,0,1
1:16.094,27394,N,0,0,0
1:16.169,27421,),0,0,1
1:16.281,27461,(,0,0,2
1:16.367,27492,t,0,0,4
1:16.481,27533,t,0,0,4
1:16.556,27560,),0,0,2
1:17.281,27821,(,0,0,1
1:17.364,27851,N,0,0,0
1:17.425,27873,),0,0,1
1:17.544,27916,(,0,0,2
1:17.631,27947,t,0,0,4
1:17.744,27988,t,0,0,4
1:17.822,28016,),0,0,2
1:18.333,28200,(,0,0,0
1:18.389,28220,p,0,0,0
1:18.439,28238,),0,0,0
1:18.469,28249,(,0,0,1
1:18.544,28276,N,0,0,0
1:18.614,28301,),0,0,1
1:18.722,28340,(,0,0,2
1:18.833,28380,t,0,0,4
1:18.956,28424,t,0,0,4
1:19.025,28449,),0,0,2
1:19.572,28646,(,0,0,0
1:19.625,28665,p,0,0,0
1:19.681,28685,),0,0,0
1:19.711,28696,(,0,0,1
1:19.789,28724,N,0,0,0
1:19.856,28748,),0,0,1
1:19.972,28790,(,0,0,2
1:20.064,28823,t,0,0,4
1:20.172,28862,t,0,0,4
1:20.242,28887,),0,0,2
1:20.731,29063,(,0,0,0
1:20.781,29081,p,0,0,0
1:20.839,29102,),0,0,0
1:20.861,29110,(,0,0,1
1:20.936,29137,N,0,0,0
1:21.014,29165,),0,0,1
1:21.119,29203,(,0,0,2
1:21.206,29234,t,0,0,4
1:21.311,29272,t,0,0,4
1:21.381,29297,),0,0,2
1:21.936,29497,(,0,0,0
1:21.989,29516,p,0,0,0
1:22.047,29537,),0,0,0
1:22.072,29546,(,0,0,1
1:22.147,29573,N,0,0,0
1:22.219,29599,),0,0,1
1:22.311,29632,(,0,0,2
1:22.431,29675,t,0,0,4
1:22.544,29716,t,0,0,4
1:22.619,29743,),0,0,2
1:23.314,29993,(,0,0,1
1:23.389,30020,N,0,0,0
1:23.458,30045,),0,0,1
1:23.550,30078,(,0,0,2
1:23.667,30120,t,0,0,4
1:23.767,30156,t,0,0,4
1:23.836,30181,),0,0,2
1:24.367,30372,(,0,0,0
1:24.428,30394,p,0,0,0
1:24.467,30408,),0,0,0
1:24.503,30421,(,0,0,1
1:24.581,30449,N,0,0,0
1:24.653,30475,),0,0,1
1:24.783,30522,(,0,0,2
1:24.867,30552,t,0,0,4
1:24.969,30589,t,0,0,4
1:25.033,30612,),0,0,2
1:25.728,30862,(,0,0,1
1:25.794,30886,N,0,0,0
1:25.858,30909,),0,0,1
1:25.953,30943,(,0,0,2
1:26.058,30981,t,0,0,4
1:26.169,31021,t,0,0,4
1:26.244,31048,),0,0,2
1:26.919,31291,(,0,0,1
1:26.994,31318,N,0,0,0
1:27.064,31343,),0,0,1
1:27.150,31374,(,0,0,2
1:27.278,31420,t,0,0,4
1:27.383,31458,t,0,0,4
1:27.458,31485,),0,0,2
1:28.044,31696,(,0,0,0
1:28.061,31702,p,0,0,0
1:28.097,31715,),0,0,0
1:28.131,31727,(,0,0,1
1:28.203,31753,N,0,0,0
1:28.283,31782,),0,0,1
1:28.356,31808,(,0,0,2
1:28.489,31856,t,0,0,4
1:28.597,31895,t,0,0,4
1:28.661,31918,),0,0,2
1:29.206,32114,(,0,0,0
1:29.250,32130,p,0,0,0
1:29.267,32136,),0,0,0
1:29.361,32170,(,0,0,1
1:29.431,32195,N,0,0,0
1:29.497,32219,),0,0,1
1:29.589,32252,(,0,0,2
1:29.708,32295,t,0,0,4
1:29.819,32335,t,0,0,4
1:29.900,32364,),0,0,2
1:30.594,32614,(,0,0,1
1:30.667,32640,N,0,0,0
1:30.750,32670,),0,0,1
1:30.819,32695,(,0,0,2
1:30.961,32746,t,0,0,4
1:31.069,32785,t,0,0,4
1:31.142,32811,),0,0,2
1:31.819,33055,(,0,0,1
1:31.900,33084,N,0,0,0
1:31.975,33111,),0,0,1
1:32.089,33152,(,0,0,2
1:32.178,33184,t,0,0,4
1:32.286,33223,t,0,0,4
1:32.353,33247,),0,0,2
1:32.889,33440,(,0,0,0
1:32.917,33450,p,0,0,0
1:32.936,33457,),0,0,0
1:33.025,33489,(,0,0,1
1:33.100,33516,N,0,0,0
1:33.167,33540,),0,0,1
1:33.283,33582,(,0,0,2
1:33.375,33615,t,0,0,4
1:33.481,33653,t,0,0,4
1:33.550,33678,),0,0,2
1:34.244,33928,(,0,0,1
1:34.319,33955,N,0,0,0
1:34.389,33980,),0,0,1
1:34.489,34016,(,0,0,2
1:34.603,34057,t,0,0,4
1:34.711,34096,t,0,0,4
1:34.772,34118,),0,0,2
1:35.311,34312,(,0,0,0
1:35.353,34327,p,0,0,0
1:35.372,34334,),0,0,0
1:35.467,34368,(,0,0,1
1:35.544,34396,N,0,0,0
1:35.619,34423,),0,0,1
1:35.747,34469,(,0,0,2
1:35.839,34502,t,0,0,4
1:35.942,34539,t,0,0,4
1:36.008,34563,),0,0,2
1:36.706,34814,(,0,0,1
1:36.781,34841,N,0,0,0
1:36.850,34866,),0,0,1
1:36.953,34903,(,0,0,2
1:37.042,34935,t,0,0,4
1:37.147,34973,t,0,0,4
1:37.217,34998,),0,0,2
1:37.917,35250,(,0,0,1
1:37.956,35264,N,0,0,0
1:38.028,35290,),0,0,1
1:38.119,35323,(,0,0,2
1:38.233,35364,t,0,0,4
1:38.342,35403,t,0,0,4
1:38.408,35427,),0,0,2
1:39.053,35659,(,0,0,1
1:39.133,35688,N,0,0,0
1:39.200,35712,),0,0,1
1:39.322,35756,(,0,0,2
1:39.425,35793,t,0,0,4
1:39.536,35833,t,0,0,4
1:39.603,35857,),0,0,2
1:40.275,36099,(,0,0,1
1:40.350,36126,N,0,0,0
1:40.422,36152,),0,0,1
1:40.497,36179,(,0,0,2
1:40.619,36223,t,0,0,4
1:40.736,36265,t,0,0,4
1:40.806,36290,),0,0,2
1:41.550,36558,(,0,0,1
1:41.622,36584,N,0,0,0
1:41.692,36609,),0,0,1
1:41.811,36652,(,0,0,2
1:41.903,36685,t,0,0,4
1:42.025,36729,t,0,0,4
1:42.103,36757,),0,0,2
1:42.783,37002,(,0,0,1
1:42.867,37032,N,0,0,0
1:42.936,37057,),0,0,1
1:43.067,37104,(,0,0,2
1:43.161,37138,t,0,0,4
1:43.264,37175,t,0,0,4
1:43.333,37200,),0,0,2
1:44.033,37452,(,0,0,1
1:44.108,37479,N,0,0,0
1:44.189,37508,),0,0,1
1:44.289,37544,(,0,0,2
1:44.389,37580,t,0,0,4
1:44.497,37619,t,0,0,4
1:44.572,37646,),0,0,2
1:45.289,37904,(,0,0,1
1:45.369,37933,N,0,0,0
1:45.439,37958,),0,0,1
1:45.553,37999,(,0,0,2
1:45.639,38030,t,0,0,4
1:45.750,38070,t,0,0,4
1:45.822,38096,),0,0,2
1:46.364,38291,(,0,0,0
1:46.392,38301,p,0,0,0
1:46.408,38307,),0,0,0
1:46.497,38339,(,0,0,1
1:46.581,38369,N,0,0,0
1:46.661,38398,),0,0,1
1:46.789,38444,(,0,0,2
1:46.875,38475,t,0,0,4
1:46.992,38517,t,0,0,4
1:47.061,38542,),0,0,2
1:47.625,38745,(,0,0,0
1:47.658,38757,p,0,0,0
1:47.678,38764,),0,0,0
1:47.772,38798,(,0,0,1
1:47.847,38825,N,0,0,0
1:47.911,38848,),0,0,1
1:48.022,38888,(,0,0,2
1:48.106,38918,t,0,0,4
1:48.208,38955,t,0,0,4
1:48.283,38982,),0,0,2
1:49.017,39246,(,0,0,1
1:49.094,39274,N,0,0,0
1:49.161,39298,),0,0,1
1:49.264,39335,(,0,0,2
1:49.372,39374,t,0,0,4
1:49.475,39411,t,0,0,4
1:49.544,39436,),0,0,2
1:50.242,39687,(,0,0,1
1:50.319,39715,N,0,0,0
1:50.392,39741,),0,0,1
1:50.519,39787,(,0,0,2
1:50.614,39821,t,0,0,4
1:50.725,39861,t,0,0,4
1:50.792,39885,),0,0,2
1:51.378,40096,(,0,0,0
1:51.431,40115,p,0,0,0
1:51.483,40134,),0,0,0
1:51.514,40145,(,0,0,1
1:51.586,40171,N,0,0,0
1:51.661,40198,),0,0,1
1:51.761,40234,(,0,0,2
1:51.861,40270,t,0,0,4
1:51.975,40311,t,0,0,4
1:52.050,40338,),0,0,2
1:52.800,40608,(,0,0,1
1:52.875,40635,N,0,0,0
1:52.919,40651,),0,0,1
1:53.072,40706,(,0,0,2
1:53.164,40739,t,0,0,4
1:53.272,40778,t,0,0,4
1:53.350,40806,),0,0,2
1:54.047,41057,(,0,0,1
1:54.131,41087,N,0,0,0
1:54.197,41111,),0,0,1
1:54.325,41157,(,0,0,2
1:54.408,41187,t,0,0,4
1:54.514,41225,t,0,0,4
1:54.581,41249,),0,0,2
1:55.242,41487,(,0,0,1
1:55.319,41515,N,0,0,0
1:55.394,41542,),0,0,1
1:55.506,41582,(,0,0,2
1:55.600,41616,t,0,0,4
1:55.714,41657,t,0,0,4
1:55.786,41683,),0,0,2
1:56.333,41880,(,0,0,0
1:56.372,41894,p,0,0,0
1:56.392,41901,),0,0,0
1:56.475,41931,(,0,0,1
1:56.553,41959,N,0,0,0
1:56.625,41985,),0,0,1
1:56.728,42022,(,0,0,2
1:56.825,42057,t,0,0,4
1:56.933,42096,t,0,0,4
1:57.008,42123,),0,0,2
1:57.639,42350,(,0,0,1
1:57.717,42378,N,0,0,0
1:57.794,42406,),0,0,1
1:57.922,42452,(,0,0,2
1:58.017,42486,t,0,0,4
1:58.125,42525,t,0,0,4
1:58.186,42547,),0,0,2
1:58.742,42747,(,0,0,0
1:58.792,42765,p,0,0,0
1:58.847,42785,),0,0,0
1:58.875,42795,(,0,0,1
1:58.950,42822,N,0,0,0
1:59.019,42847,),0,0,1
1:59.097,42875,(,0,0,2
1:59.211,42916,t,0,0,4
1:59.311,42952,t,0,0,4
1:59.394,42982,),0,0,2
2:00.056,43220,(,0,0,1
2:00.128,43246,N,0,0,0
2:00.197,43271,),0,0,1
2:00.297,43307,(,0,0,2
2:00.403,43345,t,0,0,4
2:00.514,43385,t,0,0,4
2:00.586,43411,),0,0,2
2:01.256,43652,(,0,0,1
2:01.328,43678,N,0,0,0
2:01.400,43704,),0,0,1
2:01.533,43752,(,0,0,2
2:01.619,43783,t,0,0,4
2:01.736,43825,t,0,0,4
2:01.797,43847,),0,0,2
2:02.450,44082,(,0,0,1
2:02.525,44109,N,0,0,0
2:02.589,44132,),0,0,1
2:02.689,44168,(,0,0,2
2:02.789,44204,t,0,0,4
2:02.900,44244,t,0,0,4
2:02.975,44271,),0,0,2
2:03.689,44528,(,0,0,1
2:03.764,44555,N,0,0,0
2:03.831,44579,),0,0,1
2:03.903,44605,(,0,0,2
2:04.042,44655,t,0,0,4
2:04.153,44695,t,0,0,4
2:04.225,44721,),0,0,2
2:04.850,44946,(,0,0,1
2:04.928,44974,N,0,0,0
2:04.997,44999,),0,0,1
2:05.128,45046,(,0,0,2
2:05.211,45076,t,0,0,4
2:05.325,45117,t,0,0,4
2:05.394,45142,),0,0,2
2:06.092,45393,(,0,0,1
2:06.172,45422,N,0,0,0
2:06.236,45445,),0,0,1
2:06.339,45482,(,0,0,2
2:06.444,45520,t,0,0,4
2:06.558,45561,t,0,0,4
2:06.625,45585,),0,0,2
2:07.181,45785,(,0,0,0
2:07.206,45794,p,0,0,0
2:07.222,45800,),0,0,0
2:07.317,45834,(,0,0,1
2:07.392,45861,N,0,0,0
2:07.456,45884,),0,0,1
2:07.567,45924,(,0,0,2
2:07.661,45958,t,0,0,4
2:07.781,46001,t,0,0,4
2:07.836,46021,),0,0,2
2:08.525,46269,(,0,0,1
2:08.603,46297,N,0,0,0
2:08.644,46312,),0,0,1
2:08.800,46368,(,0,0,2
2:08.889,46400,t,0,0,4
2:09.006,46442,t,0,0,4
2:09.083,46470,),0,0,2
2:09.767,46716,(,0,0,1
2:09.844,46744,N,0,0,0
2:09.886,46759,),0,0,1
2:10.008,46803,(,0,0,2
2:10.122,46844,t,0,0,4
2:10.228,46882,t,0,0,4
2:10.300,46908,),0,0,2
2:10.947,47141,(,0,0,1
2:11.022,47168,N,0,0,0
2:11.089,47192,),0,0,1
2:11.192,47229,(,0,0,2
2:11.292,47265,t,0,0,4
2:11.408,47307,t,0,0,4
2:11.481,47333,),0,0,2
2:12.169,47581,(,0,0,1
2:12.242,47607,N,0,0,0
2:12.306,47630,),0,0,1
2:12.436,47677,(,0,0,2
2:12.519,47707,t,0,0,4
2:12.639,47750,t,0,0,4
2:12.717,47778,),0,0,2
2:13.286,47983,(,0,0,0
2:13.328,47998,p,0,0,0
2:13.381,48017,),0,0,0
2:13.414,48029,(,0,0,1
2:13.489,48056,N,0,0,0
2:13.547,48077,),0,0,1
2:13.678,48124,(,0,0,2
2:13.756,48152,t,0,0,4
2:13.869,48193,t,0,0,4
2:13.942,48219,),0,0,2
2:14.619,48463,(,0,0,1
2:14.697,48491,N,0,0,0
2:14.767,48516,),0,0,1
2:14.872,48554,(,0,0,2
2:14.969,48589,t,0,0,4
2:15.081,48629,t,0,0,4
2:15.147,48653,),0,0,2
2:15.842,48903,(,0,0,1
2:15.908,48927,N,0,0,0
2:15.969,48949,),0,0,1
2:16.069,48985,(,0,0,2
2:16.181,49025,t,0,0,4
2:16.292,49065,t,0,0,4
2:16.367,49092,),0,0,2
2:16.992,49317,(,0,0,1
2:17.069,49345,N,0,0,0
2:17.139,49370,),0,0,1
2:17.239,49406,(,0,0,2
2:17.350,49446,t,0,0,4
2:17.453,49483,t,0,0,4
2:17.525,49509,),0,0,2
2:18.106,49718,(,0,0,0
2:18.125,49725,p,0,0,0
2:18.147,49733,),0,0,0
2:18.214,49757,(,0,0,1
2:18.294,49786,N,0,0,0
2:18.369,49813,),0,0,1
2:18.486,49855,(,0,0,2
2:18.572,49886,t,0,0,4
2:18.681,49925,t,0,0,4
2:18.756,49952,),0,0,2
2:19.394,50182,(,0,0,1
2:19.469,50209,N,0,0,0
2:19.536,50233,),0,0,1
2:19.664,50279,(,0,0,2
2:19.747,50309,t,0,0,4
2:19.858,50349,t,0,0,4
2:19.931,50375,),0,0,2
2:20.611,50620,(,0,0,1
2:20.678,50644,N,0,0,0
2:20.747,50669,),0,0,1
2:20.872,50714,(,0,0,2
2:20.956,50744,t,0,0,4
2:21.069,50785,t,0,0,4
2:21.147,50813,),0,0,2
2:21.792,51045,(,0,0,1
2:21.869,51073,N,0,0,0
2:21.942,51099,),0,0,1
2:22.069,51145,(,0,0,2
2:22.169,51181,t,0,0,4
2:22.272,51218,t,0,0,4
2:22.333,51240,),0,0,2
2:22.944,51460,(,0,0,0
2:22.983,51474,p,0,0,0
2:23.000,51480,),0,0,0
2:23.033,51492,(,0,0,1
2:23.072,51506,N,0,0,0
2:23.139,51530,),0,0,1
2:23.256,51572,(,0,0,2
2:23.356,51608,t,0,0,4
2:23.458,51645,t,0,0,4
2:23.525,51669,),0,0,2
2:24.231,51923,(,0,0,1
2:24.306,51950,N,0,0,0
2:24.372,51974,),0,0,1
2:24.494,52018,(,0,0,2
2:24.572,52046,t,0,0,4
2:24.686,52087,t,0,0,4
2:24.758,52113,),0,0,2
2:25.428,52354,(,0,0,1
2:25.500,52380,N,0,0,0
2:25.575,52407,),0,0,1
2:25.664,52439,(,0,0,2
2:25.797,52487,t,0,0,4
2:25.917,52530,t,0,0,4
2:25.992,52557,),0,0,2
2:26.658,52797,(,0,0,1
2:26.736,52825,N,0,0,0
2:26.808,52851,),0,0,1
2:26.911,52888,(,0,0,2
2:27.017,52926,t,0,0,4
2:27.119,52963,t,0,0,4
2:27.186,52987,),0,0,2
2:27.825,53217,(,0,0,1
2:27.900,53244,N,0,0,0
2:27.969,53269,),0,0,1
2:28.075,53307,(,0,0,2
2:28.167,53340,t,0,0,4
2:28.278,53380,t,0,0,4
2:28.342,53403,),0,0,2
2:28.992,53637,(,0,0,1
2:29.069,53665,N,0,0,0
2:29.142,53691,),0,0,1
2:29.233,53724,(,0,0,2
2:29.344,53764,t,0,0,4
2:29.458,53805,t,0,0,4
2:29.539,53834,),0,0,2
2:30.208,54075,(,0,0,1
2:30.289,54104,N,0,0,0
2:30.328,54118,),0,0,1
2:30.472,54170,(,0,0,2
2:30.564,54203,t,0,0,4
2:30.672,54242,t,0,0,4
2:30.744,54268,),0,0,2
2:31.247,54449,(,0,0,0
2:31.278,54460,p,0,0,0
2:31.297,54467,),0,0,0
2:31.394,54502,(,0,0,1
2:31.478,54532,N,0,0,0
2:31.550,54558,),0,0,1
2:31.678,54604,(,0,0,2
2:31.764,54635,t,0,0,4
2:31.878,54676,t,0,0,4
2:31.950,54702,),0,0,2
2:32.639,54950,(,0,0,1
2:32.717,54978,N,0,0,0
2:32.756,54992,),0,0,1
2:32.906,55046,(,0,0,2
2:32.969,55069,t,0,0,4
2:33.083,55110,t,0,0,4
2:33.167,55140,),0,0,2
2:33.658,55317,(,0,0,0
2:33.711,55336,p,0,0,0
2:33.767,55356,),0,0,0
2:33.797,55367,(,0,0,1
2:33.869,55393,N,0,0,0
2:33.942,55419,),0,0,1
2:34.028,55450,(,0,0,2
2:34.150,55494,t,0,0,4
2:34.258,55533,t,0,0,4
2:34.328,55558,),0,0,2
2:35.006,55802,(,0,0,1
2:35.083,55830,N,0,0,0
2:35.128,55846,),0,0,1
2:35.275,55899,(,0,0,2
2:35.369,55933,t,0,0,4
2:35.483,55974,t,0,0,4
2:35.558,56001,),0,0,2
2:36.239,56246,(,0,0,1
2:36.317,56274,N,0,0,0
2:36.381,56297,),0,0,1
2:36.472,56330,(,0,0,2
2:36.594,56374,t,0,0,4
2:36.700,56412,t,0,0,4
2:36.767,56436,),0,0,2
2:37.456,56684,(,0,0,1
2:37.525,56709,N,0,0,0
2:37.592,56733,),0,0,1
2:37.681,56765,(,0,0,2
2:37.794,56806,t,0,0,4
2:37.911,56848,t,0,0,4
2:37.989,56876,),0,0,2
2:38.653,57115,(,0,0,1
2:38.728,57142,N,0,0,0
2:38.800,57168,),0,0,1
2:38.911,57208,(,0,0,2
2:39.017,57246,t,0,0,4
2:39.125,57285,t,0,0,4
2:39.197,57311,),0,0,2
2:39.839,57542,(,0,0,1
2:39.914,57569,N,0,0,0
2:39.981,57593,),0,0,1
2:40.056,57620,(,0,0,2
2:40.178,57664,t,0,0,4
2:40.294,57706,t,0,0,4
2:40.367,57732,),0,0,2
2:41.078,57988,(,0,0,1
2:41.156,58016,N,0,0,0
2:41.219,58039,),0,0,1
2:41.311,58072,(,0,0,2
2:41.417,58110,t,0,0,4
2:41.528,58150,t,0,0,4
2:41.600,58176,),0,0,2
2:42.239,58406,(,0,0,1
2:42.319,58435,N,0,0,0
2:42.383,58458,),0,0,1
2:42.511,58504,(,0,0,2
2:42.608,58539,t,0,0,4
2:42.733,58584,t,0,0,4
2:42.797,58607,),0,0,2
2:43.456,58844,(,0,0,1
2:43.533,58872,N,0,0,0
2:43.606,58898,),0,0,1
2:43.722,58940,(,0,0,2
2:43.806,58970,t,0,0,4
2:43.914,59009,t,0,0,4
2:43.992,59037,),0,0,2
2:44.497,59219,(,0,0,0
2:44.542,59235,p,0,0,0
2:44.600,59256,),0,0,0
2:44.628,59266,(,0,0,1
2:44.706,59294,N,0,0,0
2:44.781,59321,),0,0,1
2:44.881,59357,(,0,0,2
2:44.975,59391,t,0,0,4
2:45.081,59429,t,0,0,4
2:45.161,59458,),0,0,2
2:45.822,59696,(,0,0,1
2:45.889,59720,N,0,0,0
2:45.958,59745,),0,0,1
2:46.083,59790,(,0,0,2
2:46.172,59822,t,0,0,4
2:46.283,59862,t,0,0,4
2:46.361,59890,),0,0,2
2:47.033,60132,(,0,0,1
2:47.108,60159,N,0,0,0
2:47.181,60185,),0,0,1
2:47.272,60218,(,0,0,2
2:47.389,60260,t,0,0,4
2:47.497,60299,t,0,0,4
2:47.575,60327,),0,0,2
2:48.219,60559,(,0,0,1
2:48.292,60585,N,0,0,0
2:48.375,60615,),0,0,1
2:48.481,60653,(,0,0,2
2:48.569,60685,t,0,0,4
2:48.683,60726,t,0,0,4
2:48.758,60753,),0,0,2
2:49.425,60993,(,0,0,1
2:49.494,61018,N,0,0,0
2:49.553,61039,),0,0,1
2:49.633,61068,(,0,0,2
2:49.756,61112,t,0,0,4
2:49.867,61152,t,0,0,4
2:49.933,61176,),0,0,2
2:50.539,61394,(,0,0,1
2:50.636,61429,N,0,0,0
2:50.708,61455,),0,0,1
2:50.844,61504,(,0,0,2
2:50.906,61526,t,0,0,4
2:51.019,61567,t,0,0,4
2:51.086,61591,),0,0,2
2:51.778,61840,(,0,0,1
2:51.858,61869,N,0,0,0
2:51.925,61893,),0,0,1
2:52.053,61939,(,0,0,2
2:52.139,61970,t,0,0,4
2:52.244,62008,t,0,0,4
2:52.314,62033,),0,0,2
2:52.972,62270,(,0,0,1
2:53.050,62298,N,0,0,0
2:53.119,62323,),0,0,1
2:53.233,62364,(,0,0,2
2:53.319,62395,t,0,0,4
2:53.431,62435,t,0,0,4
2:53.506,62462,),0,0,2
2:54.042,62655,(,0,0,0
2:54.097,62675,p,0,0,0
2:54.150,62694,),0,0,0
2:54.175,62703,(,0,0,1
2:54.253,62731,N,0,0,0
2:54.322,62756,),0,0,1
2:54.417,62790,(,0,0,2
2:54.528,62830,t,0,0,4
2:54.642,62871,t,0,0,4
2:54.722,62900,),0,0,2
2:55.206,63074,(,0,0,0
2:55.256,63092,p,0,0,0
2:55.311,63112,),0,0,0
2:55.342,63123,(,0,0,1
2:55.419,63151,N,0,0,0
2:55.489,63176,),0,0,1
2:55.578,63208,(,0,0,2
2:55.708,63255,t,0,0,4
2:55.819,63295,t,0,0,4
2:55.883,63318,),0,0,2
2:56.519,63547,(,0,0,1
2:56.592,63573,N,0,0,0
2:56.633,63588,),0,0,1
2:56.753,63631,(,0,0,2
2:56.867,63672,t,0,0,4
2:56.978,63712,t,0,0,4
2:57.053,63739,),0,0,2
2:57.581,63929,(,0,0,0
2:57.633,63948,p,0,0,0
2:57.689,63968,),0,0,0
2:57.719,63979,(,0,0,1
2:57.794,64006,N,0,0,0
2:57.858,64029,),0,0,1
2:57.964,64067,(,0,0,2
2:58.058,64101,t,0,0,4
2:58.175,64143,t,0,0,4
2:58.250,64170,),0,0,2
2:58.731,64343,(,0,0,0
2:58.786,64363,p,0,0,0
2:58.839,64382,),0,0,0
2:58.867,64392,(,0,0,1
2:58.944,64420,N,0,0,0
2:59.019,64447,),0,0,1
2:59.147,64493,(,0,0,2
2:59.236,64525,t,0,0,4
2:59.356,64568,t,0,0,4
2:59.431,64595,),0,0,2
3:00.019,64807,(,0,0,0
3:00.042,64815,p,0,0,0
3:00.072,64826,),0,0,0
3:00.103,64837,(,0,0,1
3:00.181,64865,N,0,0,0
3:00.253,64891,),0,0,1
3:00.331,64919,(,0,0,2
3:00.447,64961,t,0,0,4
3:00.553,64999,t,0,0,4
3:00.631,65027,),0,0,2
3:01.136,65209,(,0,0,0
3:01.194,65230,p,0,0,0
3:01.247,65249,),0,0,0
3:01.272,65258,(,0,0,1
3:01.344,65284,N,0,0,0
3:01.417,65310,),0,0,1
3:01.492,65337,(,0,0,2
3:01.614,65381,t,0,0,4
3:01.722,65420,t,0,0,4
3:01.794,65446,),0,0,2
3:02.464,65687,(,0,0,1
3:02.528,65710,N,0,0,0
3:02.597,65735,),0,0,1
3:02.711,65776,(,0,0,2
3:02.803,65809,t,0,0,4
3:02.919,65851,t,0,0,4
3:03.000,65880,),0,0,2
3:03.528,66070,(,0,0,0
3:03.553,66079,p,0,0,0
3:03.569,66085,),0,0,0
3:03.667,66120,(,0,0,1
3:03.736,66145,N,0,0,0
3:03.800,66168,),0,0,1
3:03.914,66209,(,0,0,2
3:04.003,66241,t,0,0,4
3:04.114,66281,t,0,0,4
3:04.181,66305,),0,0,2
3:04.717,66498,(,0,0,0
3:04.753,66511,p,0,0,0
3:04.769,66517,),0,0,0
3:04.867,66552,(,0,0,1
3:04.942,66579,N,0,0,0
3:05.017,66606,),0,0,1
3:05.100,66636,(,0,0,2
3:05.208,66675,t,0,0,4
3:05.322,66716,t,0,0,4
3:05.394,66742,),0,0,2
3:06.072,66986,(,0,0,1
3:06.144,67012,N,0,0,0
3:06.203,67033,),0,0,1
3:06.294,67066,(,0,0,2
3:06.408,67107,t,0,0,4
3:06.528,67150,t,0,0,4
3:06.603,67177,),0,0,2
3:07.267,67416,(,0,0,1
3:07.342,67443,N,0,0,0
3:07.408,67467,),0,0,1
3:07.494,67498,(,0,0,2
3:07.611,67540,t,0,0,4
3:07.728,67582,t,0,0,4
3:07.794,67606,),0,0,2
3:08.506,67862,(,0,0,1
3:08.583,67890,N,0,0,0
3:08.653,67915,),0,0,1
3:08.758,67953,(,0,0,2
3:08.853,67987,t,0,0,4
3:08.967,68028,t,0,0,4
3:09.031,68051,),0,0,2
3:09.569,68245,(,0,0,0
3:09.594,68254,p,0,0,0
3:09.611,68260,),0,0,0
3:09.703,68293,(,0,0,1
3:09.778,68320,N,0,0,0
3:09.839,68342,),0,0,1
3:09.944,68380,(,0,0,2
3:10.061,68422,t,0,0,4
3:10.183,68466,t,0,0,4
3:10.258,68493,),0,0,2
3:10.800,68688,(,0,0,0
3:10.844,68704,p,0,0,0
3:10.900,68724,),0,0,0
3:10.931,68735,(,0,0,1
3:11.006,68762,N,0,0,0
3:11.072,68786,),0,0,1
3:11.169,68821,(,0,0,2
3:11.281,68861,t,0,0,4
3:11.397,68903,t,0,0,4
3:11.469,68929,),0,0,2
3:12.139,69170,(,0,0,1
3:12.217,69198,N,0,0,0
3:12.286,69223,),0,0,1
3:12.392,69261,(,0,0,2
3:12.481,69293,t,0,0,4
3:12.594,69334,t,0,0,4
3:12.667,69360,),0,0,2
3:13.314,69593,(,0,0,1
3:13.392,69621,N,0,0,0
3:13.458,69645,),0,0,1
3:13.556,69680,(,0,0,2
3:13.661,69718,t,0,0,4
3:13.778,69760,t,0,0,4
3:13.847,69785,),0,0,2
3:14.556,70040,(,0,0,1
3:14.633,70068,N,0,0,0
3:14.697,70091,),0,0,1
3:14.806,70130,(,0,0,2
3:14.900,70164,t,0,0,4
3:15.017,70206,t,0,0,4
3:15.086,70231,),0,0,2
3:15.786,70483,(,0,0,1
3:15.867,70512,N,0,0,0
3:15.928,70534,),0,0,1
3:16.056,70580,(,0,0,2
3:16.139,70610,t,0,0,4
3:16.247,70649,t,0,0,4
3:16.314,70673,),0,0,2
3:16.864,70871,(,0,0,0
3:16.892,70881,p,0,0,0
3:16.908,70887,),0,0,0
3:16.992,70917,(,0,0,1
3:17.067,70944,N,0,0,0
3:17.128,70966,),0,0,1
3:17.197,70991,(,0,0,2
3:17.319,71035,t,0,0,4
3:17.436,71077,t,0,0,4
3:17.508,71103,),0,0,2
3:18.206,71354,(,0,0,1
3:18.283,71382,N,0,0,0
3:18.353,71407,),0,0,1
3:18.483,71454,(,0,0,2
3:18.556,71480,t,0,0,4
3:18.664,71519,t,0,0,4
3:18.742,71547,),0,0,2
3:19.442,71799,(,0,0,1
3:19.525,71829,N,0,0,0
3:19.592,71853,),0,0,1
3:19.689,71888,(,0,0,2
3:19.814,71933,t,0,0,4
3:19.925,71973,t,0,0,4
3:20.000,72000,),0,0,2
3:20.517,72186,(,0,0,0
3:20.556,72200,p,0,0,0
3:20.572,72206,),0,0,0
3:20.653,72235,(,0,0,1
3:20.733,72264,N,0,0,0
3:20.797,72287,),0,0,1
3:20.892,72321,(,0,0,2
3:21.003,72361,t,0,0,4
3:21.117,72402,t,0,0,4
3:21.189,72428,),0,0,2
3:21.908,72687,(,0,0,1
3:21.983,72714,N,0,0,0
3:22.056,72740,),0,0,1
3:22.164,72779,(,0,0,2
3:22.272,72818,t,0,0,4
3:22.386,72859,t,0,0,4
3:22.458,72885,),0,0,2
3:22.956,73064,(,0,0,0
3:22.981,73073,p,0,0,0
3:23.006,73082,),0,0,0
3:23.089,73112,(,0,0,1
3:23.169,73141,N,0,0,0
3:23.233,73164,),0,0,1
3:23.331,73199,(,0,0,2
3:23.456,73244,t,0,0,4
3:23.567,73284,t,0,0,4
3:23.633,73308,),0,0,2
3:24.294,73546,(,0,0,1
3:24.372,73574,N,0,0,0
3:24.417,73590,),0,0,1
3:24.569,73645,(,0,0,2
3:24.647,73673,t,0,0,4
3:24.764,73715,t,0,0,4
3:24.836,73741,),0,0,2
3:25.492,73977,(,0,0,1
3:25.567,74004,N,0,0,0
3:25.606,74018,),0,0,1
3:25.728,74062,(,0,0,2
3:25.842,74103,t,0,0,4
3:25.947,74141,t,0,0,4
3:26.011,74164,),0,0,2
3:26.542,74355,(,0,0,0
3:26.589,74372,p,0,0,0
3:26.647,74393,),0,0,0
3:26.675,74403,(,0,0,1
3:26.753,74431,N,0,0,0
3:26.831,74459,),0,0,1
3:26.956,74504,(,0,0,2
3:27.050,74538,t,0,0,4
3:27.164,74579,t,0,0,4
3:27.247,74609,),0,0,2
3:27.917,74850,(,0,0,1
3:27.994,74878,N,0,0,0
3:28.064,74903,),0,0,1
3:28.167,74940,(,0,0,2
3:28.264,74975,t,0,0,4
3:28.364,75011,t,0,0,4
3:28.442,75039,),0,0,2
3:29.103,75277,(,0,0,1
3:29.178,75304,N,0,0,0
3:29.244,75328,),0,0,1
3:29.331,75359,(,0,0,2
3:29.456,75404,t,0,0,4
3:29.564,75443,t,0,0,4
3:29.631,75467,),0,0,2
3:30.331,75719,(,0,0,1
3:30.411,75748,N,0,0,0
3:30.489,75776,),0,0,1
3:30.603,75817,(,0,0,2
3:30.703,75853,t,0,0,4
3:30.819,75895,t,0,0,4
3:30.903,75925,),0,0,2
3:31.586,76171,(,0,0,1
3:31.664,76199,N,0,0,0
3:31.736,76225,),0,0,1
3:31.856,76268,(,0,0,2
3:31.947,76301,t,0,0,4
3:32.056,76340,t,0,0,4
3:32.128,76366,),0,0,2
3:32.875,76635,(,0,0,1
3:32.950,76662,N,0,0,0
3:33.017,76686,),0,0,1
3:33.103,76717,(,0,0,2
3:33.219,76759,t,0,0,4
3:33.331,76799,t,0,0,4
3:33.414,76829,),0,0,2
3:34.092,77073,(,0,0,1
3:34.169,77101,N,0,0,0
3:34.233,77124,),0,0,1
3:34.367,77172,(,0,0,2
3:34.453,77203,t,0,0,4
3:34.572,77246,t,0,0,4
3:34.647,77273,),0,0,2
3:35.322,77516,(,0,0,1
3:35.400,77544,N,0,0,0
3:35.467,77568,),0,0,1
3:35.564,77603,(,0,0,2
3:35.675,77643,t,0,0,4
3:35.789,77684,t,0,0,4
3:35.850,77706,),0,0,2
3:36.564,77963,(,0,0,1
3:36.636,77989,N,0,0,0
3:36.703,78013,),0,0,1
3:36.825,78057,(,0,0,2
3:36.903,78085,t,0,0,4
3:37.011,78124,t,0,0,4
3:37.086,78151,),0,0,2
3:37.772,78398,(,0,0,1
3:37.839,78422,N,0,0,0
3:37.903,78445,),0,0,1
3:38.006,78482,(,0,0,2
3:38.125,78525,t,0,0,4
3:38.239,78566,t,0,0,4
3:38.314,78593,),0,0,2
3:38.869,78793,(,0,0,0
3:38.897,78803,p,0,0,0
3:38.914,78809,),0,0,0
3:39.008,78843,(,0,0,1
3:39.086,78871,N,0,0,0
3:39.161,78898,),0,0,1
3:39.256,78932,(,0,0,2
3:39.369,78973,t,0,0,4
3:39.478,79012,t,0,0,4
3:39.550,79038,),0,0,2
3:40.086,79231,(,0,0,0
3:40.108,79239,p,0,0,0
3:40.131,79247,),0,0,0
3:40.225,79281,(,0,0,1
3:40.300,79308,N,0,0,0
3:40.369,79333,),0,0,1
3:40.464,79367,(,0,0,2
3:40.572,79406,t,0,0,4
3:40.686,79447,t,0,0,4
3:40.747,79469,),0,0,2
3:41.506,79742,(,0,0,1
3:41.572,79766,N,0,0,0
3:41.642,79791,),0,0,1
3:41.767,79836,(,0,0,2
3:41.861,79870,t,0,0,4
3:41.975,79911,t,0,0,4
3:42.053,79939,),0,0,2
3:42.772,80198,(,0,0,1
3:42.853,80227,N,0,0,0
3:42.922,80252,),0,0,1
3:43.036,80293,(,0,0,2
3:43.133,80328,t,0,0,4
3:43.242,80367,t,0,0,4
3:43.317,80394,),0,0,2
3:44.019,80647,(,0,0,1
3:44.100,80676,N,0,0,0
3:44.169,80701,),0,0,1
3:44.289,80744,(,0,0,2
3:44.375,80775,t,0,0,4
3:44.486,80815,t,0,0,4
3:44.561,80842,),0,0,2
3:45.269,81097,(,0,0,1
3:45.333,81120,N,0,0,0
3:45.400,81144,),0,0,1
3:45.500,81180,(,0,0,2
3:45.594,81214,t,0,0,4
3:45.717,81258,t,0,0,4
3:45.792,81285,),0,0,2
3:46.481,81533,(,0,0,1
3:46.553,81559,N,0,0,0
3:46.614,81581,),0,0,1
3:46.742,81627,(,0,0,2
3:46.828,81658,t,0,0,4
3:46.942,81699,t,0,0,4
3:47.014,81725,),0,0,2
3:47.717,81978,(,0,0,1
3:47.792,82005,N,0,0,0
3:47.869,82033,),0,0,1
3:47.972,82070,(,0,0,2
3:48.067,82104,t,0,0,4
3:48.169,82141,t,0,0,4
3:48.242,82167,),0,0,2
3:48.928,82414,(,0,0,1
3:49.006,82442,N,0,0,0
3:49.067,82464,),0,0,1
3:49.194,82510,(,0,0,2
3:49.275,82539,t,0,0,4
3:49.397,82583,t,0,0,4
3:49.472,82610,),0,0,2
3:50.144,82852,(,0,0,1
3:50.219,82879,N,0,0,0
3:50.283,82902,),0,0,1
3:50.375,82935,(,0,0,2
3:50.497,82979,t,0,0,4
3:50.608,83019,t,0,0,4
3:50.681,83045,),0,0,2
3:51.350,83286,(,0,0,1
3:51.433,83316,N,0,0,0
3:51.503,83341,),0,0,1
3:51.608,83379,(,0,0,2
3:51.703,83413,t,0,0,4
3:51.814,83453,t,0,0,4
3:51.886,83479,),0,0,2
3:52.553,83719,(,0,0,1
3:52.631,83747,N,0,0,0
3:52.700,83772,),0,0,1
3:52.814,83813,(,0,0,2
3:52.908,83847,t,0,0,4
3:53.025,83889,t,0,0,4
3:53.089,83912,),0,0,2
3:53.797,84167,(,0,0,1
3:53.875,84195,N,0,0,0
3:53.942,84219,),0,0,1
3:54.075,84267,(,0,0,2
3:54.153,84295,t,0,0,4
3:54.264,84335,t,0,0,4
3:54.333,84360,),0,0,2
3:55.017,84606,(,0,0,1
3:55.100,84636,N,0,0,0
3:55.172,84662,),0,0,1
3:55.300,84708,(,0,0,2
3:55.392,84741,t,0,0,4
3:55.506,84782,t,0,0,4
3:55.564,84803,),0,0,2
3:56.264,85055,(,0,0,1
3:56.339,85082,N,0,0,0
3:56.406,85106,),0,0,1
3:56.511,85144,(,0,0,2
3:56.594,85174,t,0,0,4
3:56.708,85215,t,0,0,4
3:56.781,85241,),0,0,2
3:57.458,85485,(,0,0,1
3:57.536,85513,N,0,0,0
3:57.603,85537,),0,0,1
3:57.708,85575,(,0,0,2
3:57.803,85609,t,0,0,4
3:57.914,85649,t,0,0,4
3:57.986,85675,),0,0,2
3:58.525,85869,(,0,0,0
3:58.572,85886,p,0,0,0
3:58.625,85905,),0,0,0
3:58.658,85917,(,0,0,1
3:58.739,85946,N,0,0,0
3:58.808,85971,),0,0,1
3:58.967,86028,(,0,0,2
3:59.028,86050,t,0,0,4
3:59.142,86091,t,0,0,4
3:59.203,86113,),0,0,2
3:59.881,86357,(,0,0,1
3:59.956,86384,N,0,0,0
4:00.017,86406,),0,0,1
4:00.111,86440,(,0,0,2
4:00.219,86479,t,0,0,4
4:00.322,86516,t,0,0,4
4:00.406,86546,),0,0,2
4:00.969,86749,(,0,0,0
4:01.017,86766,p,0,0,0
4:01.069,86785,),0,0,0
4:01.094,86794,(,0,0,1
4:01.169,86821,N,0,0,0
4:01.239,86846,),0,0,1
4:01.317,86874,(,0,0,2
4:01.442,86919,t,0,0,4
4:01.550,86958,t,0,0,4
4:01.628,86986,),0,0,2
4:02.289,87224,(,0,0,1
4:02.367,87252,N,0,0,0
4:02.411,87268,),0,0,1
4:02.522,87308,(,0,0,2
4:02.650,87354,t,0,0,4
4:02.761,87394,t,0,0,4
4:02.828,87418,),0,0,2
4:03.361,87610,(,0,0,0
4:03.414,87629,p,0,0,0
4:03.469,87649,),0,0,0
4:03.494,87658,(,0,0,1
4:03.569,87685,N,0,0,0
4:03.644,87712,),0,0,1
4:03.736,87745,(,0,0,2
4:03.850,87786,t,0,0,4
4:03.956,87824,t,0,0,4
4:04.033,87852,),0,0,2
4:04.736,88105,(,0,0,1
4:04.814,88133,N,0,0,0
4:04.881,88157,),0,0,1
4:04.978,88192,(,0,0,2
4:05.086,88231,t,0,0,4
4:05.194,88270,t,0,0,4
4:05.269,88297,),0,0,2
4:05.958,88545,(,0,0,1
4:06.042,88575,N,0,0,0
4:06.111,88600,),0,0,1
4:06.239,88646,(,0,0,2
4:06.344,88684,t,0,0,4
4:06.461,88726,t,0,0,4
4:06.531,88751,),0,0,2
4:07.056,88940,(,0,0,0
4:07.089,88952,p,0,0,0
4:07.111,88960,),0,0,0
4:07.200,88992,(,0,0,1
4:07.281,89021,N,0,0,0
4:07.347,89045,),0,0,1
4:07.469,89089,(,0,0,2
4:07.547,89117,t,0,0,4
4:07.653,89155,t,0,0,4
4:07.725,89181,),0,0,2
4:08.411,89428,(,0,0,1
4:08.492,89457,N,0,0,0
4:08.553,89479,),0,0,1
4:08.678,89524,(,0,0,2
4:08.764,89555,t,0,0,4
4:08.875,89595,t,0,0,4
4:08.956,89624,),0,0,2
4:09.594,89854,(,0,0,1
4:09.675,89883,N,0,0,0
4:09.747,89909,),0,0,1
4:09.844,89944,(,0,0,2
4:09.964,89987,t,0,0,4
4:10.086,90031,t,0,0,4
4:10.150,90054,),0,0,2
4:10.678,90244,(,0,0,0
4:10.714,90257,p,0,0,0
4:10.731,90263,),0,0,0
4:10.808,90291,(,0,0,1
4:10.886,90319,N,0,0,0
4:10.956,90344,),0,0,1
4:11.047,90377,(,0,0,2
4:11.156,90416,t,0,0,4
4:11.261,90454,t,0,0,4
4:11.339,90482,),0,0,2
4:12.028,90730,(,0,0,1
4:12.106,90758,N,0,0,0
4:12.175,90783,),0,0,1
4:12.281,90821,(,0,0,2
4:12.369,90853,t,0,0,4
4:12.478,90892,t,0,0,4
4:12.556,90920,),0,0,2
4:13.197,91151,(,0,0,1
4:13.269,91177,N,0,0,0
4:13.344,91204,),0,0,1
4:13.442,91239,(,0,0,2
4:13.558,91281,t,0,0,4
4:13.669,91321,t,0,0,4
4:13.739,91346,),0,0,2
4:14.247,91529,(,0,0,0
4:14.283,91542,p,0,0,0
4:14.303,91549,),0,0,0
4:14.394,91582,(,0,0,1
4:14.464,91607,N,0,0,0
4:14.531,91631,),0,0,1
4:14.614,91661,(,0,0,2
4:14.731,91703,t,0,0,4
4:14.844,91744,t,0,0,4
4:14.911,91768,),0,0,2
4:15.617,92022,(,0,0,1
4:15.694,92050,N,0,0,0
4:15.761,92074,),0,0,1
4:15.875,92115,(,0,0,2
4:15.956,92144,t,0,0,4
4:16.067,92184,t,0,0,4
4:16.136,92209,),0,0,2
4:16.794,92446,(,0,0,1
4:16.864,92471,N,0,0,0
4:16.928,92494,),0,0,1
4:17.022,92528,(,0,0,2
4:17.156,92576,t,0,0,4
4:17.278,92620,t,0,0,4
4:17.342,92643,),0,0,2
4:18.039,92894,(,0,0,1
4:18.117,92922,N,0,0,0
4:18.189,92948,),0,0,1
4:18.283,92982,(,0,0,2
4:18.400,93024,t,0,0,4
4:18.511,93064,t,0,0,4
4:18.578,93088,),0,0,2
4:19.242,93327,(,0,0,1
4:19.317,93354,N,0,0,0
4:19.381,93377,),0,0,1
4:19.486,93415,(,0,0,2
4:19.586,93451,t,0,0,4
4:19.703,93493,t,0,0,4
4:19.767,93516,),0,0,2
4:20.275,93699,(,0,0,0
4:20.325,93717,p,0,0,0
4:20.378,93736,),0,0,0
4:20.406,93746,(,0,0,1
4:20.486,93775,N,0,0,0
4:20.553,93799,),0,0,1
4:20.678,93844,(,0,0,2
4:20.764,93875,t,0,0,4
4:20.881,93917,t,0,0,4
4:20.958,93945,),0,0,2
4:21.511,94144,(,0,0,0
4:21.547,94157,p,0,0,0
4:21.589,94172,),0,0,0
4:21.608,94179,(,0,0,1
4:21.689,94208,N,0,0,0
4:21.756,94232,),0,0,1
4:21.869,94273,(,0,0,2
4:21.964,94307,t,0,0,4
4:22.069,94345,t,0,0,4
4:22.150,94374,),0,0,2
4:22.617,94542,(,0,0,0
4:22.708,94575,p,0,0,0
4:22.767,94596,),0,0,0
4:22.797,94607,(,0,0,1
4:22.881,94637,N,0,0,0
4:22.953,94663,),0,0,1
4:23.047,94697,(,0,0,2
4:23.161,94738,t,0,0,4
4:23.269,94777,t,0,0,4
4:23.342,94803,),0,0,2
4:23.989,95036,(,0,0,1
4:24.064,95063,N,0,0,0
4:24.125,95085,),0,0,1
4:24.203,95113,(,0,0,2
4:24.308,95151,t,0,0,4
4:24.419,95191,t,0,0,4
4:24.500,95220,),0,0,2
4:25.117,95442,(,0,0,1
4:25.186,95467,N,0,0,0
4:25.250,95490,),0,0,1
4:25.372,95534,(,0,0,2
4:25.453,95563,t,0,0,4
4:25.567,95604,t,0,0,4
4:25.631,95627,),0,0,2
4:26.139,95810,(,0,0,0
4:26.194,95830,p,0,0,0
4:26.244,95848,),0,0,0
4:26.275,95859,(,0,0,1
4:26.358,95889,N,0,0,0
4:26.425,95913,),0,0,1
4:26.544,95956,(,0,0,2
4:26.639,95990,t,0,0,4
4:26.756,96032,t,0,0,4
4:26.833,96060,),0,0,2
4:27.417,96270,(,0,0,1
4:27.492,96297,N,0,0,0
4:27.561,96322,),0,0,1
4:27.644,96352,(,0,0,2
4:27.769,96397,t,0,0,4
4:27.878,96436,t,0,0,4
4:27.942,96459,),0,0,2
4:28.631,96707,(,0,0,1
4:28.703,96733,N,0,0,0
4:28.769,96757,),0,0,1
4:28.856,96788,(,0,0,2
4:28.969,96829,t,0,0,4
4:29.086,96871,t,0,0,4
4:29.164,96899,),0,0,2
4:29.767,97116,(,0,0,1
4:29.839,97142,N,0,0,0
4:29.900,97164,),0,0,1
4:30.014,97205,(,0,0,2
4:30.122,97244,t,0,0,4
4:30.239,97286,t,0,0,4
4:30.306,97310,),0,0,2
4:30.961,97546,(,0,0,1
4:31.039,97574,N,0,0,0
4:31.108,97599,),0,0,1
4:31.200,97632,(,0,0,2
4:31.306,97670,t,0,0,4
4:31.419,97711,t,0,0,4
4:31.497,97739,),0,0,2
4:32.142,97971,(,0,0,1
4:32.222,98000,N,0,0,0
4:32.292,98025,),0,0,1
4:32.389,98060,(,0,0,2
4:32.500,98100,t,0,0,4
4:32.606,98138,t,0,0,4
4:32.672,98162,),0,0,2
4:33.303,98389,(,0,0,1
4:33.369,98413,N,0,0,0
4:33.439,98438,),0,0,1
4:33.519,98467,(,0,0,2
4:33.633,98508,t,0,0,4
4:33.750,98550,t,0,0,4
4:33.833,98580,),0,0,2
4:34.447,98801,(,0,0,1
4:34.525,98829,N,0,0,0
4:34.589,98852,),0,0,1
4:34.700,98892,(,0,0,2
4:34.803,98929,t,0,0,4
4:34.917,98970,t,0,0,4
4:34.986,98995,),0,0,2
4:36.692,99609,(,0,0,1
4:36.764,99635,N,0,0,0
4:36.825,99657,),0,0,1
4:36.914,99689,(,0,0,2
4:37.028,99730,t,0,0,4
4:37.144,99772,t,0,0,4
4:37.214,99797,),0,0,2
4:37.819,100015,(,0,0,1
4:37.897,100043,N,0,0,0
4:37.942,100059,),0,0,1
4:38.061,100102,(,0,0,2
4:38.153,100135,t,0,0,4
4:38.269,100177,t,0,0,4
4:38.342,100203,),0,0,2
4:38.903,100405,(,0,0,1
4:38.981,100433,N,0,0,0
4:39.047,100457,),0,0,1
4:39.161,100498,(,0,0,2
4:39.208,100515,t,0,0,4
4:39.383,100578,t,0,0,4
4:39.450,100602,),0,0,2
4:40.017,100806,(,0,0,1
4:40.078,100828,N,0,0,0
4:40.142,100851,),0,0,1
4:40.286,100903,(,0,0,2
4:40.344,100924,t,0,0,4
4:40.464,100967,t,0,0,4
4:40.539,100994,),0,0,2
4:41.056,101180,(,0,0,1
4:41.125,101205,N,0,0,0
4:41.258,101253,),0,0,1
4:41.419,101311,(,0,0,2
4:41.511,101344,t,0,0,0
4:41.606,101378,),0,0,2
4:42.111,101560,(,0,0,1
4:42.181,101585,N,0,0,0
4:42.256,101612,),0,0,1
4:42.453,101683,(,0,0,2
4:42.550,101718,t,0,0,0
4:42.642,101751,),0,0,2
4:43.119,101923,(,0,0,1
4:43.197,101951,N,0,0,0
4:43.267,101976,),0,0,1
4:43.350,102006,(,0,0,2
4:43.461,102046,t,0,0,4
4:43.572,102086,t,0,0,4
4:43.656,102116,),0,0,2
4:44.194,102310,(,0,0,1
4:44.228,102322,N,0,0,0
4:44.269,102337,),0,0,1
4:44.494,102418,(,0,0,2
4:44.578,102448,t,0,0,0
4:44.611,102460,),0,0,2
4:45.189,102668,(,0,0,1
4:45.258,102693,N,0,0,0
4:45.325,102717,),0,0,1
4:45.367,102732,(,0,0,2
4:45.411,102748,t,0,0,4
4:45.603,102817,t,0,0,4
4:45.706,102854,),0,0,2
4:46.192,103029,(,0,0,1
4:46.261,103054,N,0,0,0
4:46.328,103078,),0,0,1
4:46.444,103120,(,0,0,2
4:46.481,103133,t,0,0,4
4:46.611,103180,t,0,0,4
4:46.742,103227,),0,0,2
4:47.222,103400,(,0,0,1
4:47.256,103412,N,0,0,0
4:47.331,103439,),0,0,1
4:47.547,103517,(,0,0,2
4:47.625,103545,t,0,0,0
4:47.708,103575,),0,0,2
4:48.206,103754,(,0,0,1
4:48.236,103765,N,0,0,0
4:48.308,103791,),0,0,1
4:48.469,103849,(,0,0,2
4:48.497,103859,t,0,0,4
4:48.611,103900,t,0,0,4
4:48.667,103920,),0,0,2
4:49.211,104116,(,0,0,1
4:49.236,104125,N,0,0,0
4:49.294,104146,),0,0,1
4:49.550,104238,(,0,0,2
4:49.589,104252,t,0,0,5
4:49.778,104320,t,0,0,5
4:49.814,104333,),0,0,2
4:50.172,104462,(,0,0,1
4:50.203,104473,N,0,0,0
4:50.269,104497,),0,0,1
4:50.472,104570,(,0,0,2
4:50.583,104610,t,0,0,0
4:50.650,104634,),0,0,2
4:51.119,104803,(,0,0,1
4:51.186,104827,N,0,0,0
4:51.225,104841,),0,0,1
4:51.325,104877,(,0,0,2
4:51.442,104919,t,0,0,4
4:51.561,104962,t,0,0,4
4:51.650,104994,),0,0,2
4:52.056,105140,(,0,0,1
4:52.122,105164,N,0,0,0
4:52.164,105179,),0,0,1
4:52.406,105266,(,0,0,2
4:52.492,105297,t,0,0,0
4:52.569,105325,),0,0,2
4:52.992,105477,(,0,0,1
4:53.058,105501,N,0,0,0
4:53.097,105515,),0,0,1
4:53.319,105595,(,0,0,2
4:53.414,105629,t,0,0,0
4:53.497,105659,),0,0,2
4:53.917,105810,(,0,0,1
4:53.989,105836,N,0,0,0
4:54.064,105863,),0,0,1
4:54.261,105934,(,0,0,2
4:54.361,105970,t,0,0,0
4:54.439,105998,),0,0,2
4:54.864,106151,(,0,0,1
4:54.928,106174,N,0,0,0
4:54.997,106199,),0,0,1
4:55.200,106272,(,0,0,2
4:55.286,106303,t,0,0,0
4:55.350,106326,),0,0,2
4:55.778,106480,(,0,0,1
4:55.850,106506,N,0,0,0
4:55.892,106521,),0,0,1
4:56.128,106606,(,0,0,2
4:56.225,106641,t,0,0,0
4:56.308,106671,),0,0,2
4:56.775,106839,(,0,0,1
4:56.806,106850,N,0,0,0
4:56.869,106873,),0,0,1
4:57.069,106945,(,0,0,2
4:57.164,106979,t,0,0,0
4:57.250,107010,),0,0,2
4:57.664,107159,(,0,0,1
4:57.728,107182,N,0,0,0
4:57.797,107207,),0,0,1
4:58.008,107283,(,0,0,2
4:58.103,107317,t,0,0,0
4:58.189,107348,),0,0,2
4:58.617,107502,(,0,0,1
4:58.686,107527,N,0,0,0
4:58.742,107547,),0,0,1
4:58.947,107621,(,0,0,2
4:59.042,107655,t,0,0,0
4:59.119,107683,),0,0,2
4:59.617,107862,(,0,0,1
4:59.647,107873,N,0,0,0
4:59.719,107899,),0,0,1
4:59.919,107971,(,0,0,2
5:00.011,108004,t,0,0,0
5:00.106,108038,),0,0,2
5:00.422,108152,(,0,0,1
5:00.528,108190,N,0,0,0
5:00.631,108227,),0,0,1
5:00.658,108237,(,0,0,2
5:00.794,108286,t,0,0,0
5:01.042,108375,),0,0,2
5:01.517,108546,(,0,0,1
5:01.586,108571,N,0,0,0
5:01.628,108586,),0,0,1
5:01.869,108673,(,0,0,2
5:01.972,108710,t,0,0,0
5:02.053,108739,),0,0,2
5:02.519,108907,(,0,0,1
5:02.586,108931,N,0,0,0
5:02.653,108955,),0,0,1
5:02.858,109029,(,0,0,2
5:02.950,109062,t,0,0,0
5:03.025,109089,),0,0,2
5:03.478,109252,(,0,0,1
5:03.550,109278,N,0,0,0
5:03.636,109309,),0,0,1
5:03.733,109344,(,0,0,2
5:03.761,109354,t,0,0,1
5:03.789,109364,),0,0,2
5:04.092,109473,(,0,0,1
5:04.150,109494,N,0,0,0
5:04.261,109534,),0,0,1
5:04.297,109547,(,0,0,2
5:04.392,109581,t,0,0,0
5:04.606,109658,),0,0,2
5:05.161,109858,(,0,0,1
5:05.231,109883,N,0,0,0
5:05.300,109908,),0,0,1
5:05.514,109985,(,0,0,2
5:05.614,110021,t,0,0,0
5:05.700,110052,),0,0,2
5:06.164,110219,(,0,0,1
5:06.236,110245,N,0,0,0
5:06.303,110269,),0,0,1
5:06.500,110340,(,0,0,2
5:06.592,110373,t,0,0,0
5:06.667,110400,),0,0,2
5:07.125,110565,(,0,0,1
5:07.200,110592,N,0,0,0
5:07.272,110618,),0,0,1
5:07.481,110693,(,0,0,2
5:07.578,110728,t,0,0,0
5:07.664,110759,),0,0,2
5:08.136,110929,(,0,0,1
5:08.206,110954,N,0,0,0
5:08.275,110979,),0,0,1
5:08.483,111054,(,0,0,2
5:08.572,111086,t,0,0,0
5:08.656,111116,),0,0,2
5:09.128,111286,(,0,0,1
5:09.200,111312,N,0,0,0
5:09.272,111338,),0,0,1
5:09.467,111408,(,0,0,2
5:09.561,111442,t,0,0,0
5:09.633,111468,),0,0,2
5:10.156,111656,(,0,0,1
5:10.225,111681,N,0,0,0
5:10.269,111697,),0,0,1
5:10.497,111779,(,0,0,2
5:10.581,111809,t,0,0,0
5:10.661,111838,),0,0,2
5:11.233,112044,(,0,0,1
5:11.306,112070,N,0,0,0
5:11.364,112091,),0,0,1
5:11.547,112157,(,0,0,2
5:11.644,112192,t,0,0,0
5:11.761,112234,),0,0,2
5:12.306,112430,(,0,0,1
5:12.342,112443,N,0,0,0
5:12.392,112461,),0,0,1
5:12.514,112505,(,0,0,2
5:12.617,112542,t,0,0,0
5:12.844,112624,),0,0,2
5:13.333,112800,(,0,0,1
5:13.392,112821,N,0,0,0
5:13.422,112832,),0,0,1
5:13.456,112844,(,0,0,2
5:13.667,112920,t,0,0,0
5:13.908,113007,),0,0,2
5:30.267,118896,(,0,0,1
5:30.325,118917,N,0,0,0
5:30.378,118936,),0,0,1
5:30.489,118976,(,0,0,2
5:30.586,119011,t,0,0,0
5:30.828,119098,),0,0,2
5:32.447,119681,(,0,0,1
5:32.511,119704,N,0,0,0
5:32.581,119729,),0,0,1
5:32.769,119797,(,0,0,2
5:32.875,119835,t,0,0,0
5:32.958,119865,),0,0,2
5:33.514,120065,(,0,0,1
5:33.583,120090,N,0,0,0
5:33.625,120105,),0,0,1
5:33.858,120189,(,0,0,2
5:33.939,120218,t,0,0,0
5:34.022,120248,),0,0,2
5:34.553,120439,(,0,0,1
5:34.617,120462,N,0,0,0
5:34.658,120477,),0,0,1
5:34.883,120558,(,0,0,2
5:34.972,120590,t,0,0,0
5:35.069,120625,),0,0,2
5:35.633,120828,(,0,0,1
5:35.703,120853,N,0,0,0
5:35.744,120868,),0,0,1
5:35.967,120948,(,0,0,2
5:36.061,120982,t,0,0,0
5:36.158,121017,),0,0,2
5:36.683,121206,(,0,0,1
5:36.750,121230,N,0,0,0
5:36.792,121245,),0,0,1
5:37.028,121330,(,0,0,2
5:37.119,121363,t,0,0,0
5:37.208,121395,),0,0,2
5:37.764,121595,(,0,0,1
5:37.825,121617,N,0,0,0
5:37.864,121631,),0,0,1
5:38.097,121715,(,0,0,2
5:38.183,121746,t,0,0,0
5:38.269,121777,),0,0,2
5:38.836,121981,(,0,0,1
5:38.908,122007,N,0,0,0
5:38.950,122022,),0,0,1
5:39.186,122107,(,0,0,2
5:39.272,122138,t,0,0,0
5:39.361,122170,),0,0,2
5:39.914,122369,(,0,0,1
5:39.981,122393,N,0,0,0
5:40.019,122407,),0,0,1
5:40.239,122486,(,0,0,2
5:40.328,122518,t,0,0,0
5:40.417,122550,),0,0,2
5:40.978,122752,(,0,0,1
5:41.044,122776,N,0,0,0
5:41.086,122791,),0,0,1
5:41.308,122871,(,0,0,2
5:41.397,122903,t,0,0,0
5:41.481,122933,),0,0,2
5:42.019,123127,(,0,0,1
5:42.081,123149,N,0,0,0
5:42.150,123174,),0,0,1
5:42.350,123246,(,0,0,2
5:42.436,123277,t,0,0,0
5:42.525,123309,),0,0,2
5:43.069,123505,(,0,0,1
5:43.136,123529,N,0,0,0
5:43.214,123557,),0,0,1
5:43.408,123627,(,0,0,2
5:43.497,123659,t,0,0,0
5:43.583,123690,),0,0,2
5:44.150,123894,(,0,0,1
5:44.219,123919,N,0,0,0
5:44.289,123944,),0,0,1
5:44.508,124023,(,0,0,2
5:44.600,124056,t,0,0,0
5:44.694,124090,),0,0,2
5:45.297,124307,(,0,0,1
5:45.322,124316,N,0,0,0
5:45.392,124341,),0,0,1
5:45.589,124412,(,0,0,2
5:45.683,124446,t,0,0,0
5:45.767,124476,),0,0,2
5:46.333,124680,(,0,0,1
5:46.403,124705,N,0,0,0
5:46.483,124734,),0,0,1
5:46.689,124808,(,0,0,2
5:46.764,124835,t,0,0,0
5:46.856,124868,),0,0,2
5:47.475,125091,(,0,0,1
5:47.506,125102,N,0,0,0
5:47.567,125124,),0,0,1
5:47.753,125191,(,0,0,2
5:47.850,125226,t,0,0,0
5:47.933,125256,),0,0,2
5:48.458,125445,(,0,0,1
5:48.533,125472,N,0,0,0
5:48.600,125496,),0,0,1
5:48.803,125569,(,0,0,2
5:48.894,125602,t,0,0,0
5:48.975,125631,),0,0,2
5:49.536,125833,(,0,0,1
5:49.606,125858,N,0,0,0
5:49.683,125886,),0,0,1
5:49.892,125961,(,0,0,2
5:49.978,125992,t,0,0,0
5:50.064,126023,),0,0,2
5:50.594,126214,(,0,0,1
5:50.661,126238,N,0,0,0
5:50.728,126262,),0,0,1
5:50.936,126337,(,0,0,2
5:51.011,126364,t,0,0,0
5:51.097,126395,),0,0,2
5:51.650,126594,(,0,0,1
5:51.736,126625,N,0,0,0
5:51.817,126654,),0,0,1
5:52.019,126727,(,0,0,2
5:52.103,126757,t,0,0,0
5:52.183,126786,),0,0,2
5:52.742,126987,(,0,0,1
5:52.811,127012,N,0,0,0
5:52.886,127039,),0,0,1
5:53.069,127105,(,0,0,2
5:53.153,127135,t,0,0,0
5:53.228,127162,),0,0,2
5:53.781,127361,(,0,0,1
5:53.847,127385,N,0,0,0
5:53.919,127411,),0,0,1
5:54.008,127443,(,0,0,2
5:54.083,127470,t,0,0,4
5:54.206,127514,t,0,0,4
5:54.289,127544,),0,0,2
5:54.861,127750,(,0,0,1
5:54.931,127775,N,0,0,0
5:54.972,127790,),0,0,1
5:55.211,127876,(,0,0,2
5:55.297,127907,t,0,0,0
5:55.389,127940,),0,0,2
5:55.914,128129,(,0,0,1
5:55.989,128156,N,0,0,0
5:56.031,128171,),0,0,1
5:56.131,128207,(,0,0,2
5:56.225,128241,t,0,0,4
5:56.347,128285,t,0,0,4
5:56.433,128316,),0,0,2
5:56.967,128508,(,0,0,1
5:57.047,128537,N,0,0,0
5:57.086,128551,),0,0,1
5:57.325,128637,(,0,0,2
5:57.428,128674,t,0,0,0
5:57.514,128705,),0,0,2
5:58.047,128897,(,0,0,1
5:58.125,128925,N,0,0,0
5:58.169,128941,),0,0,1
5:58.406,129026,(,0,0,2
5:58.497,129059,t,0,0,0
5:58.583,129090,),0,0,2
5:59.117,129282,(,0,0,1
5:59.189,129308,N,0,0,0
5:59.261,129334,),0,0,1
5:59.475,129411,(,0,0,2
5:59.553,129439,t,0,0,0
5:59.633,129468,),0,0,2
6:00.169,129661,(,0,0,1
6:00.236,129685,N,0,0,0
6:00.303,129709,),0,0,1
6:00.511,129784,(,0,0,2
6:00.592,129813,t,0,0,0
6:00.681,129845,),0,0,2
6:01.219,130039,(,0,0,1
6:01.292,130065,N,0,0,0
6:01.361,130090,),0,0,1
6:01.558,130161,(,0,0,2
6:01.644,130192,t,0,0,0
6:01.725,130221,),0,0,2
6:02.311,130432,(,0,0,1
6:02.342,130443,N,0,0,0
6:02.400,130464,),0,0,1
6:02.600,130536,(,0,0,2
6:02.700,130572,t,0,0,0
6:02.783,130602,),0,0,2
6:03.339,130802,(,0,0,1
6:03.406,130826,N,0,0,0
6:03.467,130848,),0,0,1
6:03.553,130879,(,0,0,2
6:03.622,130904,t,0,0,4
6:03.775,130959,t,0,0,4
6:03.850,130986,),0,0,2
6:04.428,131194,(,0,0,1
6:04.458,131205,N,0,0,0
6:04.531,131231,),0,0,1
6:04.747,131309,(,0,0,2
6:04.831,131339,t,0,0,0
6:04.911,131368,),0,0,2
6:05.453,131563,(,0,0,1
6:05.522,131588,N,0,0,0
6:05.592,131613,),0,0,1
6:05.800,131688,(,0,0,2
6:05.881,131717,t,0,0,0
6:05.967,131748,),0,0,2
6:06.608,131979,(,0,0,1
6:06.639,131990,N,0,0,0
6:06.706,132014,),0,0,1
6:06.919,132091,(,0,0,2
6:07.008,132123,t,0,0,0
6:07.086,132151,),0,0,2
6:07.672,132362,(,0,0,1
6:07.703,132373,N,0,0,0
6:07.769,132397,),0,0,1
6:07.839,132422,(,0,0,2
6:07.942,132459,t,0,0,4
6:08.064,132503,t,0,0,4
6:08.144,132532,),0,0,2
6:08.794,132766,(,0,0,1
6:08.828,132778,N,0,0,0
6:08.894,132802,),0,0,1
6:09.097,132875,(,0,0,2
6:09.186,132907,t,0,0,0
6:09.272,132938,),0,0,2
6:09.847,133145,(,0,0,1
6:09.875,133155,N,0,0,0
6:09.936,133177,),0,0,1
6:10.019,133207,(,0,0,2
6:10.111,133240,t,0,0,4
6:10.236,133285,t,0,0,4
6:10.325,133317,),0,0,2
6:10.953,133543,(,0,0,1
6:10.986,133555,N,0,0,0
6:11.061,133582,),0,0,1
6:11.264,133655,(,0,0,2
6:11.344,133684,t,0,0,0
6:11.428,133714,),0,0,2
6:11.989,133916,(,0,0,1
6:12.058,133941,N,0,0,0
6:12.131,133967,),0,0,1
6:12.342,134043,(,0,0,2
6:12.439,134078,t,0,0,0
6:12.525,134109,),0,0,2
6:13.167,134340,(,0,0,1
6:13.197,134351,N,0,0,0
6:13.267,134376,),0,0,1
6:13.458,134445,(,0,0,2
6:13.553,134479,t,0,0,0
6:13.619,134503,),0,0,2
6:14.256,134732,(,0,0,1
6:14.289,134744,N,0,0,0
6:14.364,134771,),0,0,1
6:14.564,134843,(,0,0,2
6:14.644,134872,t,0,0,0
6:14.725,134901,),0,0,2
6:15.383,135138,(,0,0,1
6:15.447,135161,N,0,0,0
6:15.508,135183,),0,0,1
6:15.703,135253,(,0,0,2
6:15.794,135286,t,0,0,0
6:15.881,135317,),0,0,2
6:16.489,135536,(,0,0,1
6:16.558,135561,N,0,0,0
6:16.625,135585,),0,0,1
6:16.836,135661,(,0,0,2
6:16.919,135691,t,0,0,0
6:17.011,135724,),0,0,2
6:17.589,135932,(,0,0,1
6:17.667,135960,N,0,0,0
6:17.711,135976,),0,0,1
6:17.961,136066,(,0,0,2
6:18.053,136099,t,0,0,0
6:18.147,136133,),0,0,2
6:18.722,136340,(,0,0,1
6:18.803,136369,N,0,0,0
6:18.844,136384,),0,0,1
6:19.075,136467,(,0,0,2
6:19.164,136499,t,0,0,0
6:19.250,136530,),0,0,2
6:19.836,136741,(,0,0,1
6:19.917,136770,N,0,0,0
6:19.964,136787,),0,0,1
6:20.200,136872,(,0,0,2
6:20.289,136904,t,0,0,0
6:20.375,136935,),0,0,2
6:20.964,137147,(,0,0,1
6:21.036,137173,N,0,0,0
6:21.103,137197,),0,0,1
6:21.289,137264,(,0,0,2
6:21.378,137296,t,0,0,0
6:21.464,137327,),0,0,2
6:22.081,137549,(,0,0,1
6:22.106,137558,N,0,0,0
6:22.172,137582,),0,0,1
6:22.381,137657,(,0,0,2
6:22.469,137689,t,0,0,0
6:22.553,137719,),0,0,2
6:23.131,137927,(,0,0,1
6:23.203,137953,N,0,0,0
6:23.272,137978,),0,0,1
6:23.489,138056,(,0,0,2
6:23.581,138089,t,0,0,0
6:23.672,138122,),0,0,2
6:24.278,138340,(,0,0,1
6:24.308,138351,N,0,0,0
6:24.372,138374,),0,0,1
6:24.575,138447,(,0,0,2
6:24.661,138478,t,0,0,0
6:24.750,138510,),0,0,2
6:25.328,138718,(,0,0,1
6:25.411,138748,N,0,0,0
6:25.494,138778,),0,0,1
6:25.700,138852,(,0,0,2
6:25.786,138883,t,0,0,0
6:25.869,138913,),0,0,2
6:26.478,139132,(,0,0,1
6:26.508,139143,N,0,0,0
6:26.575,139167,),0,0,1
6:26.772,139238,(,0,0,2
6:26.844,139264,t,0,0,0
6:26.922,139292,),0,0,2
6:27.544,139516,(,0,0,1
6:27.572,139526,N,0,0,0
6:27.639,139550,),0,0,1
6:27.844,139624,(,0,0,2
6:27.928,139654,t,0,0,0
6:28.011,139684,),0,0,2
6:28.581,139889,(,0,0,1
6:28.608,139899,N,0,0,0
6:28.678,139924,),0,0,1
6:28.769,139957,(,0,0,2
6:28.853,139987,t,0,0,4
6:28.978,140032,t,0,0,4
6:29.058,140061,),0,0,2
6:29.653,140275,(,0,0,1
6:29.717,140298,N,0,0,0
6:29.800,140328,),0,0,1
6:29.997,140399,(,0,0,2
6:30.083,140430,t,0,0,0
6:30.175,140463,),0,0,2
6:30.792,140685,(,0,0,1
6:30.828,140698,N,0,0,0
6:30.903,140725,),0,0,1
6:31.117,140802,(,0,0,2
6:31.211,140836,t,0,0,0
6:31.292,140865,),0,0,2
6:31.883,141078,(,0,0,1
6:31.953,141103,N,0,0,0
6:32.033,141132,),0,0,1
6:32.236,141205,(,0,0,2
6:32.311,141232,t,0,0,0
6:32.392,141261,),0,0,2
6:32.992,141477,(,0,0,1
6:33.058,141501,N,0,0,0
6:33.131,141527,),0,0,1
6:33.322,141596,(,0,0,2
6:33.411,141628,t,0,0,0
6:33.492,141657,),0,0,2
6:34.081,141869,(,0,0,1
6:34.156,141896,N,0,0,0
6:34.233,141924,),0,0,1
6:34.450,142002,(,0,0,2
6:34.528,142030,t,0,0,0
6:34.619,142063,),0,0,2
6:35.203,142273,(,0,0,1
6:35.272,142298,N,0,0,0
6:35.339,142322,),0,0,1
6:35.539,142394,(,0,0,2
6:35.631,142427,t,0,0,0
6:35.711,142456,),0,0,2
6:36.281,142661,(,0,0,1
6:36.344,142684,N,0,0,0
6:36.383,142698,),0,0,1
6:36.639,142790,(,0,0,2
6:36.731,142823,t,0,0,0
6:36.817,142854,),0,0,2
6:37.419,143071,(,0,0,1
6:37.489,143096,N,0,0,0
6:37.531,143111,),0,0,1
6:37.758,143193,(,0,0,2
6:37.842,143223,t,0,0,0
6:37.919,143251,),0,0,2
6:38.522,143468,(,0,0,1
6:38.583,143490,N,0,0,0
6:38.622,143504,),0,0,1
6:38.856,143588,(,0,0,2
6:38.936,143617,t,0,0,0
6:39.017,143646,),0,0,2
6:39.672,143882,(,0,0,1
6:39.744,143908,N,0,0,0
6:39.808,143931,),0,0,1
6:40.022,144008,(,0,0,2
6:40.111,144040,t,0,0,0
6:40.194,144070,),0,0,2
6:40.800,144288,(,0,0,1
6:40.867,144312,N,0,0,0
6:40.942,144339,),0,0,1
6:41.153,144415,(,0,0,2
6:41.228,144442,t,0,0,0
6:41.311,144472,),0,0,2
6:41.983,144714,(,0,0,1
6:42.061,144742,N,0,0,0
6:42.106,144758,),0,0,1
6:42.361,144850,(,0,0,2
6:42.447,144881,t,0,0,0
6:42.525,144909,),0,0,2
6:43.122,145124,(,0,0,1
6:43.194,145150,N,0,0,0
6:43.236,145165,),0,0,1
6:43.464,145247,(,0,0,2
6:43.550,145278,t,0,0,0
6:43.625,145305,),0,0,2
6:48.908,147207,(,0,0,1
6:48.936,147217,N,0,0,0
6:49.000,147240,),0,0,1
6:49.211,147316,(,0,0,2
6:49.297,147347,t,0,0,0
6:49.372,147374,),0,0,2
6:49.967,147588,(,0,0,1
6:50.036,147613,N,0,0,0
6:50.111,147640,),0,0,1
6:50.317,147714,(,0,0,2
6:50.400,147744,t,0,0,0
6:50.481,147773,),0,0,2
6:51.108,147999,(,0,0,1
6:51.178,148024,N,0,0,0
6:51.250,148050,),0,0,1
6:51.469,148129,(,0,0,2
6:51.561,148162,t,0,0,0
6:51.644,148192,),0,0,2
6:53.319,148795,(,0,0,1
6:53.389,148820,N,0,0,0
6:53.453,148843,),0,0,1
6:53.539,148874,(,0,0,2
6:53.625,148905,t,0,0,4
6:53.750,148950,t,0,0,4
6:53.836,148981,),0,0,2
6:54.406,149186,(,0,0,1
6:54.467,149208,N,0,0,0
6:54.533,149232,),0,0,1
6:54.739,149306,(,0,0,2
6:54.831,149339,t,0,0,0
6:54.911,149368,),0,0,2
6:55.553,149599,(,0,0,1
6:55.589,149612,N,0,0,0
6:55.653,149635,),0,0,1
6:55.872,149714,(,0,0,2
6:55.958,149745,t,0,0,0
6:56.036,149773,),0,0,2
6:56.619,149983,(,0,0,1
6:56.686,150007,N,0,0,0
6:56.761,150034,),0,0,1
6:56.983,150114,(,0,0,2
6:57.067,150144,t,0,0,0
6:57.147,150173,),0,0,2
6:57.733,150384,(,0,0,1
6:57.811,150412,N,0,0,0
6:57.881,150437,),0,0,1
6:58.081,150509,(,0,0,2
6:58.169,150541,t,0,0,0
6:58.256,150572,),0,0,2
6:58.939,150818,(,0,0,1
6:59.006,150842,N,0,0,0
6:59.081,150869,),0,0,1
6:59.283,150942,(,0,0,2
6:59.375,150975,t,0,0,0
6:59.464,151007,),0,0,2
7:00.067,151224,(,0,0,1
7:00.128,151246,N,0,0,0
7:00.192,151269,),0,0,1
7:00.303,151309,(,0,0,2
7:00.378,151336,t,0,0,4
7:00.503,151381,t,0,0,4
7:00.589,151412,),0,0,2
7:01.175,151623,(,0,0,1
7:01.242,151647,N,0,0,0
7:01.314,151673,),0,0,1
7:01.519,151747,(,0,0,2
7:01.594,151774,t,0,0,0
7:01.678,151804,),0,0,2
7:02.275,152019,(,0,0,1
7:02.344,152044,N,0,0,0
7:02.417,152070,),0,0,1
7:02.633,152148,(,0,0,2
7:02.717,152178,t,0,0,0
7:02.781,152201,),0,0,2
7:05.497,153179,(,0,0,1
7:05.572,153206,N,0,0,0
7:05.642,153231,),0,0,1
7:05.728,153262,(,0,0,2
7:05.814,153293,t,0,0,4
7:05.950,153342,t,0,0,4
7:06.031,153371,),0,0,2
7:07.667,153960,(,0,0,1
7:07.742,153987,N,0,0,0
7:07.819,154015,),0,0,1
7:08.033,154092,(,0,0,2
7:08.119,154123,t,0,0,0
7:08.203,154153,),0,0,2
7:08.775,154359,(,0,0,1
7:08.808,154371,N,0,0,0
7:08.878,154396,),0,0,1
7:09.075,154467,(,0,0,2
7:09.164,154499,t,0,0,0
7:09.244,154528,),0,0,2
7:09.881,154757,(,0,0,1
7:09.911,154768,N,0,0,0
7:09.986,154795,),0,0,1
7:10.064,154823,(,0,0,2
7:10.144,154852,t,0,0,4
7:10.275,154899,t,0,0,4
7:10.358,154929,),0,0,2
7:10.958,155145,(,0,0,1
7:10.986,155155,N,0,0,0
7:11.056,155180,),0,0,1
7:11.250,155250,(,0,0,2
7:11.342,155283,t,0,0,0
7:11.425,155313,),0,0,2
7:12.086,155551,(,0,0,1
7:12.114,155561,N,0,0,0
7:12.186,155587,),0,0,1
7:12.389,155660,(,0,0,2
7:12.478,155692,t,0,0,0
7:12.556,155720,),0,0,2
7:13.144,155932,(,0,0,1
7:13.211,155956,N,0,0,0
7:13.289,155984,),0,0,1
7:13.506,156062,(,0,0,2
7:13.597,156095,t,0,0,0
7:13.681,156125,),0,0,2
7:14.328,156358,(,0,0,1
7:14.356,156368,N,0,0,0
7:14.425,156393,),0,0,1
7:14.628,156466,(,0,0,2
7:14.714,156497,t,0,0,0
7:14.794,156526,),0,0,2
7:15.458,156765,(,0,0,1
7:15.492,156777,N,0,0,0
7:15.561,156802,),0,0,1
7:15.597,156815,(,0,0,2
7:15.742,156867,t,0,0,4
7:15.856,156908,t,0,0,4
7:15.939,156938,),0,0,2
7:21.069,158785,(,0,0,1
7:21.097,158795,N,0,0,0
7:21.169,158821,),0,0,1
7:21.364,158891,(,0,0,2
7:21.458,158925,t,0,0,0
7:21.544,158956,),0,0,2
7:22.139,159170,(,0,0,1
7:22.203,159193,N,0,0,0
7:22.267,159216,),0,0,1
7:22.483,159294,(,0,0,2
7:22.569,159325,t,0,0,0
7:22.653,159355,),0,0,2
7:23.281,159581,(,0,0,1
7:23.308,159591,N,0,0,0
7:23.386,159619,),0,0,1
7:23.581,159689,(,0,0,2
7:23.675,159723,t,0,0,0
7:23.750,159750,),0,0,2
7:24.375,159975,(,0,0,1
7:24.442,159999,N,0,0,0
7:24.517,160026,),0,0,1
7:24.736,160105,(,0,0,2
7:24.828,160138,t,0,0,0
7:24.906,160166,),0,0,2
7:25.339,160322,(,0,0,1
7:25.406,160346,N,0,0,0
7:25.475,160371,),0,0,1
7:25.681,160445,(,0,0,2
7:25.758,160473,t,0,0,0
7:25.836,160501,),0,0,2
7:26.642,160791,(,0,0,1
7:26.706,160814,N,0,0,0
7:26.769,160837,),0,0,1
7:26.978,160912,(,0,0,2
7:27.075,160947,t,0,0,0
7:27.167,160980,),0,0,2
7:27.808,161211,(,0,0,1
7:27.872,161234,N,0,0,0
7:27.944,161260,),0,0,1
7:28.050,161298,(,0,0,2
7:28.122,161324,t,0,0,4
7:28.256,161372,t,0,0,4
7:28.336,161401,),0,0,2
7:28.967,161628,(,0,0,1
7:29.033,161652,N,0,0,0
7:29.100,161676,),0,0,1
7:29.319,161755,(,0,0,2
7:29.400,161784,t,0,0,0
7:29.481,161813,),0,0,2
7:30.119,162043,(,0,0,1
7:30.242,162087,N,0,0,0
7:30.264,162095,),0,0,1
7:30.483,162174,(,0,0,2
7:30.564,162203,t,0,0,0
7:30.642,162231,),0,0,2
7:31.306,162470,(,0,0,1
7:31.383,162498,N,0,0,0
7:31.464,162527,),0,0,1
7:31.608,162579,(,0,0,2
7:31.700,162612,t,0,0,0
7:31.786,162643,),0,0,2
7:32.408,162867,(,0,0,1
7:32.519,162907,N,0,0,0
7:32.539,162914,),0,0,1
7:32.758,162993,(,0,0,2
7:32.844,163024,t,0,0,0
7:32.928,163054,),0,0,2
7:33.569,163285,(,0,0,1
7:33.647,163313,N,0,0,0
7:33.669,163321,),0,0,1
7:33.886,163399,(,0,0,2
7:33.978,163432,t,0,0,0
7:34.056,163460,),0,0,2
7:34.681,163685,(,0,0,1
7:34.756,163712,N,0,0,0
7:34.833,163740,),0,0,1
7:34.997,163799,(,0,0,2
7:35.075,163827,t,0,0,0
7:35.164,163859,),0,0,2
7:35.483,163974,(,0,0,0
7:35.539,163994,p,0,0,0
7:35.572,164006,),0,0,0
7:35.822,164096,(,0,0,1
7:35.900,164124,N,0,0,0
7:35.997,164159,),0,0,1
7:36.122,164204,(,0,0,2
7:36.217,164238,t,0,0,0
7:36.292,164265,),0,0,2
7:36.614,164381,(,0,0,0
7:36.628,164386,p,0,0,0
7:36.644,164392,),0,0,0
7:36.922,164492,(,0,0,1
7:37.000,164520,N,0,0,0
7:37.067,164544,),0,0,1
7:37.228,164602,(,0,0,2
7:37.319,164635,t,0,0,0
7:37.408,164667,),0,0,2
7:38.053,164899,(,0,0,1
7:38.164,164939,N,0,0,0
7:38.189,164948,),0,0,1
7:38.400,165024,(,0,0,2
7:38.492,165057,t,0,0,0
7:38.572,165086,),0,0,2
7:39.164,165299,(,0,0,1
7:39.289,165344,N,0,0,0
7:39.311,165352,),0,0,1
7:39.531,165431,(,0,0,2
7:39.617,165462,t,0,0,0
7:39.703,165493,),0,0,2
7:40.350,165726,(,0,0,1
7:40.461,165766,N,0,0,0
7:40.486,165775,),0,0,1
7:40.700,165852,(,0,0,2
7:40.786,165883,t,0,0,0
7:40.869,165913,),0,0,2
7:41.539,166154,(,0,0,1
7:41.653,166195,N,0,0,0
7:41.675,166203,),0,0,1
7:41.883,166278,(,0,0,2
7:41.967,166308,t,0,0,0
7:42.044,166336,),0,0,2
7:42.761,166594,(,0,0,1
7:42.836,166621,N,0,0,0
7:42.900,166644,),0,0,1
7:43.081,166709,(,0,0,2
7:43.178,166744,t,0,0,0
7:43.258,166773,),0,0,2
7:43.931,167015,(,0,0,1
7:44.011,167044,N,0,0,0
7:44.067,167064,),0,0,1
7:44.250,167130,(,0,0,2
7:44.336,167161,t,0,0,0
7:44.414,167189,),0,0,2
7:46.206,167834,(,0,0,1
7:46.319,167875,N,0,0,0
7:46.342,167883,),0,0,1
7:46.558,167961,(,0,0,2
7:46.644,167992,t,0,0,0
7:46.722,168020,),0,0,2
7:47.425,168273,(,0,0,1
7:47.500,168300,N,0,0,0
7:47.575,168327,),0,0,1
7:47.731,168383,(,0,0,2
7:47.825,168417,t,0,0,0
7:47.906,168446,),0,0,2
7:54.336,170761,(,0,0,1
7:54.456,170804,N,0,0,0
7:54.481,170813,),0,0,1
7:54.694,170890,(,0,0,2
7:54.783,170922,t,0,0,0
7:54.864,170951,),0,0,2
7:55.497,171179,(,0,0,1
7:55.572,171206,N,0,0,0
7:55.639,171230,),0,0,1
7:55.783,171282,(,0,0,2
7:55.872,171314,t,0,0,0
7:55.956,171344,),0,0,2
7:56.672,171602,(,0,0,1
7:56.753,171631,N,0,0,0
7:56.808,171651,),0,0,1
7:56.867,171672,(,0,0,2
7:56.956,171704,t,0,0,4
7:57.075,171747,t,0,0,4
7:57.158,171777,),0,0,2
7:57.797,172007,(,0,0,1
7:57.872,172034,N,0,0,0
7:57.944,172060,),0,0,1
7:58.122,172124,(,0,0,2
7:58.217,172158,t,0,0,0
7:58.294,172186,),0,0,2
7:58.939,172418,(,0,0,1
7:59.019,172447,N,0,0,0
7:59.075,172467,),0,0,1
7:59.250,172530,(,0,0,2
7:59.336,172561,t,0,0,0
7:59.419,172591,),0,0,2
8:00.053,172819,(,0,0,1
8:00.131,172847,N,0,0,0
8:00.150,172854,),0,0,1
8:00.281,172901,(,0,0,2
8:00.328,172918,t,0,0,4
8:00.450,172962,t,0,0,4
8:00.528,172990,),0,0,2
8:01.192,173229,(,0,0,1
8:01.264,173255,N,0,0,0
8:01.311,173272,),0,0,1
8:01.489,173336,(,0,0,2
8:01.581,173369,t,0,0,0
8:01.664,173399,),0,0,2
8:02.289,173624,(,0,0,1
8:02.364,173651,N,0,0,0
8:02.386,173659,),0,0,1
8:02.592,173733,(,0,0,2
8:02.681,173765,t,0,0,0
8:02.764,173795,),0,0,2
8:04.483,174414,(,0,0,1
8:04.558,174441,N,0,0,0
8:04.611,174460,),0,0,1
8:04.786,174523,(,0,0,2
8:04.875,174555,t,0,0,0
8:04.953,174583,),0,0,2
8:10.978,176752,(,0,0,1
8:11.061,176782,N,0,0,0
8:11.103,176797,),0,0,1
8:11.147,176813,(,0,0,2
8:11.267,176856,t,0,0,4
8:11.378,176896,t,0,0,4
8:11.467,176928,),0,0,2
8:17.764,179195,(,0,0,1
8:17.836,179221,N,0,0,0
8:17.856,179228,),0,0,1
8:18.064,179303,(,0,0,2
8:18.156,179336,t,0,0,0
8:18.236,179365,),0,0,2
8:18.914,179609,(,0,0,1
8:18.989,179636,N,0,0,0
8:19.083,179670,),0,0,1
8:19.217,179718,(,0,0,2
8:19.311,179752,t,0,0,0
8:19.392,179781,),0,0,2
8:20.069,180025,(,0,0,1
8:20.156,180056,N,0,0,0
8:20.286,180103,),0,0,1
8:20.383,180138,(,0,0,2
8:20.481,180173,t,0,0,0
8:20.564,180203,),0,0,2
8:21.256,180452,(,0,0,1
8:21.333,180480,N,0,0,0
8:21.456,180524,),0,0,1
8:21.567,180564,(,0,0,2
8:21.647,180593,t,0,0,0
8:21.739,180626,),0,0,2
8:22.456,180884,(,0,0,1
8:22.536,180913,N,0,0,0
8:22.558,180921,),0,0,1
8:22.775,180999,(,0,0,2
8:22.861,181030,t,0,0,0
8:22.944,181060,),0,0,2
8:23.597,181295,(,0,0,1
8:23.711,181336,N,0,0,0
8:23.733,181344,),0,0,1
8:23.961,181426,(,0,0,2
8:24.044,181456,t,0,0,0
8:24.114,181481,),0,0,2
8:24.544,181636,(,0,0,0
8:24.589,181652,p,0,0,0
8:24.636,181669,),0,0,0
8:24.742,181707,(,0,0,1
8:24.861,181750,N,0,0,0
8:24.883,181758,),0,0,1
8:25.086,181831,(,0,0,2
8:25.183,181866,t,0,0,0
8:25.267,181896,),0,0,2
8:25.961,182146,(,0,0,1
8:26.075,182187,N,0,0,0
8:26.094,182194,),0,0,1
8:26.306,182270,(,0,0,2
8:26.394,182302,t,0,0,0
8:26.478,182332,),0,0,2
8:28.339,183002,(,0,0,1
8:28.461,183046,N,0,0,0
8:28.486,183055,),0,0,1
8:28.694,183130,(,0,0,2
8:28.772,183158,t,0,0,0
8:28.850,183186,),0,0,2
8:29.542,183435,(,0,0,1
8:29.650,183474,N,0,0,0
8:29.675,183483,),0,0,1
8:29.881,183557,(,0,0,2
8:29.969,183589,t,0,0,0
8:30.044,183616,),0,0,2
8:30.744,183868,(,0,0,1
8:30.869,183913,N,0,0,0
8:30.894,183922,),0,0,1
8:31.122,184004,(,0,0,2
8:31.206,184034,t,0,0,0
8:31.297,184067,),0,0,2
8:31.942,184299,(,0,0,1
8:32.050,184338,N,0,0,0
8:32.072,184346,),0,0,1
8:32.289,184424,(,0,0,2
8:32.372,184454,t,0,0,0
8:32.447,184481,),0,0,2
8:33.164,184739,(,0,0,1
8:33.278,184780,N,0,0,0
8:33.300,184788,),0,0,1
8:33.511,184864,(,0,0,2
8:33.600,184896,t,0,0,0
8:33.675,184923,),0,0,2
8:34.369,185173,(,0,0,1
8:34.478,185212,N,0,0,0
8:34.497,185219,),0,0,1
8:34.722,185300,(,0,0,2
8:34.819,185335,t,0,0,0
8:34.903,185365,),0,0,2
8:35.631,185627,(,0,0,1
8:35.706,185654,N,0,0,0
8:35.761,185674,),0,0,1
8:35.944,185740,(,0,0,2
8:36.033,185772,t,0,0,0
8:36.111,185800,),0,0,2
8:36.817,186054,(,0,0,1
8:36.894,186082,N,0,0,0
8:36.961,186106,),0,0,1
8:37.128,186166,(,0,0,2
8:37.214,186197,t,0,0,0
8:37.292,186225,),0,0,2
8:38.011,186484,(,0,0,1
8:38.083,186510,N,0,0,0
8:38.106,186518,),0,0,1
8:38.325,186597,(,0,0,2
8:38.422,186632,t,0,0,0
8:38.511,186664,),0,0,2
8:39.161,186898,(,0,0,1
8:39.244,186928,N,0,0,0
8:39.297,186947,),0,0,1
8:39.483,187014,(,0,0,2
8:39.572,187046,t,0,0,0
8:39.656,187076,),0,0,2
8:40.275,187299,(,0,0,1
8:40.397,187343,N,0,0,0
8:40.422,187352,),0,0,1
8:40.525,187389,(,0,0,2
8:40.589,187412,t,0,0,4
8:40.722,187460,t,0,0,4
8:40.808,187491,),0,0,2
8:41.439,187718,(,0,0,1
8:41.553,187759,N,0,0,0
8:41.572,187766,),0,0,1
8:41.786,187843,(,0,0,2
8:41.881,187877,t,0,0,0
8:41.961,187906,),0,0,2
8:48.625,190305,(,0,0,1
8:48.697,190331,N,0,0,0
8:48.767,190356,),0,0,1
8:48.944,190420,(,0,0,2
8:49.025,190449,t,0,0,0
8:49.100,190476,),0,0,2
8:51.906,191486,(,0,0,1
8:51.981,191513,N,0,0,0
8:52.039,191534,),0,0,1
8:52.208,191595,(,0,0,2
8:52.297,191627,t,0,0,0
8:52.378,191656,),0,0,2
8:56.406,193106,(,0,0,1
8:56.486,193135,N,0,0,0
8:56.536,193153,),0,0,1
8:56.719,193219,(,0,0,2
8:56.797,193247,t,0,0,0
8:56.875,193275,),0,0,2
8:57.506,193502,(,0,0,1
8:57.586,193531,N,0,0,0
8:57.669,193561,),0,0,1
8:57.814,193613,(,0,0,2
8:57.900,193644,t,0,0,0
8:57.989,193676,),0,0,2
8:58.614,193901,(,0,0,1
8:58.692,193929,N,0,0,0
8:58.833,193980,),0,0,1
8:58.839,193982,(,0,0,2
8:58.889,194000,t,0,0,4
8:59.019,194047,t,0,0,4
8:59.100,194076,),0,0,2
8:59.689,194288,(,0,0,1
8:59.764,194315,N,0,0,0
8:59.836,194341,),0,0,1
8:59.997,194399,(,0,0,2
9:00.078,194428,t,0,0,0
9:00.156,194456,),0,0,2
9:14.181,199505,(,0,0,1
9:14.250,199530,N,0,0,0
9:14.314,199553,),0,0,1
9:14.414,199589,(,0,0,2
9:14.497,199619,t,0,0,4
9:14.600,199656,t,0,0,4
9:14.683,199686,),0,0,2
9:22.586,202531,(,0,0,1
9:22.628,202546,N,0,0,0
9:22.692,202569,),0,0,1
9:22.764,202595,(,0,0,2
9:22.883,202638,t,0,0,4
9:22.994,202678,t,0,0,4
9:23.075,202707,),0,0,2
9:27.050,204138,(,0,0,1
9:27.092,204153,N,0,0,0
9:27.158,204177,),0,0,1
9:27.228,204202,(,0,0,2
9:27.347,204245,t,0,0,4
9:27.453,204283,t,0,0,4
9:27.528,204310,),0,0,2
9:29.322,204956,(,0,0,1
9:29.364,204971,N,0,0,0
9:29.406,204986,),0,0,1
9:29.653,205075,(,0,0,2
9:29.739,205106,t,0,0,0
9:29.822,205136,),0,0,2
9:34.994,206998,(,0,0,1
9:35.036,207013,N,0,0,0
9:35.078,207028,),0,0,1
9:35.175,207063,(,0,0,2
9:35.289,207104,t,0,0,4
9:35.408,207147,t,0,0,4
9:35.478,207172,),0,0,2
9:37.211,207796,(,0,0,1
9:37.256,207812,N,0,0,0
9:37.328,207838,),0,0,1
9:37.392,207861,(,0,0,2
9:37.503,207901,t,0,0,4
9:37.622,207944,t,0,0,4
9:37.700,207972,),0,0,2
9:41.692,209409,(,0,0,1
9:41.733,209424,N,0,0,0
9:41.800,209448,),0,0,1
9:41.919,209491,(,0,0,2
9:41.983,209514,t,0,0,4
9:42.100,209556,t,0,0,4
9:42.178,209584,),0,0,2
9:49.486,212215,(,0,0,1
9:49.531,212231,N,0,0,0
9:49.575,212247,),0,0,1
9:49.689,212288,(,0,0,2
9:49.792,212325,t,0,0,4
9:49.894,212362,t,0,0,4
9:49.975,212391,),0,0,2
10:12.406,220466,(,0,0,1
10:12.447,220481,N,0,0,0
10:12.517,220506,),0,0,1
10:12.725,220581,(,0,0,2
10:12.817,220614,t,0,0,0
10:12.903,220645,),0,0,2
10:14.572,221246,(,0,0,1
10:14.617,221262,N,0,0,0
10:14.681,221285,),0,0,1
10:15.317,221514,t,0,0,3
10:15.381,221537,),0,0,2
10:23.161,224338,(,0,0,1
10:23.228,224362,N,0,0,0
10:23.294,224386,),0,0,1
10:23.378,224416,(,0,0,2
10:23.483,224454,t,0,0,4
10:23.589,224492,t,0,0,4
10:23.669,224521,),0,0,2
10:25.358,225129,(,0,0,1
10:25.425,225153,N,0,0,0
10:25.492,225177,),0,0,1
10:25.692,225249,(,0,0,2
10:25.769,225277,t,0,0,0
10:25.844,225304,),0,0,2
10:26.433,225516,(,0,0,1
10:26.497,225539,N,0,0,0
10:26.564,225563,),0,0,1
10:26.642,225591,(,0,0,2
10:26.750,225630,t,0,0,4
10:26.856,225668,t,0,0,4
10:26.942,225699,),0,0,2
10:27.525,225909,(,0,0,1
10:27.594,225934,N,0,0,0
10:27.653,225955,),0,0,1
10:27.872,226034,(,0,0,2
10:27.956,226064,t,0,0,0
10:28.067,226104,),0,0,2
10:28.622,226304,(,0,0,1
10:28.686,226327,N,0,0,0
10:28.739,226346,),0,0,1
10:28.964,226427,(,0,0,2
10:29.044,226456,t,0,0,0
10:29.133,226488,),0,0,2
10:39.822,230336,(,0,0,1
10:39.886,230359,N,0,0,0
10:39.961,230386,),0,0,1
10:40.031,230411,(,0,0,2
10:40.139,230450,t,0,0,4
10:40.250,230490,t,0,0,4
10:40.331,230519,),0,0,2
10:43.097,231515,(,0,0,1
10:43.136,231529,N,0,0,0
10:43.200,231552,),0,0,1
10:43.267,231576,(,0,0,2
10:43.394,231622,t,0,0,4
10:43.506,231662,t,0,0,4
10:43.589,231692,),0,0,2
10:48.567,233484,(,0,0,1
10:48.611,233500,N,0,0,0
10:48.669,233521,),0,0,1
10:48.753,233551,(,0,0,2
10:48.867,233592,t,0,0,4
10:48.978,233632,t,0,0,4
10:49.056,233660,),0,0,2
10:55.075,235827,(,0,0,1
10:55.139,235850,N,0,0,0
10:55.206,235874,),0,0,1
10:55.267,235896,(,0,0,2
10:55.397,235943,t,0,0,4
10:55.511,235984,t,0,0,4
10:55.597,236015,),0,0,2
10:59.525,237429,(,0,0,1
10:59.569,237445,N,0,0,0
10:59.636,237469,),0,0,1
10:59.708,237495,(,0,0,2
10:59.817,237534,t,0,0,4
10:59.931,237575,t,0,0,4
11:00.011,237604,),0,0,2
11:02.864,238631,(,0,0,1
11:02.914,238649,N,0,0,0
11:02.975,238671,),0,0,1
11:03.069,238705,(,0,0,2
11:03.183,238746,t,0,0,4
11:03.294,238786,t,0,0,4
11:03.375,238815,),0,0,2
11:03.992,239037,(,0,0,1
11:04.036,239053,N,0,0,0
11:04.106,239078,),0,0,1
11:04.178,239104,(,0,0,2
11:04.281,239141,t,0,0,4
11:04.381,239177,t,0,0,4
11:04.461,239206,),0,0,2
11:05.083,239430,(,0,0,1
11:05.150,239454,N,0,0,0
11:05.217,239478,),0,0,1
11:05.281,239501,(,0,0,2
11:05.406,239546,t,0,0,4
11:05.511,239584,t,0,0,4
11:05.594,239614,),0,0,2
11:06.217,239838,(,0,0,1
11:06.264,239855,N,0,0,0
11:06.339,239882,),0,0,1
11:06.411,239908,(,0,0,2
11:06.525,239949,t,0,0,4
11:06.644,239992,t,0,0,4
11:06.731,240023,),0,0,2
11:07.347,240245,(,0,0,1
11:07.419,240271,N,0,0,0
11:07.481,240293,),0,0,1
11:07.564,240323,(,0,0,2
11:07.681,240365,t,0,0,4
11:07.786,240403,t,0,0,4
11:07.867,240432,),0,0,2
11:08.511,240664,(,0,0,1
11:08.556,240680,N,0,0,0
11:08.642,240711,),0,0,1
11:08.728,240742,(,0,0,2
11:08.822,240776,t,0,0,4
11:08.931,240815,t,0,0,4
11:09.014,240845,),0,0,2
11:09.656,241076,(,0,0,1
11:09.703,241093,N,0,0,0
11:09.767,241116,),0,0,1
11:09.842,241143,(,0,0,2
11:09.944,241180,t,0,0,4
11:10.053,241219,t,0,0,4
11:10.136,241249,),0,0,2
11:10.781,241481,(,0,0,1
11:10.825,241497,N,0,0,0
11:10.897,241523,),0,0,1
11:10.969,241549,(,0,0,2
11:11.086,241591,t,0,0,4
11:11.189,241628,t,0,0,4
11:11.278,241660,),0,0,2
11:11.917,241890,(,0,0,1
11:11.983,241914,N,0,0,0
11:12.047,241937,),0,0,1
11:12.147,241973,(,0,0,2
11:12.258,242013,t,0,0,4
11:12.372,242054,t,0,0,4
11:12.453,242083,),0,0,2
11:13.100,242316,(,0,0,1
11:13.144,242332,N,0,0,0
11:13.208,242355,),0,0,1
11:13.297,242387,(,0,0,2
11:13.400,242424,t,0,0,4
11:13.503,242461,t,0,0,4
11:13.589,242492,),0,0,2
11:14.242,242727,(,0,0,1
11:14.311,242752,N,0,0,0
11:14.378,242776,),0,0,1
11:14.450,242802,(,0,0,2
11:14.569,242845,t,0,0,4
11:14.675,242883,t,0,0,4
11:14.756,242912,),0,0,2
11:15.431,243155,(,0,0,1
11:15.467,243168,N,0,0,0
11:15.542,243195,),0,0,1
11:15.617,243222,(,0,0,2
11:15.731,243263,t,0,0,4
11:15.842,243303,t,0,0,4
11:15.925,243333,),0,0,2
11:16.539,243554,(,0,0,1
11:16.608,243579,N,0,0,0
11:16.675,243603,),0,0,1
11:16.797,243647,(,0,0,2
11:16.861,243670,t,0,0,4
11:16.975,243711,t,0,0,4
11:17.056,243740,),0,0,2
11:17.736,243985,(,0,0,1
11:17.811,244012,N,0,0,0
11:17.881,244037,),0,0,1
11:17.989,244076,(,0,0,2
11:18.078,244108,t,0,0,4
11:18.183,244146,t,0,0,4
11:18.272,244178,),0,0,2
11:18.936,244417,(,0,0,1
11:19.003,244441,N,0,0,0
11:19.075,244467,),0,0,1
11:19.142,244491,(,0,0,2
11:19.258,244533,t,0,0,4
11:19.375,244575,t,0,0,4
11:19.464,244607,),0,0,2
11:21.286,245263,(,0,0,1
11:21.331,245279,N,0,0,0
11:21.406,245306,),0,0,1
11:21.500,245340,(,0,0,2
11:21.600,245376,t,0,0,4
11:21.708,245415,t,0,0,4
11:21.789,245444,),0,0,2
11:25.789,246884,(,0,0,1
11:25.856,246908,N,0,0,0
11:25.925,246933,),0,0,1
11:26.008,246963,(,0,0,2
11:26.125,247005,t,0,0,4
11:26.236,247045,t,0,0,4
11:26.325,247077,),0,0,2
11:27.917,247650,(,0,0,1
11:27.989,247676,N,0,0,0
11:28.050,247698,),0,0,1
11:28.117,247722,(,0,0,2
11:28.242,247767,t,0,0,4
11:28.353,247807,t,0,0,4
11:28.433,247836,),0,0,2
11:28.997,248039,(,0,0,1
11:29.067,248064,N,0,0,0
11:29.147,248093,),0,0,1
11:29.236,248125,(,0,0,2
11:29.325,248157,t,0,0,4
11:29.431,248195,t,0,0,4
11:29.508,248223,),0,0,2
11:31.217,248838,(,0,0,1
11:31.286,248863,N,0,0,0
11:31.353,248887,),0,0,1
11:31.419,248911,(,0,0,2
11:31.547,248957,t,0,0,4
11:31.661,248998,t,0,0,4
11:31.750,249030,),0,0,2
11:32.003,249121,(,0,0,0
11:32.022,249128,p,0,0,0
11:32.036,249133,),0,0,0
11:32.300,249228,(,0,0,1
11:32.339,249242,N,0,0,0
11:32.414,249269,),0,0,1
11:32.486,249295,(,0,0,2
11:32.606,249338,t,0,0,4
11:32.722,249380,t,0,0,4
11:32.803,249409,),0,0,2
11:33.386,249619,(,0,0,1
11:33.456,249644,N,0,0,0
11:33.519,249667,),0,0,1
11:33.608,249699,(,0,0,2
11:33.717,249738,t,0,0,4
11:33.825,249777,t,0,0,4
11:33.906,249806,),0,0,2
11:34.500,250020,(,0,0,1
11:34.569,250045,N,0,0,0
11:34.650,250074,),0,0,1
11:34.744,250108,(,0,0,2
11:34.839,250142,t,0,0,4
11:34.953,250183,t,0,0,4
11:35.031,250211,),0,0,2
11:35.603,250417,(,0,0,1
11:35.672,250442,N,0,0,0
11:35.739,250466,),0,0,1
11:35.822,250496,(,0,0,2
11:35.936,250537,t,0,0,4
11:36.039,250574,t,0,0,4
11:36.119,250603,),0,0,2
11:36.742,250827,(,0,0,1
11:36.808,250851,N,0,0,0
11:36.867,250872,),0,0,1
11:36.944,250900,(,0,0,2
11:37.058,250941,t,0,0,4
11:37.164,250979,t,0,0,4
11:37.247,251009,),0,0,2
11:37.792,251205,(,0,0,1
11:37.853,251227,N,0,0,0
11:37.919,251251,),0,0,1
11:38.014,251285,(,0,0,2
11:38.117,251322,t,0,0,4
11:38.225,251361,t,0,0,4
11:38.314,251393,),0,0,2
11:38.883,251598,(,0,0,1
11:38.958,251625,N,0,0,0
11:39.019,251647,),0,0,1
11:39.083,251670,(,0,0,2
11:39.208,251715,t,0,0,4
11:39.319,251755,t,0,0,4
11:39.403,251785,),0,0,2
11:39.950,251982,(,0,0,1
11:40.019,252007,N,0,0,0
11:40.089,252032,),0,0,1
11:40.189,252068,(,0,0,2
11:40.292,252105,t,0,0,4
11:40.403,252145,t,0,0,4
11:40.481,252173,),0,0,2
11:41.039,252374,(,0,0,1
11:41.106,252398,N,0,0,0
11:41.169,252421,),0,0,1
11:41.269,252457,(,0,0,2
11:41.369,252493,t,0,0,4
11:41.467,252528,t,0,0,4
11:41.544,252556,),0,0,2
11:42.136,252769,(,0,0,1
11:42.208,252795,N,0,0,0
11:42.281,252821,),0,0,1
11:42.347,252845,(,0,0,2
11:42.464,252887,t,0,0,4
11:42.569,252925,t,0,0,4
11:42.661,252958,),0,0,2
11:43.194,253150,(,0,0,1
11:43.264,253175,N,0,0,0
11:43.325,253197,),0,0,1
11:43.425,253233,(,0,0,2
11:43.506,253262,t,0,0,4
11:43.619,253303,t,0,0,4
11:43.700,253332,),0,0,2
11:44.111,253480,(,0,0,0
11:44.139,253490,p,0,0,0
11:44.172,253502,),0,0,0
11:44.311,253552,(,0,0,1
11:44.356,253568,N,0,0,0
11:44.422,253592,),0,0,1
11:44.514,253625,(,0,0,2
11:44.614,253661,t,0,0,4
11:44.722,253700,t,0,0,4
11:44.806,253730,),0,0,2
11:45.397,253943,(,0,0,1
11:45.469,253969,N,0,0,0
11:45.533,253992,),0,0,1
11:45.639,254030,(,0,0,2
11:45.744,254068,t,0,0,4
11:45.858,254109,t,0,0,4
11:45.944,254140,),0,0,2
11:46.544,254356,(,0,0,1
11:46.614,254381,N,0,0,0
11:46.686,254407,),0,0,1
11:46.783,254442,(,0,0,2
11:46.864,254471,t,0,0,4
11:46.969,254509,t,0,0,4
11:47.058,254541,),0,0,2
11:47.628,254746,(,0,0,1
11:47.703,254773,N,0,0,0
11:47.767,254796,),0,0,1
11:47.853,254827,(,0,0,2
11:47.972,254870,t,0,0,4
11:48.075,254907,t,0,0,4
11:48.150,254934,),0,0,2
11:48.747,255149,(,0,0,1
11:48.811,255172,N,0,0,0
11:48.875,255195,),0,0,1
11:48.944,255220,(,0,0,2
11:49.047,255257,t,0,0,4
11:49.153,255295,t,0,0,4
11:49.236,255325,),0,0,2
11:49.806,255530,(,0,0,1
11:49.869,255553,N,0,0,0
11:49.931,255575,),0,0,1
11:50.017,255606,(,0,0,2
11:50.128,255646,t,0,0,4
11:50.236,255685,t,0,0,4
11:50.314,255713,),0,0,2
11:50.728,255862,(,0,0,0
11:50.750,255870,p,0,0,0
11:50.789,255884,),0,0,0
11:50.922,255932,(,0,0,1
11:50.969,255949,N,0,0,0
11:51.031,255971,),0,0,1
11:51.125,256005,(,0,0,2
11:51.225,256041,t,0,0,4
11:51.342,256083,t,0,0,4
11:51.428,256114,),0,0,2
11:51.983,256314,(,0,0,1
11:52.047,256337,N,0,0,0
11:52.108,256359,),0,0,1
11:52.186,256387,(,0,0,2
11:52.303,256429,t,0,0,4
11:52.408,256467,t,0,0,4
11:52.486,256495,),0,0,2
11:53.086,256711,(,0,0,1
11:53.164,256739,N,0,0,0
11:53.236,256765,),0,0,1
11:53.450,256842,(,0,0,2
11:53.531,256871,t,0,0,0
11:53.611,256900,),0,0,2
11:54.203,257113,(,0,0,1
11:54.272,257138,N,0,0,0
11:54.333,257160,),0,0,1
11:54.425,257193,(,0,0,2
11:54.519,257227,t,0,0,4
11:54.628,257266,t,0,0,4
11:54.706,257294,),0,0,2
11:55.339,257522,(,0,0,1
11:55.406,257546,N,0,0,0
11:55.475,257571,),0,0,1
11:55.564,257603,(,0,0,2
11:55.669,257641,t,0,0,4
11:55.775,257679,t,0,0,4
11:55.858,257709,),0,0,2
11:57.647,258353,(,0,0,1
11:57.692,258369,N,0,0,0
11:57.756,258392,),0,0,1
11:57.867,258432,(,0,0,2
11:57.947,258461,t,0,0,4
11:58.053,258499,t,0,0,4
11:58.133,258528,),0,0,2
11:59.961,259186,(,0,0,1
12:00.003,259201,N,0,0,0
12:00.067,259224,),0,0,1
12:00.136,259249,(,0,0,2
12:00.256,259292,t,0,0,4
12:00.364,259331,t,0,0,4
12:00.444,259360,),0,0,2
12:01.056,259580,(,0,0,1
12:01.125,259605,N,0,0,0
12:01.192,259629,),0,0,1
12:01.275,259659,(,0,0,2
12:01.381,259697,t,0,0,4
12:01.483,259734,t,0,0,4
12:01.567,259764,),0,0,2
12:03.361,260410,(,0,0,1
12:03.403,260425,N,0,0,0
12:03.469,260449,),0,0,1
12:03.569,260485,(,0,0,2
12:03.653,260515,t,0,0,4
12:03.764,260555,t,0,0,4
12:03.842,260583,),0,0,2
12:05.597,261215,(,0,0,1
12:05.639,261230,N,0,0,0
12:05.708,261255,),0,0,1
12:05.817,261294,(,0,0,2
12:05.903,261325,t,0,0,4
12:06.019,261367,t,0,0,4
12:06.106,261398,),0,0,2
12:06.692,261609,(,0,0,1
12:06.764,261635,N,0,0,0
12:06.836,261661,),0,0,1
12:06.903,261685,(,0,0,2
12:07.025,261729,t,0,0,4
12:07.133,261768,t,0,0,4
12:07.217,261798,),0,0,2
12:07.853,262027,(,0,0,1
12:07.897,262043,N,0,0,0
12:07.972,262070,),0,0,1
12:08.050,262098,(,0,0,2
12:08.161,262138,t,0,0,4
12:08.267,262176,t,0,0,4
12:08.342,262203,),0,0,2
12:08.942,262419,(,0,0,1
12:09.014,262445,N,0,0,0
12:09.081,262469,),0,0,1
12:09.139,262490,(,0,0,2
12:09.281,262541,t,0,0,4
12:09.389,262580,t,0,0,4
12:09.478,262612,),0,0,2
12:10.108,262839,(,0,0,1
12:10.150,262854,N,0,0,0
12:10.214,262877,),0,0,1
12:10.433,262956,(,0,0,2
12:10.525,262989,t,0,0,0
12:10.608,263019,),0,0,2
12:11.186,263227,(,0,0,1
12:11.233,263244,N,0,0,0
12:11.308,263271,),0,0,1
12:11.386,263299,(,0,0,2
12:11.511,263344,t,0,0,4
12:11.622,263384,t,0,0,4
12:11.697,263411,),0,0,2
12:12.297,263627,(,0,0,1
12:12.342,263643,N,0,0,0
12:12.408,263667,),0,0,1
12:12.475,263691,(,0,0,2
12:12.586,263731,t,0,0,4
12:12.703,263773,t,0,0,4
12:12.781,263801,),0,0,2
12:14.503,264421,(,0,0,1
12:14.569,264445,N,0,0,0
12:14.639,264470,),0,0,1
12:14.736,264505,(,0,0,2
12:14.817,264534,t,0,0,4
12:14.936,264577,t,0,0,4
12:15.019,264607,),0,0,2
12:15.625,264825,(,0,0,1
12:15.692,264849,N,0,0,0
12:15.758,264873,),0,0,1
12:15.872,264914,(,0,0,2
12:15.958,264945,t,0,0,4
12:16.069,264985,t,0,0,4
12:16.147,265013,),0,0,2
12:16.753,265231,(,0,0,1
12:16.819,265255,N,0,0,0
12:16.892,265281,),0,0,1
12:16.978,265312,(,0,0,2
12:17.086,265351,t,0,0,4
12:17.200,265392,t,0,0,4
12:17.275,265419,),0,0,2
12:17.861,265630,(,0,0,1
12:17.931,265655,N,0,0,0
12:18.000,265680,),0,0,1
12:18.075,265707,(,0,0,2
12:18.197,265751,t,0,0,4
12:18.308,265791,t,0,0,4
12:18.392,265821,),0,0,2
12:19.031,266051,(,0,0,1
12:19.094,266074,N,0,0,0
12:19.150,266094,),0,0,1
12:19.233,266124,(,0,0,2
12:19.350,266166,t,0,0,4
12:19.464,266207,t,0,0,4
12:19.547,266237,),0,0,2
12:20.106,266438,(,0,0,1
12:20.172,266462,N,0,0,0
12:20.247,266489,),0,0,1
12:20.336,266521,(,0,0,2
12:20.442,266559,t,0,0,4
12:20.558,266601,t,0,0,4
12:20.642,266631,),0,0,2
12:23.450,267642,(,0,0,1
12:23.519,267667,N,0,0,0
12:23.581,267689,),0,0,1
12:23.675,267723,(,0,0,2
12:23.775,267759,t,0,0,4
12:23.889,267800,t,0,0,4
12:23.969,267829,),0,0,2
12:24.561,268042,(,0,0,1
12:24.631,268067,N,0,0,0
12:24.697,268091,),0,0,1
12:24.753,268111,(,0,0,2
12:24.878,268156,t,0,0,4
12:24.983,268194,t,0,0,4
12:25.064,268223,),0,0,2
12:25.667,268440,(,0,0,1
12:25.736,268465,N,0,0,0
12:25.792,268485,),0,0,1
12:25.886,268519,(,0,0,2
12:26.008,268563,t,0,0,4
12:26.122,268604,t,0,0,4
12:26.203,268633,),0,0,2
12:26.806,268850,(,0,0,1
12:26.872,268874,N,0,0,0
12:26.947,268901,),0,0,1
12:27.019,268927,(,0,0,2
12:27.136,268969,t,0,0,4
12:27.247,269009,t,0,0,4
12:27.325,269037,),0,0,2
12:27.931,269255,(,0,0,1
12:28.003,269281,N,0,0,0
12:28.064,269303,),0,0,1
12:28.164,269339,(,0,0,2
12:28.264,269375,t,0,0,4
12:28.375,269415,t,0,0,4
12:28.447,269441,),0,0,2
12:29.058,269661,(,0,0,1
12:29.128,269686,N,0,0,0
12:29.200,269712,),0,0,1
12:29.289,269744,(,0,0,2
12:29.389,269780,t,0,0,4
12:29.497,269819,t,0,0,4
12:29.583,269850,),0,0,2
12:30.192,270069,(,0,0,1
12:30.256,270092,N,0,0,0
12:30.319,270115,),0,0,1
12:30.422,270152,(,0,0,2
12:30.517,270186,t,0,0,4
12:30.631,270227,t,0,0,4
12:30.711,270256,),0,0,2
12:31.322,270476,(,0,0,1
12:31.394,270502,N,0,0,0
12:31.464,270527,),0,0,1
12:31.550,270558,(,0,0,2
12:31.672,270602,t,0,0,4
12:31.794,270646,t,0,0,4
12:31.883,270678,),0,0,2
12:32.458,270885,(,0,0,1
12:32.525,270909,N,0,0,0
12:32.600,270936,),0,0,1
12:32.681,270965,(,0,0,2
12:32.794,271006,t,0,0,4
12:32.908,271047,t,0,0,4
12:32.981,271073,),0,0,2
12:33.425,271233,(,0,0,0
12:33.447,271241,p,0,0,0
12:33.481,271253,),0,0,0
12:33.622,271304,(,0,0,1
12:33.672,271322,N,0,0,0
12:33.736,271345,),0,0,1
12:33.811,271372,(,0,0,2
12:33.928,271414,t,0,0,4
12:34.036,271453,t,0,0,4
12:34.119,271483,),0,0,2
12:34.697,271691,(,0,0,1
12:34.761,271714,N,0,0,0
12:34.828,271738,),0,0,1
12:34.900,271764,(,0,0,2
12:35.033,271812,t,0,0,4
12:35.139,271850,t,0,0,4
12:35.222,271880,),0,0,2
12:35.867,272112,(,0,0,1
12:35.933,272136,N,0,0,0
12:35.994,272158,),0,0,1
12:36.086,272191,(,0,0,2
12:36.189,272228,t,0,0,4
12:36.297,272267,t,0,0,4
12:36.378,272296,),0,0,2
12:37.006,272522,(,0,0,1
12:37.053,272539,N,0,0,0
12:37.128,272566,),0,0,1
12:37.217,272598,(,0,0,2
12:37.328,272638,t,0,0,4
12:37.447,272681,t,0,0,4
12:37.533,272712,),0,0,2
12:38.181,272945,(,0,0,1
12:38.228,272962,N,0,0,0
12:38.294,272986,),0,0,1
12:38.383,273018,(,0,0,2
12:38.497,273059,t,0,0,4
12:38.600,273096,t,0,0,4
12:38.675,273123,),0,0,2
12:39.267,273336,(,0,0,1
12:39.336,273361,N,0,0,0
12:39.406,273386,),0,0,1
12:39.478,273412,(,0,0,2
12:39.589,273452,t,0,0,4
12:39.697,273491,t,0,0,4
12:39.783,273522,),0,0,2
12:41.553,274159,(,0,0,1
12:41.597,274175,N,0,0,0
12:41.661,274198,),0,0,1
12:41.744,274228,(,0,0,2
12:41.850,274266,t,0,0,4
12:41.961,274306,t,0,0,4
12:42.050,274338,),0,0,2
12:43.869,274993,(,0,0,1
12:43.939,275018,N,0,0,0
12:44.008,275043,),0,0,1
12:44.100,275076,(,0,0,2
12:44.197,275111,t,0,0,4
12:44.303,275149,t,0,0,4
12:44.378,275176,),0,0,2
12:44.992,275397,(,0,0,1
12:45.061,275422,N,0,0,0
12:45.125,275445,),0,0,1
12:45.233,275484,(,0,0,2
12:45.317,275514,t,0,0,4
12:45.428,275554,t,0,0,4
12:45.503,275581,),0,0,2
12:46.133,275808,(,0,0,1
12:46.203,275833,N,0,0,0
12:46.275,275859,),0,0,1
12:46.383,275898,(,0,0,2
12:46.467,275928,t,0,0,4
12:46.581,275969,t,0,0,4
12:46.669,276001,),0,0,2
12:47.300,276228,(,0,0,1
12:47.344,276244,N,0,0,0
12:47.403,276265,),0,0,1
12:47.489,276296,(,0,0,2
12:47.608,276339,t,0,0,4
12:47.719,276379,t,0,0,4
12:47.797,276407,),0,0,2
12:48.408,276627,(,0,0,1
12:48.481,276653,N,0,0,0
12:48.558,276681,),0,0,1
12:48.653,276715,(,0,0,2
12:48.756,276752,t,0,0,4
12:48.867,276792,t,0,0,4
12:48.950,276822,),0,0,2
12:49.544,277036,(,0,0,1
12:49.614,277061,N,0,0,0
12:49.692,277089,),0,0,1
12:49.767,277116,(,0,0,2
12:49.872,277154,t,0,0,4
12:49.972,277190,t,0,0,4
12:50.047,277217,),0,0,2
12:50.672,277442,(,0,0,1
12:50.739,277466,N,0,0,0
12:50.800,277488,),0,0,1
12:50.883,277518,(,0,0,2
12:50.992,277557,t,0,0,4
12:51.100,277596,t,0,0,4
12:51.181,277625,),0,0,2
12:52.936,278257,(,0,0,1
12:53.006,278282,N,0,0,0
12:53.069,278305,),0,0,1
12:53.161,278338,(,0,0,2
12:53.264,278375,t,0,0,4
12:53.372,278414,t,0,0,4
12:53.450,278442,),0,0,2
12:55.231,279083,(,0,0,1
12:55.275,279099,N,0,0,0
12:55.339,279122,),0,0,1
12:55.547,279197,(,0,0,2
12:55.628,279226,t,0,0,0
12:55.706,279254,),0,0,2
12:56.306,279470,(,0,0,1
12:56.372,279494,N,0,0,0
12:56.436,279517,),0,0,1
12:56.500,279540,(,0,0,2
12:56.633,279588,t,0,0,4
12:56.742,279627,t,0,0,4
12:56.822,279656,),0,0,2
12:57.456,279884,(,0,0,1
12:57.497,279899,N,0,0,0
12:57.569,279925,),0,0,1
12:57.664,279959,(,0,0,2
12:57.769,279997,t,0,0,4
12:57.881,280037,t,0,0,4
12:57.961,280066,),0,0,2
12:59.681,280685,(,0,0,1
12:59.728,280702,N,0,0,0
12:59.803,280729,),0,0,1
12:59.894,280762,(,0,0,2
12:59.992,280797,t,0,0,4
13:00.106,280838,t,0,0,4
13:00.181,280865,),0,0,2
13:00.750,281070,(,0,0,1
13:00.817,281094,N,0,0,0
13:00.883,281118,),0,0,1
13:00.958,281145,(,0,0,2
13:01.064,281183,t,0,0,4
13:01.164,281219,t,0,0,4
13:01.244,281248,),0,0,2
13:02.953,281863,(,0,0,1
13:02.994,281878,N,0,0,0
13:03.067,281904,),0,0,1
13:03.142,281931,(,0,0,2
13:03.261,281974,t,0,0,4
13:03.372,282014,t,0,0,4
13:03.461,282046,),0,0,2
13:06.369,283093,(,0,0,1
13:06.442,283119,N,0,0,0
13:06.506,283142,),0,0,1
13:06.597,283175,(,0,0,2
13:06.689,283208,t,0,0,4
13:06.797,283247,t,0,0,4
13:06.872,283274,),0,0,2
13:07.492,283497,(,0,0,1
13:07.561,283522,N,0,0,0
13:07.636,283549,),0,0,1
13:07.714,283577,(,0,0,2
13:07.817,283614,t,0,0,4
13:07.925,283653,t,0,0,4
13:08.011,283684,),0,0,2
13:08.622,283904,(,0,0,1
13:08.686,283927,N,0,0,0
13:08.750,283950,),0,0,1
13:08.847,283985,(,0,0,2
13:08.967,284028,t,0,0,4
13:09.078,284068,t,0,0,4
13:09.158,284097,),0,0,2
13:09.786,284323,(,0,0,1
13:09.853,284347,N,0,0,0
13:09.914,284369,),0,0,1
13:10.006,284402,(,0,0,2
13:10.106,284438,t,0,0,4
13:10.217,284478,t,0,0,4
13:10.292,284505,),0,0,2
13:10.917,284730,(,0,0,1
13:10.989,284756,N,0,0,0
13:11.053,284779,),0,0,1
13:11.117,284802,(,0,0,2
13:11.247,284849,t,0,0,4
13:11.350,284886,t,0,0,4
13:11.436,284917,),0,0,2
13:12.106,285158,(,0,0,1
13:12.142,285171,N,0,0,0
13:12.203,285193,),0,0,1
13:12.275,285219,(,0,0,2
13:12.389,285260,t,0,0,4
13:12.506,285302,t,0,0,4
13:12.589,285332,),0,0,2
13:13.181,285545,(,0,0,1
13:13.250,285570,N,0,0,0
13:13.319,285595,),0,0,1
13:13.386,285619,(,0,0,2
13:13.511,285664,t,0,0,4
13:13.614,285701,t,0,0,4
13:13.697,285731,),0,0,2
13:14.344,285964,(,0,0,1
13:14.414,285989,N,0,0,0
13:14.489,286016,),0,0,1
13:14.578,286048,(,0,0,2
13:14.689,286088,t,0,0,4
13:14.794,286126,t,0,0,4
13:14.872,286154,),0,0,2
13:15.497,286379,(,0,0,1
13:15.542,286395,N,0,0,0
13:15.608,286419,),0,0,1
13:15.703,286453,(,0,0,2
13:15.794,286486,t,0,0,4
13:15.911,286528,t,0,0,4
13:15.989,286556,),0,0,2
13:17.753,287191,(,0,0,1
13:17.819,287215,N,0,0,0
13:17.883,287238,),0,0,1
13:17.969,287269,(,0,0,2
13:18.086,287311,t,0,0,4
13:18.208,287355,t,0,0,4
13:18.289,287384,),0,0,2
13:18.978,287632,(,0,0,1
13:19.044,287656,N,0,0,0
13:19.114,287681,),0,0,1
13:19.233,287724,(,0,0,2
13:19.311,287752,t,0,0,4
13:19.425,287793,t,0,0,4
13:19.500,287820,),0,0,2
13:20.175,288063,(,0,0,1
13:20.242,288087,N,0,0,0
13:20.311,288112,),0,0,1
13:20.392,288141,(,0,0,2
13:20.489,288176,t,0,0,4
13:20.603,288217,t,0,0,4
13:20.683,288246,),0,0,2
13:22.486,288895,(,0,0,1
13:22.528,288910,N,0,0,0
13:22.608,288939,),0,0,1
13:22.697,288971,(,0,0,2
13:22.800,289008,t,0,0,4
13:22.908,289047,t,0,0,4
13:22.986,289075,),0,0,2
13:24.708,289695,(,0,0,1
13:24.772,289718,N,0,0,0
13:24.850,289746,),0,0,1
13:24.942,289779,(,0,0,2
13:25.033,289812,t,0,0,4
13:25.144,289852,t,0,0,4
13:25.225,289881,),0,0,2
13:25.842,290103,(,0,0,1
13:25.911,290128,N,0,0,0
13:25.969,290149,),0,0,1
13:26.056,290180,(,0,0,2
13:26.172,290222,t,0,0,4
13:26.286,290263,t,0,0,4
13:26.361,290290,),0,0,2
13:26.956,290504,(,0,0,1
13:27.022,290528,N,0,0,0
13:27.100,290556,),0,0,1
13:27.214,290597,(,0,0,2
13:27.306,290630,t,0,0,4
13:27.419,290671,t,0,0,4
13:27.503,290701,),0,0,2
13:28.131,290927,(,0,0,1
13:28.200,290952,N,0,0,0
13:28.258,290973,),0,0,1
13:28.353,291007,(,0,0,2
13:28.467,291048,t,0,0,4
13:28.575,291087,t,0,0,4
13:28.642,291111,),0,0,2
13:29.269,291337,(,0,0,1
13:29.339,291362,N,0,0,0
13:29.408,291387,),0,0,1
13:29.503,291421,(,0,0,2
13:29.592,291453,t,0,0,4
13:29.703,291493,t,0,0,4
13:29.789,291524,),0,0,2
13:30.375,291735,(,0,0,1
13:30.444,291760,N,0,0,0
13:30.525,291789,),0,0,1
13:30.592,291813,(,0,0,2
13:30.717,291858,t,0,0,4
13:30.831,291899,t,0,0,4
13:30.911,291928,),0,0,2
13:31.567,292164,(,0,0,1
13:31.636,292189,N,0,0,0
13:31.700,292212,),0,0,1
13:31.806,292250,(,0,0,2
13:31.892,292281,t,0,0,4
13:32.006,292322,t,0,0,4
13:32.089,292352,),0,0,2
13:33.906,293006,(,0,0,1
13:33.975,293031,N,0,0,0
13:34.036,293053,),0,0,1
13:34.100,293076,(,0,0,2
13:34.219,293119,t,0,0,4
13:34.325,293157,t,0,0,4
13:34.406,293186,),0,0,2
13:35.036,293413,(,0,0,1
13:35.100,293436,N,0,0,0
13:35.161,293458,),0,0,1
13:35.239,293486,(,0,0,2
13:35.364,293531,t,0,0,4
13:35.478,293572,t,0,0,4
13:35.553,293599,),0,0,2
13:36.142,293811,(,0,0,1
13:36.211,293836,N,0,0,0
13:36.292,293865,),0,0,1
13:36.503,293941,(,0,0,2
13:36.592,293973,t,0,0,0
13:36.678,294004,),0,0,2
13:37.281,294221,(,0,0,1
13:37.325,294237,N,0,0,0
13:37.392,294261,),0,0,1
13:37.494,294298,(,0,0,2
13:37.581,294329,t,0,0,4
13:37.694,294370,t,0,0,4
13:37.769,294397,),0,0,2
13:38.442,294639,(,0,0,1
13:38.494,294658,N,0,0,0
13:38.564,294683,),0,0,1
13:38.653,294715,(,0,0,2
13:38.750,294750,t,0,0,4
13:38.858,294789,t,0,0,4
13:38.939,294818,),0,0,2
13:39.583,295050,(,0,0,1
13:39.625,295065,N,0,0,0
13:39.694,295090,),0,0,1
13:39.756,295112,(,0,0,2
13:39.881,295157,t,0,0,4
13:39.994,295198,t,0,0,4
13:40.075,295227,),0,0,2
13:40.753,295471,(,0,0,1
13:40.800,295488,N,0,0,0
13:40.864,295511,),0,0,1
13:40.958,295545,(,0,0,2
13:41.061,295582,t,0,0,4
13:41.172,295622,t,0,0,4
13:41.250,295650,),0,0,2
13:44.178,296704,(,0,0,1
13:44.219,296719,N,0,0,0
13:44.289,296744,),0,0,1
13:44.508,296823,(,0,0,2
13:44.608,296859,t,0,0,0
13:44.692,296889,),0,0,2
13:45.306,297110,(,0,0,1
13:45.372,297134,N,0,0,0
13:45.439,297158,),0,0,1
13:45.525,297189,(,0,0,2
13:45.642,297231,t,0,0,4
13:45.758,297273,t,0,0,4
13:45.839,297302,),0,0,2
13:47.642,297951,(,0,0,1
13:47.714,297977,N,0,0,0
13:47.756,297992,),0,0,1
13:48.000,298080,(,0,0,2
13:48.089,298112,t,0,0,0
13:48.161,298138,),0,0,2
13:48.744,298348,(,0,0,1
13:48.811,298372,N,0,0,0
13:48.856,298388,),0,0,1
13:48.964,298427,(,0,0,2
13:49.075,298467,t,0,0,4
13:49.183,298506,t,0,0,4
13:49.272,298538,),0,0,2
13:49.925,298773,(,0,0,1
13:49.969,298789,N,0,0,0
13:50.014,298805,),0,0,1
13:50.111,298840,(,0,0,2
13:50.236,298885,t,0,0,4
13:50.347,298925,t,0,0,4
13:50.431,298955,),0,0,2
13:50.822,299096,(,0,0,0
13:50.833,299100,p,0,0,0
13:50.889,299120,),0,0,0
13:51.017,299166,(,0,0,1
13:51.064,299183,N,0,0,0
13:51.108,299199,),0,0,1
13:51.228,299242,(,0,0,2
13:51.336,299281,t,0,0,4
13:51.447,299321,t,0,0,4
13:51.531,299351,),0,0,2
13:51.947,299501,(,0,0,0
13:52.022,299528,p,0,0,0
13:52.039,299534,),0,0,0
13:52.156,299576,(,0,0,1
13:52.200,299592,N,0,0,0
13:52.239,299606,),0,0,1
13:52.342,299643,(,0,0,2
13:52.458,299685,t,0,0,4
13:52.572,299726,t,0,0,4
13:52.647,299753,),0,0,2
13:53.278,299980,(,0,0,1
13:53.347,300005,N,0,0,0
13:53.392,300021,),0,0,1
13:53.506,300062,(,0,0,2
13:53.597,300095,t,0,0,4
13:53.711,300136,t,0,0,4
13:53.792,300165,),0,0,2
13:54.408,300387,(,0,0,1
13:54.472,300410,N,0,0,0
13:54.517,300426,),0,0,1
13:54.608,300459,(,0,0,2
13:54.747,300509,t,0,0,4
13:54.861,300550,t,0,0,4
13:54.950,300582,),0,0,2
13:55.614,300821,(,0,0,1
13:55.681,300845,N,0,0,0
13:55.722,300860,),0,0,1
13:55.836,300901,(,0,0,2
13:55.947,300941,t,0,0,4
13:56.061,300982,t,0,0,4
13:56.139,301010,),0,0,2
13:56.797,301247,(,0,0,1
13:56.867,301272,N,0,0,0
13:56.911,301288,),0,0,1
13:57.014,301325,(,0,0,2
13:57.133,301368,t,0,0,4
13:57.247,301409,t,0,0,4
13:57.319,301435,),0,0,2
13:57.983,301674,(,0,0,1
13:58.053,301699,N,0,0,0
13:58.092,301713,),0,0,1
13:58.211,301756,(,0,0,2
13:58.314,301793,t,0,0,4
13:58.431,301835,t,0,0,4
13:58.511,301864,),0,0,2
13:59.147,302093,(,0,0,1
13:59.214,302117,N,0,0,0
13:59.258,302133,),0,0,1
13:59.400,302184,(,0,0,2
13:59.483,302214,t,0,0,4
13:59.586,302251,t,0,0,4
13:59.669,302281,),0,0,2
14:00.333,302520,(,0,0,1
14:00.383,302538,N,0,0,0
14:00.428,302554,),0,0,1
14:00.533,302592,(,0,0,2
14:00.664,302639,t,0,0,4
14:00.775,302679,t,0,0,4
14:00.861,302710,),0,0,2
14:01.244,302848,(,0,0,0
14:01.339,302882,p,0,0,0
14:01.353,302887,),0,0,0
14:01.472,302930,(,0,0,1
14:01.519,302947,N,0,0,0
14:01.558,302961,),0,0,1
14:01.658,302997,(,0,0,2
14:01.778,303040,t,0,0,4
14:01.881,303077,t,0,0,4
14:01.956,303104,),0,0,2
14:02.589,303332,(,0,0,1
14:02.658,303357,N,0,0,0
14:02.697,303371,),0,0,1
14:02.836,303421,(,0,0,2
14:02.917,303450,t,0,0,4
14:03.025,303489,t,0,0,4
14:03.103,303517,),0,0,2
14:03.667,303720,(,0,0,1
14:03.736,303745,N,0,0,0
14:03.778,303760,),0,0,1
14:03.878,303796,(,0,0,2
14:03.992,303837,t,0,0,4
14:04.111,303880,t,0,0,4
14:04.189,303908,),0,0,2
14:04.786,304123,(,0,0,1
14:04.853,304147,N,0,0,0
14:04.894,304162,),0,0,1
14:05.008,304203,(,0,0,2
14:05.122,304244,t,0,0,4
14:05.222,304280,t,0,0,4
14:05.303,304309,),0,0,2
14:05.867,304512,(,0,0,1
14:05.942,304539,N,0,0,0
14:05.986,304555,),0,0,1
14:06.100,304596,(,0,0,2
14:06.219,304639,t,0,0,4
14:06.339,304682,t,0,0,4
14:06.422,304712,),0,0,2
14:06.969,304909,(,0,0,1
14:07.042,304935,N,0,0,0
14:07.086,304951,),0,0,1
14:07.178,304984,(,0,0,2
14:07.317,305034,t,0,0,4
14:07.419,305071,t,0,0,4
14:07.492,305097,),0,0,2
14:08.097,305315,(,0,0,1
14:08.144,305332,N,0,0,0
14:08.186,305347,),0,0,1
14:08.275,305379,(,0,0,2
14:08.397,305423,t,0,0,4
14:08.506,305462,t,0,0,4
14:08.589,305492,),0,0,2
14:08.992,305637,(,0,0,0
14:09.056,305660,p,0,0,0
14:09.072,305666,),0,0,0
14:09.189,305708,(,0,0,1
14:09.236,305725,N,0,0,0
14:09.275,305739,),0,0,1
14:09.397,305783,(,0,0,2
14:09.494,305818,t,0,0,4
14:09.614,305861,t,0,0,4
14:09.692,305889,),0,0,2
14:10.333,306120,(,0,0,1
14:10.403,306145,N,0,0,0
14:10.444,306160,),0,0,1
14:10.536,306193,(,0,0,2
14:10.658,306237,t,0,0,4
14:10.767,306276,t,0,0,4
14:10.853,306307,),0,0,2
14:11.436,306517,(,0,0,1
14:11.503,306541,N,0,0,0
14:11.547,306557,),0,0,1
14:11.706,306614,(,0,0,2
14:11.786,306643,t,0,0,4
14:11.908,306687,t,0,0,4
14:11.983,306714,),0,0,2
14:12.619,306943,(,0,0,1
14:12.692,306969,N,0,0,0
14:12.733,306984,),0,0,1
14:12.847,307025,(,0,0,2
14:12.950,307062,t,0,0,4
14:13.056,307100,t,0,0,4
14:13.131,307127,),0,0,2
14:14.067,307464,(,0,0,1
14:14.081,307469,N,0,0,0
14:14.256,307532,),0,0,1
14:14.822,307736,),0,0,2
14:14.858,307749,t,0,0,0
14:14.894,307762,(,0,0,2
14:14.903,307765,(,0,0,0
14:14.933,307776,p,0,0,0
14:14.969,307789,),0,0,0
14:15.203,307873,(,0,0,1
14:15.219,307879,N,0,0,0
14:15.417,307950,),0,0,1
14:15.992,308157,t,0,0,2
14:16.081,308189,),0,0,2
14:16.364,308291,(,0,0,1
14:16.386,308299,N,0,0,0
14:16.550,308358,),0,0,1
14:17.142,308571,t,0,0,2
14:17.231,308603,),0,0,2
14:17.339,308642,(,0,0,0
14:17.375,308655,p,0,0,0
14:17.497,308699,),0,0,0
14:17.533,308712,(,0,0,1
14:17.547,308717,N,0,0,0
14:17.717,308778,),0,0,1
14:18.256,308972,(,0,0,2
14:18.300,308988,t,0,0,1
14:18.342,309003,),0,0,2
14:18.472,309050,(,0,0,1
14:18.653,309115,N,0,0,0
14:18.853,309187,),0,0,1
14:19.319,309355,),0,0,2
14:19.350,309366,t,0,0,1
14:19.381,309377,(,0,0,2
14:19.772,309518,(,0,0,1
14:19.781,309521,N,0,0,0
14:19.967,309588,),0,0,1
14:20.525,309789,),0,0,2
14:20.564,309803,t,0,0,0
14:20.597,309815,(,0,0,0
14:20.600,309816,(,0,0,2
14:20.633,309828,p,0,0,0
14:20.669,309841,),0,0,0
14:20.931,309935,(,0,0,1
14:20.953,309943,N,0,0,0
14:21.111,310000,),0,0,1
14:21.703,310213,t,0,0,2
14:21.792,310245,),0,0,2
14:22.069,310345,(,0,0,1
14:22.086,310351,N,0,0,0
14:22.256,310412,),0,0,1
14:22.875,310635,t,0,0,2
14:22.969,310669,),0,0,2
14:23.872,310994,(,0,0,0
14:23.967,311028,p,0,0,0
14:23.986,311035,),0,0,0
14:24.100,311076,(,0,0,1
14:24.144,311092,N,0,0,0
14:24.183,311106,),0,0,1
14:24.264,311135,(,0,0,2
14:24.386,311179,t,0,0,4
14:24.497,311219,t,0,0,4
14:24.581,311249,),0,0,2
14:27.492,312297,(,0,0,1
14:27.536,312313,N,0,0,0
14:27.575,312327,),0,0,1
14:27.692,312369,(,0,0,2
14:27.794,312406,t,0,0,4
14:27.903,312445,t,0,0,4
14:27.978,312472,),0,0,2
14:29.811,313132,(,0,0,1
14:29.833,313140,N,0,0,0
14:29.875,313155,),0,0,1
14:29.975,313191,(,0,0,2
14:30.100,313236,t,0,0,4
14:30.222,313280,t,0,0,4
14:30.303,313309,),0,0,2
14:37.739,315986,(,0,0,0
14:37.747,315989,p,0,0,0
14:37.772,315998,),0,0,0
14:37.931,316055,(,0,0,1
14:37.956,316064,N,0,0,0
14:37.994,316078,),0,0,1
14:38.103,316117,(,0,0,2
14:38.211,316156,t,0,0,4
14:38.322,316196,t,0,0,4
14:38.406,316226,),0,0,2
14:58.825,323577,(,0,0,1
14:58.886,323599,N,0,0,0
14:58.925,323613,),0,0,1
14:59.067,323664,(,0,0,2
14:59.150,323694,t,0,0,4
14:59.264,323735,t,0,0,4
14:59.344,323764,),0,0,2
15:03.514,325265,(,0,0,1
15:03.575,325287,N,0,0,0
15:03.617,325302,),0,0,1
15:03.725,325341,(,0,0,2
15:03.836,325381,t,0,0,4
15:03.947,325421,t,0,0,4
15:04.022,325448,),0,0,2
15:37.611,337540,(,0,0,1
15:37.678,337564,N,0,0,0
15:37.717,337578,),0,0,1
15:37.956,337664,(,0,0,2
15:38.050,337698,t,0,0,0
15:38.122,337724,),0,0,2
15:38.617,337902,(,0,0,1
15:38.692,337929,N,0,0,0
15:38.733,337944,),0,0,1
15:38.836,337981,(,0,0,2
15:38.953,338023,t,0,0,4
15:39.061,338062,t,0,0,4
15:39.133,338088,),0,0,2
15:39.881,338357,(,0,0,1
15:39.944,338380,N,0,0,0
15:39.983,338394,),0,0,1
15:40.111,338440,(,0,0,2
15:40.211,338476,t,0,0,4
15:40.331,338519,t,0,0,4
15:40.417,338550,),0,0,2
15:41.094,338794,(,0,0,1
15:41.167,338820,N,0,0,0
15:41.208,338835,),0,0,1
15:41.333,338880,(,0,0,2
15:41.436,338917,t,0,0,4
15:41.553,338959,t,0,0,4
15:41.631,338987,),0,0,2
15:42.264,339215,(,0,0,1
15:42.336,339241,N,0,0,0
15:42.381,339257,),0,0,1
15:42.508,339303,(,0,0,2
15:42.597,339335,t,0,0,4
15:42.706,339374,t,0,0,4
15:42.789,339404,),0,0,2
15:43.500,339660,(,0,0,1
15:43.572,339686,N,0,0,0
15:43.611,339700,),0,0,1
15:43.739,339746,(,0,0,2
15:43.839,339782,t,0,0,4
15:43.956,339824,t,0,0,4
15:44.042,339855,),0,0,2
15:44.697,340091,(,0,0,1
15:44.769,340117,N,0,0,0
15:44.811,340132,),0,0,1
15:44.961,340186,(,0,0,2
15:45.028,340210,t,0,0,4
15:45.142,340251,t,0,0,4
15:45.219,340279,),0,0,2
15:45.900,340524,(,0,0,1
15:45.950,340542,N,0,0,0
15:45.994,340558,),0,0,1
15:46.108,340599,(,0,0,2
15:46.228,340642,t,0,0,4
15:46.342,340683,t,0,0,4
15:46.419,340711,),0,0,2
15:47.047,340937,(,0,0,1
15:47.114,340961,N,0,0,0
15:47.156,340976,),0,0,1
15:47.253,341011,(,0,0,2
15:47.361,341050,t,0,0,4
15:47.467,341088,t,0,0,4
15:47.542,341115,),0,0,2
15:48.206,341354,(,0,0,1
15:48.272,341378,N,0,0,0
15:48.311,341392,),0,0,1
15:48.444,341440,(,0,0,2
15:48.533,341472,t,0,0,4
15:48.647,341513,t,0,0,4
15:48.717,341538,),0,0,2
15:49.347,341765,(,0,0,1
15:49.417,341790,N,0,0,0
15:49.464,341807,),0,0,1
15:49.572,341846,(,0,0,2
15:49.686,341887,t,0,0,4
15:49.803,341929,t,0,0,4
15:49.883,341958,),0,0,2
15:50.506,342182,(,0,0,1
15:50.569,342205,N,0,0,0
15:50.614,342221,),0,0,1
15:50.711,342256,(,0,0,2
15:50.836,342301,t,0,0,4
15:50.944,342340,t,0,0,4
15:51.019,342367,),0,0,2
15:51.675,342603,(,0,0,1
15:51.744,342628,N,0,0,0
15:51.786,342643,),0,0,1
15:51.917,342690,(,0,0,2
15:52.003,342721,t,0,0,4
15:52.114,342761,t,0,0,4
15:52.192,342789,),0,0,2
15:52.792,343005,(,0,0,1
15:52.856,343028,N,0,0,0
15:52.897,343043,),0,0,1
15:53.003,343081,(,0,0,2
15:53.133,343128,t,0,0,4
15:53.247,343169,t,0,0,4
15:53.331,343199,),0,0,2
15:53.950,343422,(,0,0,1
15:54.017,343446,N,0,0,0
15:54.058,343461,),0,0,1
15:54.161,343498,(,0,0,2
15:54.278,343540,t,0,0,4
15:54.389,343580,t,0,0,4
15:54.469,343609,),0,0,2
15:55.097,343835,(,0,0,1
15:55.169,343861,N,0,0,0
15:55.211,343876,),0,0,1
15:55.328,343918,(,0,0,2
15:55.436,343957,t,0,0,4
15:55.547,343997,t,0,0,4
15:55.622,344024,),0,0,2
15:56.267,344256,(,0,0,1
15:56.333,344280,N,0,0,0
15:56.375,344295,),0,0,1
15:56.467,344328,(,0,0,2
15:56.592,344373,t,0,0,4
15:56.706,344414,t,0,0,4
15:56.794,344446,),0,0,2
15:57.358,344649,(,0,0,0
15:57.381,344657,p,0,0,0
15:57.397,344663,),0,0,0
15:57.444,344680,(,0,0,1
15:57.489,344696,N,0,0,0
15:57.533,344712,),0,0,1
15:57.683,344766,(,0,0,2
15:57.758,344793,t,0,0,4
15:57.872,344834,t,0,0,4
15:57.950,344862,),0,0,2
15:58.406,345026,(,0,0,0
15:58.422,345032,p,0,0,0
15:58.475,345051,),0,0,0
15:58.614,345101,(,0,0,1
15:58.658,345117,N,0,0,0
15:58.703,345133,),0,0,1
15:58.825,345177,(,0,0,2
15:58.931,345215,t,0,0,4
15:59.039,345254,t,0,0,4
15:59.108,345279,),0,0,2
15:59.764,345515,(,0,0,1
15:59.831,345539,N,0,0,0
15:59.872,345554,),0,0,1
15:59.989,345596,(,0,0,2
16:00.097,345635,t,0,0,4
16:00.211,345676,t,0,0,4
16:00.289,345704,),0,0,2
16:00.953,345943,(,0,0,1
16:01.022,345968,N,0,0,0
16:01.067,345984,),0,0,1
16:01.203,346033,(,0,0,2
16:01.283,346062,t,0,0,4
16:01.394,346102,t,0,0,4
16:01.472,346130,),0,0,2
16:02.064,346343,(,0,0,1
16:02.131,346367,N,0,0,0
16:02.172,346382,),0,0,1
16:02.289,346424,(,0,0,2
16:02.411,346468,t,0,0,4
16:02.533,346512,t,0,0,4
16:02.619,346543,),0,0,2
16:03.261,346774,(,0,0,1
16:03.331,346799,N,0,0,0
16:03.372,346814,),0,0,1
16:03.486,346855,(,0,0,2
16:03.600,346896,t,0,0,4
16:03.706,346934,t,0,0,4
16:03.775,346959,),0,0,2
16:04.389,347180,(,0,0,1
16:04.458,347205,N,0,0,0
16:04.500,347220,),0,0,1
16:04.614,347261,(,0,0,2
16:04.711,347296,t,0,0,4
16:04.825,347337,t,0,0,4
16:04.914,347369,),0,0,2
16:05.528,347590,(,0,0,1
16:05.592,347613,N,0,0,0
16:05.633,347628,),0,0,1
16:05.739,347666,(,0,0,2
16:05.867,347712,t,0,0,4
16:05.978,347752,t,0,0,4
16:06.067,347784,),0,0,2
16:06.678,348004,(,0,0,1
16:06.747,348029,N,0,0,0
16:06.792,348045,),0,0,1
16:06.922,348092,(,0,0,2
16:07.008,348123,t,0,0,4
16:07.122,348164,t,0,0,4
16:07.203,348193,),0,0,2
16:09.014,348845,(,0,0,1
16:09.078,348868,N,0,0,0
16:09.119,348883,),0,0,1
16:09.222,348920,(,0,0,2
16:09.325,348957,t,0,0,4
16:09.433,348996,t,0,0,4
16:09.511,349024,),0,0,2
16:10.172,349262,(,0,0,1
16:10.239,349286,N,0,0,0
16:10.278,349300,),0,0,1
16:10.419,349351,(,0,0,2
16:10.506,349382,t,0,0,4
16:10.617,349422,t,0,0,4
16:10.692,349449,),0,0,2
16:11.300,349668,(,0,0,1
16:11.372,349694,N,0,0,0
16:11.419,349711,),0,0,1
16:11.669,349801,(,0,0,2
16:11.761,349834,t,0,0,0
16:11.844,349864,),0,0,2
16:12.472,350090,(,0,0,1
16:12.539,350114,N,0,0,0
16:12.583,350130,),0,0,1
16:12.689,350168,(,0,0,2
16:12.806,350210,t,0,0,4
16:12.911,350248,t,0,0,4
16:12.986,350275,),0,0,2
16:13.531,350471,(,0,0,0
16:13.539,350474,p,0,0,0
16:13.544,350476,),0,0,0
16:13.667,350520,(,0,0,1
16:13.711,350536,N,0,0,0
16:13.750,350550,),0,0,1
16:13.881,350597,(,0,0,2
16:13.969,350629,t,0,0,4
16:14.083,350670,t,0,0,4
16:14.161,350698,),0,0,2
16:14.814,350933,(,0,0,1
16:14.881,350957,N,0,0,0
16:14.919,350971,),0,0,1
16:15.011,351004,(,0,0,2
16:15.144,351052,t,0,0,4
16:15.264,351095,t,0,0,4
16:15.344,351124,),0,0,2
16:15.722,351260,(,0,0,0
16:15.767,351276,p,0,0,0
16:15.839,351302,),0,0,0
16:15.972,351350,(,0,0,1
16:16.019,351367,N,0,0,0
16:16.064,351383,),0,0,1
16:16.203,351433,(,0,0,2
16:16.281,351461,t,0,0,4
16:16.392,351501,t,0,0,4
16:16.475,351531,),0,0,2
16:17.086,351751,(,0,0,0
16:17.131,351767,p,0,0,0
16:17.169,351781,),0,0,0
16:17.175,351783,(,0,0,1
16:17.225,351801,N,0,0,0
16:17.269,351817,),0,0,1
16:17.406,351866,(,0,0,2
16:17.497,351899,t,0,0,4
16:17.606,351938,t,0,0,4
16:17.683,351966,),0,0,2
16:18.303,352189,(,0,0,1
16:18.372,352214,N,0,0,0
16:18.411,352228,),0,0,1
16:18.536,352273,(,0,0,2
16:18.631,352307,t,0,0,4
16:18.756,352352,t,0,0,4
16:18.839,352382,),0,0,2
16:19.528,352630,(,0,0,1
16:19.600,352656,N,0,0,0
16:19.639,352670,),0,0,1
16:19.764,352715,(,0,0,2
16:19.878,352756,t,0,0,4
16:19.994,352798,t,0,0,4
16:20.078,352828,),0,0,2
16:20.742,353067,(,0,0,1
16:20.811,353092,N,0,0,0
16:20.856,353108,),0,0,1
16:20.964,353147,(,0,0,2
16:21.081,353189,t,0,0,4
16:21.194,353230,t,0,0,4
16:21.269,353257,),0,0,2
16:21.933,353496,(,0,0,1
16:22.006,353522,N,0,0,0
16:22.047,353537,),0,0,1
16:22.189,353588,(,0,0,2
16:22.281,353621,t,0,0,4
16:22.394,353662,t,0,0,4
16:22.475,353691,),0,0,2
16:23.128,353926,(,0,0,1
16:23.192,353949,N,0,0,0
16:23.233,353964,),0,0,1
16:23.367,354012,(,0,0,2
16:23.453,354043,t,0,0,4
16:23.564,354083,t,0,0,4
16:23.647,354113,),0,0,2
16:25.492,354777,(,0,0,1
16:25.536,354793,N,0,0,0
16:25.578,354808,),0,0,1
16:25.703,354853,(,0,0,2
16:25.794,354886,t,0,0,4
16:25.903,354925,t,0,0,4
16:25.975,354951,),0,0,2
16:27.742,355587,(,0,0,1
16:27.811,355612,N,0,0,0
16:27.853,355627,),0,0,1
16:27.969,355669,(,0,0,2
16:28.081,355709,t,0,0,4
16:28.194,355750,t,0,0,4
16:28.283,355782,),0,0,2
16:28.903,356005,(,0,0,1
16:28.969,356029,N,0,0,0
16:29.011,356044,),0,0,1
16:29.128,356086,(,0,0,2
16:29.242,356127,t,0,0,4
16:29.356,356168,t,0,0,4
16:29.431,356195,),0,0,2
16:30.050,356418,(,0,0,1
16:30.125,356445,N,0,0,0
16:30.169,356461,),0,0,1
16:30.311,356512,(,0,0,2
16:30.403,356545,t,0,0,4
16:30.511,356584,t,0,0,4
16:30.594,356614,),0,0,2
16:31.228,356842,(,0,0,1
16:31.297,356867,N,0,0,0
16:31.339,356882,),0,0,1
16:31.472,356930,(,0,0,2
16:31.556,356960,t,0,0,4
16:31.661,356998,t,0,0,4
16:31.739,357026,),0,0,2
16:32.408,357267,(,0,0,1
16:32.478,357292,N,0,0,0
16:32.519,357307,),0,0,1
16:32.764,357395,(,0,0,2
16:32.844,357424,t,0,0,0
16:32.925,357453,),0,0,2
16:33.572,357686,(,0,0,1
16:33.639,357710,N,0,0,0
16:33.681,357725,),0,0,1
16:33.819,357775,(,0,0,2
16:33.922,357812,t,0,0,4
16:34.042,357855,t,0,0,4
16:34.111,357880,),0,0,2
16:34.733,358104,(,0,0,1
16:34.803,358129,N,0,0,0
16:34.844,358144,),0,0,1
16:34.944,358180,(,0,0,2
16:35.056,358220,t,0,0,4
16:35.169,358261,t,0,0,4
16:35.250,358290,),0,0,2
16:35.911,358528,(,0,0,1
16:35.981,358553,N,0,0,0
16:36.022,358568,),0,0,1
16:36.122,358604,(,0,0,2
16:36.244,358648,t,0,0,4
16:36.353,358687,t,0,0,4
16:36.433,358716,),0,0,2
16:36.833,358860,(,0,0,0
16:36.867,358872,p,0,0,0
16:36.936,358897,),0,0,0
16:37.075,358947,(,0,0,1
16:37.100,358956,N,0,0,0
16:37.142,358971,),0,0,1
16:37.731,359183,(,0,0,2
16:37.811,359212,t,0,0,1
16:38.017,359286,),0,0,2
16:39.239,359726,(,0,0,1
16:39.308,359751,N,0,0,0
16:39.350,359766,),0,0,1
16:39.614,359861,(,0,0,2
16:39.711,359896,t,0,0,5
16:39.814,359933,t,0,0,5
16:39.919,359971,),0,0,2
16:40.378,360136,(,0,0,1
16:40.447,360161,N,0,0,0
16:40.489,360176,),0,0,1
16:40.633,360228,(,0,0,2
16:40.714,360257,t,0,0,4
16:40.819,360295,t,0,0,4
16:40.894,360322,),0,0,2
16:41.603,360577,(,0,0,1
16:41.672,360602,N,0,0,0
16:41.711,360616,),0,0,1
16:41.958,360705,(,0,0,2
16:42.044,360736,t,0,0,0
16:42.133,360768,),0,0,2
16:42.753,360991,(,0,0,1
16:42.817,361014,N,0,0,0
16:42.858,361029,),0,0,1
16:42.981,361073,(,0,0,2
16:43.097,361115,t,0,0,4
16:43.211,361156,t,0,0,4
16:43.294,361186,),0,0,2
16:43.917,361410,(,0,0,1
16:43.986,361435,N,0,0,0
16:44.025,361449,),0,0,1
16:44.153,361495,(,0,0,2
16:44.239,361526,t,0,0,4
16:44.356,361568,t,0,0,4
16:44.436,361597,),0,0,2
16:45.078,361828,(,0,0,1
16:45.153,361855,N,0,0,0
16:45.197,361871,),0,0,1
16:45.319,361915,(,0,0,2
16:45.425,361953,t,0,0,4
16:45.536,361993,t,0,0,4
16:45.608,362019,),0,0,2
16:46.233,362244,(,0,0,1
16:46.297,362267,N,0,0,0
16:46.339,362282,),0,0,1
16:46.450,362322,(,0,0,2
16:46.561,362362,t,0,0,4
16:46.675,362403,t,0,0,4
16:46.767,362436,),0,0,2
16:47.386,362659,(,0,0,1
16:47.456,362684,N,0,0,0
16:47.497,362699,),0,0,1
16:47.622,362744,(,0,0,2
16:47.722,362780,t,0,0,4
16:47.844,362824,t,0,0,4
16:47.925,362853,),0,0,2
16:48.544,363076,(,0,0,1
16:48.619,363103,N,0,0,0
16:48.664,363119,),0,0,1
16:48.783,363162,(,0,0,2
16:48.886,363199,t,0,0,4
16:49.000,363240,t,0,0,4
16:49.075,363267,),0,0,2
16:49.697,363491,(,0,0,1
16:49.764,363515,N,0,0,0
16:49.808,363531,),0,0,1
16:49.919,363571,(,0,0,2
16:50.036,363613,t,0,0,4
16:50.144,363652,t,0,0,4
16:50.228,363682,),0,0,2
16:50.842,363903,(,0,0,1
16:50.911,363928,N,0,0,0
16:50.950,363942,),0,0,1
16:51.186,364027,(,0,0,2
16:51.278,364060,t,0,0,0
16:51.350,364086,),0,0,2
16:51.856,364268,(,0,0,0
16:51.878,364276,p,0,0,0
16:51.917,364290,),0,0,0
16:51.961,364306,(,0,0,1
16:52.006,364322,N,0,0,0
16:52.050,364338,),0,0,1
16:52.156,364376,(,0,0,2
16:52.289,364424,t,0,0,4
16:52.397,364463,t,0,0,4
16:52.478,364492,),0,0,2
16:53.078,364708,(,0,0,1
16:53.150,364734,N,0,0,0
16:53.192,364749,),0,0,1
16:53.447,364841,(,0,0,2
16:53.536,364873,t,0,0,0
16:53.611,364900,),0,0,2
16:54.183,365106,(,0,0,1
16:54.256,365132,N,0,0,0
16:54.303,365149,),0,0,1
16:54.408,365187,(,0,0,2
16:54.525,365229,t,0,0,4
16:54.631,365267,t,0,0,4
16:54.708,365295,),0,0,2
16:55.289,365504,(,0,0,0
16:55.306,365510,p,0,0,0
16:55.342,365523,),0,0,0
16:55.367,365532,(,0,0,1
16:55.394,365542,N,0,0,0
16:55.436,365557,),0,0,1
16:55.686,365647,(,0,0,2
16:55.775,365679,t,0,0,0
16:55.850,365706,),0,0,2
16:56.486,365935,(,0,0,1
16:56.556,365960,N,0,0,0
16:56.597,365975,),0,0,1
16:56.694,366010,(,0,0,2
16:56.814,366053,t,0,0,4
16:56.925,366093,t,0,0,4
16:57.003,366121,),0,0,2
16:57.650,366354,(,0,0,1
16:57.722,366380,N,0,0,0
16:57.767,366396,),0,0,1
16:57.914,366449,(,0,0,2
16:58.000,366480,t,0,0,4
16:58.125,366525,t,0,0,4
16:58.208,366555,),0,0,2
16:58.814,366773,(,0,0,1
16:58.881,366797,N,0,0,0
16:58.925,366813,),0,0,1
16:59.031,366851,(,0,0,2
16:59.150,366894,t,0,0,4
16:59.256,366932,t,0,0,4
16:59.322,366956,),0,0,2
17:00.006,367202,(,0,0,1
17:00.069,367225,N,0,0,0
17:00.108,367239,),0,0,1
17:00.214,367277,(,0,0,2
17:00.322,367316,t,0,0,4
17:00.436,367357,t,0,0,4
17:00.519,367387,),0,0,2
17:01.158,367617,(,0,0,1
17:01.231,367643,N,0,0,0
17:01.272,367658,),0,0,1
17:01.361,367690,(,0,0,2
17:01.494,367738,t,0,0,4
17:01.614,367781,t,0,0,4
17:01.692,367809,),0,0,2
17:02.350,368046,(,0,0,1
17:02.422,368072,N,0,0,0
17:02.464,368087,),0,0,1
17:02.586,368131,(,0,0,2
17:02.683,368166,t,0,0,4
17:02.794,368206,t,0,0,4
17:02.875,368235,),0,0,2
17:03.511,368464,(,0,0,1
17:03.578,368488,N,0,0,0
17:03.625,368505,),0,0,1
17:03.731,368543,(,0,0,2
17:03.844,368584,t,0,0,4
17:03.956,368624,t,0,0,4
17:04.031,368651,),0,0,2
17:04.686,368887,(,0,0,1
17:04.750,368910,N,0,0,0
17:04.792,368925,),0,0,1
17:04.894,368962,(,0,0,2
17:05.003,369001,t,0,0,4
17:05.122,369044,t,0,0,4
17:05.200,369072,),0,0,2
17:05.831,369299,(,0,0,1
17:05.900,369324,N,0,0,0
17:05.944,369340,),0,0,1
17:06.039,369374,(,0,0,2
17:06.158,369417,t,0,0,4
17:06.272,369458,t,0,0,4
17:06.350,369486,),0,0,2
17:07.025,369729,(,0,0,1
17:07.103,369757,N,0,0,0
17:07.150,369774,),0,0,1
17:07.406,369866,(,0,0,2
17:07.492,369897,t,0,0,0
17:07.575,369927,),0,0,2
17:08.206,370154,(,0,0,1
17:08.272,370178,N,0,0,0
17:08.317,370194,),0,0,1
17:08.431,370235,(,0,0,2
17:08.536,370273,t,0,0,4
17:08.644,370312,t,0,0,4
17:08.728,370342,),0,0,2
17:09.419,370591,(,0,0,1
17:09.489,370616,N,0,0,0
17:09.533,370632,),0,0,1
17:09.661,370678,(,0,0,2
17:09.761,370714,t,0,0,4
17:09.878,370756,t,0,0,4
17:09.958,370785,),0,0,2
17:10.567,371004,(,0,0,1
17:10.636,371029,N,0,0,0
17:10.678,371044,),0,0,1
17:10.806,371090,(,0,0,2
17:10.925,371133,t,0,0,4
17:11.036,371173,t,0,0,4
17:11.111,371200,),0,0,2
17:11.744,371428,(,0,0,1
17:11.814,371453,N,0,0,0
17:11.856,371468,),0,0,1
17:11.969,371509,(,0,0,2
17:12.075,371547,t,0,0,4
17:12.194,371590,t,0,0,4
17:12.278,371620,),0,0,2
17:12.928,371854,(,0,0,1
17:13.000,371880,N,0,0,0
17:13.042,371895,),0,0,1
17:13.133,371928,(,0,0,2
17:13.261,371974,t,0,0,4
17:13.369,372013,t,0,0,4
17:13.453,372043,),0,0,2
17:14.086,372271,(,0,0,1
17:14.117,372282,N,0,0,0
17:14.161,372298,),0,0,1
17:14.272,372338,(,0,0,2
17:14.392,372381,t,0,0,4
17:14.519,372427,t,0,0,4
17:14.600,372456,),0,0,2
17:16.339,373082,(,0,0,0
17:16.358,373089,p,0,0,0
17:16.375,373095,),0,0,0
17:16.425,373113,(,0,0,1
17:16.472,373130,N,0,0,0
17:16.517,373146,),0,0,1
17:16.606,373178,(,0,0,2
17:16.725,373221,t,0,0,4
17:16.836,373261,t,0,0,4
17:16.922,373292,),0,0,2
17:18.731,373943,(,0,0,1
17:18.794,373966,N,0,0,0
17:18.836,373981,),0,0,1
17:18.942,374019,(,0,0,2
17:19.056,374060,t,0,0,4
17:19.175,374103,t,0,0,4
17:19.258,374133,),0,0,2
17:19.931,374375,(,0,0,1
17:20.003,374401,N,0,0,0
17:20.047,374417,),0,0,1
17:20.186,374467,(,0,0,2
17:20.286,374503,t,0,0,4
17:20.397,374543,t,0,0,4
17:20.475,374571,),0,0,2
17:21.097,374795,(,0,0,1
17:21.167,374820,N,0,0,0
17:21.211,374836,),0,0,1
17:21.294,374866,(,0,0,2
17:21.414,374909,t,0,0,4
17:21.522,374948,t,0,0,4
17:21.603,374977,),0,0,2
17:23.414,375629,(,0,0,1
17:23.481,375653,N,0,0,0
17:23.525,375669,),0,0,1
17:23.792,375765,(,0,0,2
17:24.050,375858,t,0,0,0
17:24.303,375949,),0,0,2
17:25.703,376453,(,0,0,1
17:25.769,376477,N,0,0,0
17:25.814,376493,),0,0,1
17:26.050,376578,(,0,0,2
17:26.147,376613,t,0,0,5
17:26.253,376651,t,0,0,5
17:26.372,376694,),0,0,2
17:26.811,376852,(,0,0,1
17:26.881,376877,N,0,0,0
17:26.917,376890,),0,0,1
17:29.122,377684,(,0,0,1
17:29.192,377709,N,0,0,0
17:29.233,377724,),0,0,1
17:29.344,377764,(,0,0,2
17:29.464,377807,t,0,0,4
17:29.583,377850,t,0,0,4
17:29.661,377878,),0,0,2
17:30.231,378083,(,0,0,1
17:30.300,378108,N,0,0,0
17:30.342,378123,),0,0,1
17:30.450,378162,(,0,0,2
17:30.556,378200,t,0,0,4
17:30.669,378241,t,0,0,4
17:30.756,378272,),0,0,2
17:32.522,378908,(,0,0,0
17:32.542,378915,p,0,0,0
17:32.558,378921,),0,0,0
17:32.608,378939,(,0,0,1
17:32.656,378956,N,0,0,0
17:32.700,378972,),0,0,1
17:32.817,379014,(,0,0,2
17:32.931,379055,t,0,0,4
17:33.050,379098,t,0,0,4
17:33.133,379128,),0,0,2
17:33.739,379346,(,0,0,1
17:33.808,379371,N,0,0,0
17:33.847,379385,),0,0,1
17:34.106,379478,(,0,0,2
17:34.333,379560,t,0,0,0
17:34.572,379646,),0,0,2
17:35.783,380082,(,0,0,0
17:35.836,380101,p,0,0,0
17:35.906,380126,),0,0,0
17:36.025,380169,(,0,0,1
17:36.067,380184,N,0,0,0
17:36.108,380199,),0,0,1
17:36.389,380300,(,0,0,2
17:36.486,380335,t,0,0,0
17:36.572,380366,),0,0,2
17:37.186,380587,(,0,0,1
17:37.256,380612,N,0,0,0
17:37.294,380626,),0,0,1
17:37.447,380681,(,0,0,2
17:37.514,380705,t,0,0,4
17:37.631,380747,t,0,0,4
17:37.706,380774,),0,0,2
17:38.131,380927,(,0,0,0
17:38.136,380929,p,0,0,0
17:38.222,380960,),0,0,0
17:38.336,381001,(,0,0,1
17:38.386,381019,N,0,0,0
17:38.431,381035,),0,0,1
17:38.550,381078,(,0,0,2
17:38.647,381113,t,0,0,4
17:38.756,381152,t,0,0,4
17:38.839,381182,),0,0,2
17:39.481,381413,(,0,0,1
17:39.517,381426,N,0,0,0
17:39.553,381439,),0,0,1
17:39.653,381475,(,0,0,2
17:39.781,381521,t,0,0,4
17:39.906,381566,t,0,0,4
17:39.950,381582,),0,0,2
17:46.975,384111,(,0,0,1
17:47.039,384134,N,0,0,0
17:47.078,384148,),0,0,1
17:47.336,384241,(,0,0,2
17:47.431,384275,t,0,0,0
17:47.514,384305,),0,0,2
17:49.283,384942,(,0,0,1
17:49.356,384968,N,0,0,0
17:49.400,384984,),0,0,1
17:49.650,385074,(,0,0,2
17:49.733,385104,t,0,0,0
17:49.811,385132,),0,0,2
17:50.381,385337,(,0,0,1
17:50.450,385362,N,0,0,0
17:50.492,385377,),0,0,1
17:50.622,385424,(,0,0,2
17:50.722,385460,t,0,0,4
17:50.831,385499,t,0,0,4
17:50.894,385522,),0,0,2
17:51.539,385754,(,0,0,1
17:51.608,385779,N,0,0,0
17:51.650,385794,),0,0,1
17:51.764,385835,(,0,0,2
17:51.864,385871,t,0,0,4
17:51.969,385909,t,0,0,4
17:52.047,385937,),0,0,2
17:52.656,386156,(,0,0,1
17:52.722,386180,N,0,0,0
17:52.764,386195,),0,0,1
17:52.903,386245,(,0,0,2
17:53.017,386286,t,0,0,4
17:53.131,386327,t,0,0,4
17:53.203,386353,),0,0,2
17:53.900,386604,(,0,0,1
17:53.967,386628,N,0,0,0
17:54.014,386645,),0,0,1
17:54.264,386735,(,0,0,2
17:54.353,386767,t,0,0,0
17:54.417,386790,),0,0,2
17:55.064,387023,(,0,0,1
17:55.136,387049,N,0,0,0
17:55.175,387063,),0,0,1
17:55.281,387101,(,0,0,2
17:55.397,387143,t,0,0,4
17:55.511,387184,t,0,0,4
17:55.583,387210,),0,0,2
17:56.028,387370,(,0,0,0
17:56.058,387381,p,0,0,0
17:56.100,387396,),0,0,0
17:56.242,387447,(,0,0,1
17:56.289,387464,N,0,0,0
17:56.333,387480,),0,0,1
17:56.447,387521,(,0,0,2
17:56.553,387559,t,0,0,4
17:56.667,387600,t,0,0,4
17:56.753,387631,),0,0,2
17:57.306,387830,(,0,0,0
17:57.328,387838,p,0,0,0
17:57.347,387845,),0,0,0
17:57.392,387861,(,0,0,1
17:57.436,387877,N,0,0,0
17:57.478,387892,),0,0,1
17:57.611,387940,(,0,0,2
17:57.703,387973,t,0,0,4
17:57.814,388013,t,0,0,4
17:57.894,388042,),0,0,2
17:58.536,388273,(,0,0,1
17:58.614,388301,N,0,0,0
17:58.658,388317,),0,0,1
17:58.786,388363,(,0,0,2
17:58.897,388403,t,0,0,4
17:59.014,388445,t,0,0,4
17:59.089,388472,),0,0,2
17:59.706,388694,(,0,0,1
17:59.775,388719,N,0,0,0
17:59.819,388735,),0,0,1
17:59.936,388777,(,0,0,2
18:00.039,388814,t,0,0,4
18:00.139,388850,t,0,0,4
18:00.214,388877,),0,0,2
18:00.889,389120,(,0,0,1
18:00.933,389136,N,0,0,0
18:00.975,389151,),0,0,1
18:01.075,389187,(,0,0,2
18:01.194,389230,t,0,0,4
18:01.303,389269,t,0,0,4
18:01.381,389297,),0,0,2
18:01.811,389452,(,0,0,0
18:01.828,389458,p,0,0,0
18:01.869,389473,),0,0,0
18:02.006,389522,(,0,0,1
18:02.050,389538,N,0,0,0
18:02.092,389553,),0,0,1
18:02.200,389592,(,0,0,2
18:02.319,389635,t,0,0,4
18:02.436,389677,t,0,0,4
18:02.522,389708,),0,0,2
18:03.172,389942,(,0,0,1
18:03.242,389967,N,0,0,0
18:03.286,389983,),0,0,1
18:03.403,390025,(,0,0,2
18:03.503,390061,t,0,0,4
18:03.619,390103,t,0,0,4
18:03.703,390133,),0,0,2
18:04.322,390356,(,0,0,1
18:04.397,390383,N,0,0,0
18:04.442,390399,),0,0,1
18:04.567,390444,(,0,0,2
18:04.667,390480,t,0,0,4
18:04.775,390519,t,0,0,4
18:04.858,390549,),0,0,2
18:05.542,390795,(,0,0,1
18:05.608,390819,N,0,0,0
18:05.647,390833,),0,0,1
18:05.769,390877,(,0,0,2
18:05.856,390908,t,0,0,4
18:05.969,390949,t,0,0,4
18:06.056,390980,),0,0,2
