Elapsedtime,sample,Type,Sub,Chan,Num
0:01.761,634,(,0,0,0
0:01.792,645,p,0,0,0
0:01.858,669,),0,0,0
0:01.878,676,(,0,0,1
0:01.914,689,N,0,0,0
0:02.053,739,),0,0,1
0:02.058,741,(,0,0,2
0:02.108,759,t,0,0,5
0:02.406,866,t,0,0,5
0:02.472,890,),0,0,2
0:03.047,1097,(,0,0,0
0:03.072,1106,p,0,0,0
0:03.122,1124,),0,0,0
0:03.147,1133,(,0,0,1
0:03.183,1146,N,0,0,0
0:03.300,1188,),0,0,1
0:03.339,1202,(,0,0,2
0:03.383,1218,t,0,0,0
0:03.519,1267,),0,0,2
0:04.303,1549,(,0,0,0
0:04.367,1572,p,0,0,0
0:04.414,1589,),0,0,0
0:04.433,1596,(,0,0,1
0:04.469,1609,N,0,0,0
0:04.575,1647,),0,0,1
0:04.611,1660,(,0,0,2
0:04.669,1681,t,0,0,0
0:04.797,1727,),0,0,2
0:05.672,2042,(,0,0,1
0:05.753,2071,N,0,0,0
0:05.836,2101,),0,0,1
0:05.881,2117,(,0,0,2
0:05.939,2138,t,0,0,0
0:06.064,2183,),0,0,2
0:06.800,2448,(,0,0,0
0:06.869,2473,p,0,0,0
0:06.903,2485,),0,0,0
0:06.925,2493,(,0,0,1
0:06.958,2505,N,0,0,0
0:07.053,2539,),0,0,1
0:07.086,2551,(,0,0,2
0:07.142,2571,t,0,0,0
0:07.267,2616,),0,0,2
0:07.989,2876,(,0,0,0
0:08.078,2908,p,0,0,0
0:08.133,2928,),0,0,0
0:08.192,2949,(,0,0,1
0:08.300,2988,N,0,0,0
0:08.367,3012,),0,0,1
0:08.394,3022,(,0,0,2
0:08.528,3070,t,0,0,0
0:08.667,3120,),0,0,2
0:09.511,3424,(,0,0,0
0:09.572,3446,p,0,0,0
0:09.617,3462,),0,0,0
0:09.636,3469,(,0,0,1
0:09.672,3482,N,0,0,0
0:09.778,3520,),0,0,1
0:09.822,3536,(,0,0,2
0:09.872,3554,t,0,0,0
0:10.003,3601,),0,0,2
0:10.842,3903,(,0,0,0
0:10.878,3916,p,0,0,0
0:10.911,3928,),0,0,0
0:10.978,3952,(,0,0,1
0:11.042,3975,N,0,0,0
0:11.086,3991,),0,0,1
0:11.169,4021,(,0,0,2
0:11.283,4062,t,0,0,0
0:11.436,4117,),0,0,2
0:12.694,4570,(,0,0,0
0:12.717,4578,p,0,0,0
0:12.742,4587,),0,0,0
0:12.858,4629,(,0,0,1
0:12.906,4646,N,0,0,0
0:12.950,4662,),0,0,1
0:13.083,4710,(,0,0,2
0:13.169,4741,t,0,0,0
0:13.286,4783,),0,0,2
0:13.403,4825,(,0,0,0
0:13.436,4837,p,0,0,0
0:13.478,4852,),0,0,0
0:13.506,4862,(,0,0,1
0:13.556,4880,N,0,0,0
0:13.608,4899,),0,0,1
0:13.728,4942,(,0,0,2
0:13.828,4978,t,0,0,0
0:13.978,5032,),0,0,2
0:14.731,5303,(,0,0,0
0:14.792,5325,p,0,0,0
0:14.850,5346,),0,0,0
0:14.906,5366,(,0,0,1
0:14.947,5381,N,0,0,0
0:14.992,5397,),0,0,1
0:15.106,5438,(,0,0,2
0:15.189,5468,t,0,0,0
0:15.289,5504,),0,0,2
0:15.356,5528,(,0,0,0
0:15.383,5538,p,0,0,0
0:15.417,5550,),0,0,0
0:15.525,5589,(,0,0,1
0:15.569,5605,N,0,0,0
0:15.614,5621,),0,0,1
0:15.744,5668,(,0,0,2
0:15.808,5691,t,0,0,0
0:15.892,5721,),0,0,2
0:15.953,5743,(,0,0,0
0:15.989,5756,p,0,0,0
0:16.050,5778,),0,0,0
0:16.122,5804,(,0,0,1
0:16.169,5821,N,0,0,0
0:16.214,5837,),0,0,1
0:16.344,5884,(,0,0,2
0:16.419,5911,t,0,0,0
0:16.522,5948,),0,0,2
0:16.667,6000,(,0,0,0
0:16.750,6030,p,0,0,0
0:16.842,6063,),0,0,0
0:16.864,6071,(,0,0,1
0:16.908,6087,N,0,0,0
0:16.958,6105,),0,0,1
0:17.047,6137,(,0,0,2
0:17.158,6177,t,0,0,5
0:17.300,6228,t,0,0,5
0:17.408,6267,),0,0,2
0:17.958,6465,(,0,0,0
0:18.003,6481,p,0,0,0
0:18.039,6494,),0,0,0
0:18.144,6532,(,0,0,1
0:18.186,6547,N,0,0,0
0:18.225,6561,),0,0,1
0:19.608,7059,(,0,0,1
0:19.656,7076,N,0,0,0
0:19.708,7095,),0,0,1
0:19.914,7169,(,0,0,2
0:19.936,7177,t,0,0,0
0:19.958,7185,),0,0,2
0:20.008,7203,(,0,0,0
0:20.047,7217,p,0,0,0
0:20.108,7239,),0,0,0
0:20.128,7246,(,0,0,1
0:20.164,7259,N,0,0,0
0:20.275,7299,),0,0,1
0:20.294,7306,(,0,0,2
0:20.375,7335,t,0,0,0
0:20.525,7389,),0,0,2
0:20.592,7413,(,0,0,1
0:20.708,7455,N,0,0,0
0:20.756,7472,),0,0,1
0:20.839,7502,(,0,0,2
0:20.886,7519,t,0,0,1
0:21.039,7574,),0,0,2
0:21.706,7814,(,0,0,0
0:21.794,7846,p,0,0,0
0:21.878,7876,),0,0,0
0:21.894,7882,(,0,0,1
0:21.939,7898,N,0,0,0
0:21.989,7916,),0,0,1
0:22.092,7953,(,0,0,2
0:22.153,7975,t,0,0,5
0:22.306,8030,t,0,0,5
0:22.369,8053,),0,0,2
0:23.111,8320,(,0,0,0
0:23.139,8330,p,0,0,0
0:23.172,8342,),0,0,0
0:23.275,8379,(,0,0,1
0:23.314,8393,N,0,0,0
0:23.353,8407,),0,0,1
0:23.436,8437,(,0,0,2
0:23.481,8453,t,0,0,0
0:23.586,8491,),0,0,2
0:23.728,8542,(,0,0,1
0:23.822,8576,N,0,0,0
0:23.881,8597,),0,0,1
0:23.897,8603,t,0,0,2
0:24.017,8646,),0,0,2
0:24.150,8694,(,0,0,1
0:24.236,8725,N,0,0,0
0:24.272,8738,),0,0,1
0:24.311,8752,(,0,0,2
0:24.422,8792,t,0,0,1
0:24.578,8848,),0,0,2
0:25.236,9085,(,0,0,0
0:25.272,9098,p,0,0,0
0:25.317,9114,),0,0,0
0:25.389,9140,(,0,0,1
0:25.472,9170,N,0,0,0
0:25.519,9187,),0,0,1
0:25.672,9242,t,0,0,2
0:25.783,9282,),0,0,2
0:25.847,9305,(,0,0,0
0:25.944,9340,p,0,0,0
0:25.983,9354,),0,0,0
0:26.003,9361,(,0,0,1
0:26.064,9383,N,0,0,0
0:26.164,9419,),0,0,1
0:26.208,9435,(,0,0,2
0:26.286,9463,t,0,0,0
0:26.431,9515,),0,0,2
0:26.728,9622,(,0,0,0
0:26.764,9635,p,0,0,0
0:26.803,9649,),0,0,0
0:26.922,9692,(,0,0,1
0:26.972,9710,N,0,0,0
0:27.025,9729,),0,0,1
0:27.169,9781,(,0,0,2
0:27.189,9788,t,0,0,4
0:27.289,9824,t,0,0,4
0:27.339,9842,),0,0,2
0:27.439,9878,(,0,0,0
0:27.472,9890,p,0,0,0
0:27.508,9903,),0,0,0
0:27.628,9946,(,0,0,1
0:27.672,9962,N,0,0,0
0:27.719,9979,),0,0,1
0:27.817,10014,(,0,0,2
0:27.936,10057,t,0,0,0
0:28.089,10112,),0,0,2
0:28.278,10180,(,0,0,1
0:28.325,10197,N,0,0,0
0:28.367,10212,),0,0,1
0:28.450,10242,(,0,0,2
0:28.578,10288,t,0,0,0
0:28.633,10308,),0,0,2
0:28.769,10357,(,0,0,0
0:28.800,10368,p,0,0,0
0:28.825,10377,),0,0,0
0:28.922,10412,(,0,0,1
0:28.989,10436,N,0,0,0
0:29.036,10453,),0,0,1
0:29.131,10487,(,0,0,2
0:29.233,10524,t,0,0,0
0:29.361,10570,),0,0,2
0:29.600,10656,(,0,0,1
0:29.647,10673,N,0,0,0
0:29.700,10692,),0,0,1
0:29.819,10735,(,0,0,2
0:29.917,10770,t,0,0,0
0:29.964,10787,),0,0,2
0:30.203,10873,(,0,0,1
0:30.281,10901,N,0,0,0
0:30.319,10915,),0,0,1
0:30.419,10951,(,0,0,2
0:30.519,10987,t,0,0,0
0:30.678,11044,),0,0,2
0:30.694,11050,(,0,0,0
0:30.722,11060,p,0,0,0
0:30.753,11071,),0,0,0
0:30.875,11115,(,0,0,1
0:30.922,11132,N,0,0,0
0:30.961,11146,),0,0,1
0:31.114,11201,(,0,0,2
0:31.167,11220,t,0,0,0
0:31.264,11255,),0,0,2
0:31.342,11283,(,0,0,0
0:31.408,11307,p,0,0,0
0:31.478,11332,),0,0,0
0:31.514,11345,(,0,0,1
0:31.558,11361,N,0,0,0
0:31.608,11379,),0,0,1
0:31.700,11412,(,0,0,2
0:31.808,11451,t,0,0,0
0:31.894,11482,),0,0,2
0:32.214,11597,(,0,0,1
0:32.267,11616,N,0,0,0
0:32.317,11634,),0,0,1
0:32.469,11689,(,0,0,2
0:32.564,11723,t,0,0,0
0:32.642,11751,),0,0,2
0:32.886,11839,(,0,0,1
0:32.936,11857,N,0,0,0
0:32.983,11874,),0,0,1
0:33.094,11914,(,0,0,2
0:33.211,11956,t,0,0,0
0:33.300,11988,),0,0,2
0:33.572,12086,(,0,0,0
0:33.608,12099,p,0,0,0
0:33.678,12124,),0,0,0
0:33.731,12143,(,0,0,1
0:33.772,12158,N,0,0,0
0:33.822,12176,),0,0,1
0:33.953,12223,(,0,0,2
0:34.061,12262,t,0,0,0
0:34.153,12295,),0,0,2
0:35.128,12646,(,0,0,0
0:35.164,12659,p,0,0,0
0:35.208,12675,),0,0,0
0:35.294,12706,(,0,0,1
0:35.336,12721,N,0,0,0
0:35.375,12735,),0,0,1
0:35.522,12788,(,0,0,2
0:35.547,12797,t,0,0,1
0:35.636,12829,),0,0,2
0:35.656,12836,(,0,0,0
0:35.736,12865,p,0,0,0
0:35.772,12878,),0,0,0
0:35.794,12886,(,0,0,1
0:35.831,12899,N,0,0,0
0:35.928,12934,),0,0,1
0:35.981,12953,(,0,0,2
0:36.033,12972,t,0,0,0
0:36.150,13014,),0,0,2
0:36.172,13022,(,0,0,1
0:36.253,13051,N,0,0,0
0:36.336,13081,),0,0,1
0:36.414,13109,t,0,0,2
0:36.525,13149,),0,0,2
0:37.297,13427,(,0,0,0
0:37.339,13442,p,0,0,0
0:37.408,13467,),0,0,0
0:37.511,13504,(,0,0,1
0:37.561,13522,N,0,0,0
0:37.608,13539,),0,0,1
0:37.736,13585,t,0,0,2
0:37.844,13624,),0,0,2
0:37.869,13633,(,0,0,0
0:37.908,13647,p,0,0,0
0:38.003,13681,),0,0,0
0:38.089,13712,(,0,0,1
0:38.144,13732,N,0,0,0
0:38.206,13754,),0,0,1
0:38.281,13781,(,0,0,2
0:38.358,13809,t,0,0,0
0:38.506,13862,),0,0,2
0:38.933,14016,(,0,0,0
0:38.978,14032,p,0,0,0
0:39.025,14049,),0,0,0
0:39.122,14084,(,0,0,1
0:39.167,14100,N,0,0,0
0:39.214,14117,),0,0,1
0:39.419,14191,(,0,0,2
0:39.503,14221,t,0,0,0
0:39.558,14241,),0,0,2
0:39.639,14270,(,0,0,0
0:39.708,14295,p,0,0,0
0:39.756,14312,),0,0,0
0:39.842,14343,(,0,0,1
0:39.889,14360,N,0,0,0
0:39.939,14378,),0,0,1
0:40.017,14406,(,0,0,2
0:40.042,14415,t,0,0,4
0:40.147,14453,t,0,0,4
0:40.175,14463,),0,0,2
0:40.181,14465,(,0,0,0
0:40.217,14478,p,0,0,0
0:40.297,14507,),0,0,0
0:40.306,14510,(,0,0,1
0:40.436,14557,N,0,0,0
0:40.539,14594,),0,0,1
0:40.617,14622,(,0,0,2
0:40.656,14636,t,0,0,0
0:40.789,14684,),0,0,2
0:41.178,14824,(,0,0,0
0:41.214,14837,p,0,0,0
0:41.247,14849,),0,0,0
0:41.356,14888,(,0,0,1
0:41.397,14903,N,0,0,0
0:41.442,14919,),0,0,1
0:41.508,14943,(,0,0,2
0:41.714,15017,t,0,0,0
0:41.772,15038,),0,0,2
0:42.567,15324,(,0,0,0
0:42.622,15344,p,0,0,0
0:42.661,15358,),0,0,0
0:42.758,15393,(,0,0,1
0:42.806,15410,N,0,0,0
0:42.858,15429,),0,0,1
0:43.069,15505,(,0,0,2
0:43.122,15524,t,0,0,0
0:43.147,15533,),0,0,2
0:44.033,15852,(,0,0,0
0:44.064,15863,p,0,0,0
0:44.092,15873,),0,0,0
0:44.167,15900,(,0,0,1
0:44.244,15928,N,0,0,0
0:44.289,15944,),0,0,1
0:44.486,16015,(,0,0,2
0:44.581,16049,t,0,0,0
0:44.678,16084,),0,0,2
0:45.167,16260,(,0,0,0
0:45.258,16293,p,0,0,0
0:45.297,16307,),0,0,0
0:45.450,16362,(,0,0,1
0:45.561,16402,N,0,0,0
0:45.625,16425,),0,0,1
0:45.717,16458,(,0,0,2
0:45.764,16475,t,0,0,0
0:45.914,16529,),0,0,2
0:46.042,16575,(,0,0,0
0:46.106,16598,p,0,0,0
0:46.192,16629,),0,0,0
0:46.333,16680,(,0,0,1
0:46.372,16694,N,0,0,0
0:46.417,16710,),0,0,1
0:46.572,16766,(,0,0,2
0:46.639,16790,t,0,0,0
0:46.664,16799,),0,0,2
0:46.731,16823,(,0,0,0
0:46.767,16836,p,0,0,0
0:46.831,16859,),0,0,0
0:46.850,16866,(,0,0,1
0:46.889,16880,N,0,0,0
0:46.994,16918,),0,0,1
0:47.014,16925,(,0,0,2
0:47.094,16954,t,0,0,0
0:47.211,16996,),0,0,2
0:47.478,17092,(,0,0,0
0:47.508,17103,p,0,0,0
0:47.536,17113,),0,0,0
0:47.606,17138,(,0,0,1
0:47.675,17163,N,0,0,0
0:47.719,17179,),0,0,1
0:47.908,17247,(,0,0,2
0:47.983,17274,t,0,0,0
0:48.053,17299,),0,0,2
0:48.833,17580,(,0,0,0
0:48.900,17604,p,0,0,0
0:48.967,17628,),0,0,0
0:49.022,17648,(,0,0,1
0:49.069,17665,N,0,0,0
0:49.125,17685,),0,0,1
0:49.322,17756,(,0,0,2
0:49.417,17790,t,0,0,0
0:49.458,17805,),0,0,2
0:50.283,18102,(,0,0,0
0:50.361,18130,p,0,0,0
0:50.433,18156,),0,0,0
0:50.486,18175,(,0,0,1
0:50.553,18199,N,0,0,0
0:50.594,18214,),0,0,1
0:50.822,18296,(,0,0,2
0:50.850,18306,t,0,0,1
0:50.881,18317,),0,0,2
0:51.544,18556,(,0,0,1
0:51.608,18579,N,0,0,0
0:51.703,18613,),0,0,1
0:51.769,18637,(,0,0,2
0:51.789,18644,t,0,0,0
0:51.822,18656,),0,0,2
0:51.889,18680,(,0,0,1
0:51.936,18697,N,0,0,0
0:52.025,18729,),0,0,1
0:52.117,18762,(,0,0,2
0:52.158,18777,t,0,0,4
0:52.253,18811,t,0,0,4
0:52.292,18825,),0,0,2
0:52.389,18860,(,0,0,0
0:52.425,18873,p,0,0,0
0:52.456,18884,),0,0,0
0:52.564,18923,(,0,0,1
0:52.608,18939,N,0,0,0
0:52.653,18955,),0,0,1
0:52.778,19000,(,0,0,2
0:52.822,19016,t,0,0,5
0:52.850,19026,t,0,0,5
0:52.867,19032,),0,0,2
0:52.897,19043,(,0,0,0
0:52.908,19047,p,0,0,0
0:52.981,19073,),0,0,0
0:53.069,19105,(,0,0,1
0:53.192,19149,N,0,0,0
0:53.286,19183,),0,0,1
0:53.292,19185,(,0,0,2
0:53.383,19218,t,0,0,0
0:53.539,19274,),0,0,2
0:53.742,19347,(,0,0,0
0:53.786,19363,p,0,0,0
0:53.811,19372,),0,0,0
0:53.936,19417,(,0,0,1
0:53.978,19432,N,0,0,0
0:54.031,19451,),0,0,1
0:54.106,19478,(,0,0,2
0:54.158,19497,t,0,0,1
0:54.244,19528,),0,0,2
0:54.378,19576,(,0,0,1
0:54.458,19605,N,0,0,0
0:54.497,19619,),0,0,1
0:54.558,19641,(,0,0,2
0:54.611,19660,t,0,0,4
0:54.794,19726,t,0,0,4
0:54.822,19736,),0,0,2
0:55.072,19826,(,0,0,0
0:55.128,19846,p,0,0,0
0:55.158,19857,),0,0,0
0:55.264,19895,(,0,0,1
0:55.319,19915,N,0,0,0
0:55.364,19931,),0,0,1
0:56.519,20347,(,0,0,0
0:56.550,20358,p,0,0,0
0:56.581,20369,),0,0,0
0:56.697,20411,(,0,0,1
0:56.750,20430,N,0,0,0
0:56.808,20451,),0,0,1
0:56.958,20505,(,0,0,2
0:56.978,20512,t,0,0,4
0:57.086,20551,t,0,0,4
0:57.189,20588,),0,0,2
0:57.964,20867,(,0,0,0
0:58.008,20883,p,0,0,0
0:58.050,20898,),0,0,0
0:58.150,20934,(,0,0,1
0:58.203,20953,N,0,0,0
0:58.247,20969,),0,0,1
0:59.381,21377,(,0,0,1
0:59.417,21390,N,0,0,0
0:59.461,21406,),0,0,1
0:59.650,21474,(,0,0,2
0:59.744,21508,t,0,0,0
0:59.786,21523,),0,0,2
1:00.542,21795,(,0,0,0
1:00.569,21805,p,0,0,0
1:00.600,21816,),0,0,0
1:00.664,21839,(,0,0,1
1:00.756,21872,N,0,0,0
1:00.797,21887,),0,0,1
1:00.994,21958,(,0,0,2
1:01.036,21973,t,0,0,0
1:01.061,21982,),0,0,2
1:01.931,22295,(,0,0,0
1:02.014,22325,p,0,0,0
1:02.094,22354,),0,0,0
1:02.142,22371,(,0,0,1
1:02.189,22388,N,0,0,0
1:02.236,22405,),0,0,1
1:02.372,22454,(,0,0,2
1:02.403,22465,t,0,0,1
1:02.489,22496,),0,0,2
1:02.672,22562,(,0,0,0
1:02.742,22587,p,0,0,0
1:02.811,22612,),0,0,0
1:02.844,22624,(,0,0,1
1:02.906,22646,N,0,0,0
1:02.942,22659,),0,0,1
1:03.125,22725,(,0,0,2
1:03.214,22757,t,0,0,0
1:03.308,22791,),0,0,2
1:03.325,22797,(,0,0,0
1:03.403,22825,p,0,0,0
1:03.456,22844,),0,0,0
1:03.511,22864,(,0,0,1
1:03.556,22880,N,0,0,0
1:03.597,22895,),0,0,1
1:03.728,22942,(,0,0,2
1:03.806,22970,t,0,0,0
1:03.953,23023,),0,0,2
1:04.158,23097,(,0,0,1
1:04.228,23122,N,0,0,0
1:04.275,23139,),0,0,1
1:04.447,23201,(,0,0,2
1:04.486,23215,t,0,0,0
1:04.550,23238,),0,0,2
1:04.561,23242,(,0,0,0
1:04.581,23249,p,0,0,0
1:04.628,23266,),0,0,0
1:04.800,23328,(,0,0,1
1:04.853,23347,N,0,0,0
1:04.903,23365,),0,0,1
1:05.017,23406,(,0,0,2
1:05.119,23443,t,0,0,0
1:05.247,23489,),0,0,2
1:05.369,23533,(,0,0,0
1:05.419,23551,p,0,0,0
1:05.467,23568,),0,0,0
1:05.517,23586,(,0,0,1
1:05.561,23602,N,0,0,0
1:05.600,23616,),0,0,1
1:05.717,23658,(,0,0,2
1:05.883,23718,t,0,0,0
1:05.997,23759,),0,0,2
1:06.044,23776,(,0,0,0
1:06.083,23790,p,0,0,0
1:06.111,23800,),0,0,0
1:06.228,23842,(,0,0,1
1:06.269,23857,N,0,0,0
1:06.314,23873,),0,0,1
1:06.397,23903,(,0,0,2
1:06.494,23938,t,0,0,0
1:06.597,23975,),0,0,2
1:06.664,23999,(,0,0,0
1:06.756,24032,p,0,0,0
1:06.783,24042,),0,0,0
1:06.856,24068,(,0,0,1
1:06.936,24097,N,0,0,0
1:06.983,24114,),0,0,1
1:07.069,24145,(,0,0,2
1:07.192,24189,t,0,0,0
1:07.256,24212,),0,0,2
1:07.375,24255,(,0,0,0
1:07.444,24280,p,0,0,0
1:07.511,24304,),0,0,0
1:07.536,24313,(,0,0,1
1:07.614,24341,N,0,0,0
1:07.658,24357,),0,0,1
1:07.772,24398,(,0,0,2
1:07.903,24445,t,0,0,0
1:08.075,24507,),0,0,2
1:08.108,24519,(,0,0,0
1:08.172,24542,p,0,0,0
1:08.231,24563,),0,0,0
1:08.247,24569,(,0,0,1
1:08.319,24595,N,0,0,0
1:08.364,24611,),0,0,1
1:08.464,24647,(,0,0,2
1:08.606,24698,t,0,0,0
1:08.661,24718,),0,0,2
1:08.764,24755,(,0,0,0
1:08.817,24774,p,0,0,0
1:08.836,24781,),0,0,0
1:08.878,24796,(,0,0,1
1:08.953,24823,N,0,0,0
1:09.003,24841,),0,0,1
1:09.136,24889,(,0,0,2
1:09.192,24909,t,0,0,0
1:09.219,24919,),0,0,2
1:09.522,25028,(,0,0,0
1:09.558,25041,p,0,0,0
1:09.619,25063,),0,0,0
1:09.681,25085,(,0,0,1
1:09.728,25102,N,0,0,0
1:09.772,25118,),0,0,1
1:09.961,25186,(,0,0,2
1:10.006,25202,t,0,0,0
1:10.058,25221,),0,0,2
1:10.139,25250,(,0,0,0
1:10.181,25265,p,0,0,0
1:10.258,25293,),0,0,0
1:10.278,25300,(,0,0,1
1:10.311,25312,N,0,0,0
1:10.403,25345,),0,0,1
1:10.444,25360,(,0,0,2
1:10.514,25385,t,0,0,0
1:10.656,25436,),0,0,2
1:10.881,25517,(,0,0,0
1:10.903,25525,p,0,0,0
1:10.936,25537,),0,0,0
1:11.108,25599,(,0,0,1
1:11.186,25627,N,0,0,0
1:11.233,25644,),0,0,1
1:11.311,25672,(,0,0,2
1:11.472,25730,t,0,0,0
1:11.489,25736,),0,0,2
1:11.525,25749,(,0,0,0
1:11.556,25760,p,0,0,0
1:11.594,25774,),0,0,0
1:11.617,25782,(,0,0,1
1:11.650,25794,N,0,0,0
1:11.739,25826,),0,0,1
1:11.756,25832,(,0,0,2
1:11.831,25859,t,0,0,0
1:11.969,25909,),0,0,2
1:12.097,25955,(,0,0,1
1:12.200,25992,N,0,0,0
1:12.272,26018,),0,0,1
1:12.350,26046,(,0,0,2
1:12.378,26056,t,0,0,1
1:12.494,26098,),0,0,2
1:13.081,26309,(,0,0,0
1:13.117,26322,p,0,0,0
1:13.167,26340,),0,0,0
1:13.253,26371,(,0,0,1
1:13.297,26387,N,0,0,0
1:13.347,26405,),0,0,1
1:13.572,26486,(,0,0,2
1:13.608,26499,t,0,0,0
1:13.661,26518,),0,0,2
1:13.758,26553,(,0,0,1
1:13.875,26595,N,0,0,0
1:13.942,26619,),0,0,1
1:13.969,26629,(,0,0,2
1:14.114,26681,t,0,0,0
1:14.278,26740,),0,0,2
1:14.408,26787,(,0,0,0
1:14.439,26798,p,0,0,0
1:14.458,26805,),0,0,0
1:14.725,26901,(,0,0,1
1:14.772,26918,N,0,0,0
1:14.822,26936,),0,0,1
1:14.875,26955,(,0,0,2
1:14.897,26963,t,0,0,1
1:14.933,26976,),0,0,2
1:15.108,27039,(,0,0,0
1:15.175,27063,p,0,0,0
1:15.242,27087,),0,0,0
1:15.264,27095,(,0,0,1
1:15.297,27107,N,0,0,0
1:15.417,27150,),0,0,1
1:15.422,27152,(,0,0,2
1:15.494,27178,t,0,0,0
1:15.633,27228,),0,0,2
1:16.156,27416,(,0,0,0
1:16.189,27428,p,0,0,0
1:16.217,27438,),0,0,0
1:16.258,27453,(,0,0,1
1:16.317,27474,N,0,0,0
1:16.358,27489,),0,0,1
1:16.469,27529,(,0,0,2
1:16.489,27536,t,0,0,1
1:16.583,27570,),0,0,2
1:16.694,27610,(,0,0,0
1:16.717,27618,p,0,0,0
1:16.747,27629,),0,0,0
1:16.769,27637,(,0,0,1
1:16.808,27651,N,0,0,0
1:16.903,27685,),0,0,1
1:16.928,27694,(,0,0,2
1:17.033,27732,t,0,0,0
1:17.158,27777,),0,0,2
1:17.600,27936,(,0,0,0
1:17.669,27961,p,0,0,0
1:17.736,27985,),0,0,0
1:17.753,27991,(,0,0,1
1:17.825,28017,N,0,0,0
1:17.889,28040,),0,0,1
1:18.042,28095,(,0,0,2
1:18.056,28100,t,0,0,1
1:18.133,28128,),0,0,2
1:18.206,28154,(,0,0,0
1:18.236,28165,p,0,0,0
1:18.278,28180,),0,0,0
1:18.303,28189,(,0,0,1
1:18.336,28201,N,0,0,0
1:18.428,28234,),0,0,1
1:18.472,28250,(,0,0,2
1:18.536,28273,t,0,0,0
1:18.667,28320,),0,0,2
1:19.039,28454,(,0,0,0
1:19.064,28463,p,0,0,0
1:19.144,28492,),0,0,0
1:19.286,28543,(,0,0,1
1:19.331,28559,N,0,0,0
1:19.378,28576,),0,0,1
1:19.589,28652,(,0,0,2
1:19.639,28670,t,0,0,0
1:19.681,28685,),0,0,2
1:19.700,28692,(,0,0,1
1:19.850,28746,N,0,0,0
1:19.942,28779,),0,0,1
1:19.975,28791,(,0,0,2
1:20.078,28828,t,0,0,0
1:20.197,28871,),0,0,2
1:20.653,29035,(,0,0,0
1:20.686,29047,p,0,0,0
1:20.717,29058,),0,0,0
1:20.775,29079,(,0,0,1
1:20.856,29108,N,0,0,0
1:20.906,29126,),0,0,1
1:21.097,29195,(,0,0,2
1:21.122,29204,t,0,0,1
1:21.219,29239,),0,0,2
1:21.258,29253,(,0,0,0
1:21.319,29275,p,0,0,0
1:21.358,29289,),0,0,0
1:21.381,29297,(,0,0,1
1:21.417,29310,N,0,0,0
1:21.531,29351,),0,0,1
1:21.575,29367,(,0,0,2
1:21.628,29386,t,0,0,0
1:21.772,29438,),0,0,2
1:22.156,29576,(,0,0,0
1:22.192,29589,p,0,0,0
1:22.222,29600,),0,0,0
1:22.350,29646,(,0,0,1
1:22.394,29662,N,0,0,0
1:22.442,29679,),0,0,1
1:22.517,29706,(,0,0,2
1:22.531,29711,t,0,0,4
1:22.700,29772,t,0,0,4
1:22.797,29807,),0,0,2
1:22.836,29821,(,0,0,0
1:22.900,29844,p,0,0,0
1:22.956,29864,),0,0,0
1:23.000,29880,(,0,0,1
1:23.044,29896,N,0,0,0
1:23.089,29912,),0,0,1
1:23.186,29947,(,0,0,2
1:23.294,29986,t,0,0,0
1:23.436,30037,),0,0,2
1:23.853,30187,(,0,0,0
1:23.939,30218,p,0,0,0
1:23.989,30236,),0,0,0
1:24.053,30259,(,0,0,1
1:24.128,30286,N,0,0,0
1:24.189,30308,),0,0,1
1:24.261,30334,(,0,0,2
1:24.344,30364,t,0,0,0
1:24.433,30396,),0,0,2
1:24.750,30510,(,0,0,0
1:24.792,30525,p,0,0,0
1:24.825,30537,),0,0,0
1:24.942,30579,(,0,0,1
1:24.989,30596,N,0,0,0
1:25.033,30612,),0,0,1
1:25.164,30659,t,0,0,2
1:25.208,30675,),0,0,2
1:25.358,30729,(,0,0,0
1:25.408,30747,p,0,0,0
1:25.458,30765,),0,0,0
1:25.481,30773,(,0,0,1
1:25.519,30787,N,0,0,0
1:25.622,30824,),0,0,1
1:25.683,30846,(,0,0,2
1:25.758,30873,t,0,0,0
1:25.858,30909,),0,0,2
1:26.178,31024,(,0,0,0
1:26.203,31033,p,0,0,0
1:26.231,31043,),0,0,0
1:26.383,31098,(,0,0,1
1:26.464,31127,N,0,0,0
1:26.514,31145,),0,0,1
1:26.581,31169,(,0,0,2
1:26.606,31178,t,0,0,4
1:26.681,31205,t,0,0,4
1:26.708,31215,),0,0,2
1:26.922,31292,(,0,0,1
1:27.003,31321,N,0,0,0
1:27.100,31356,),0,0,1
1:27.144,31372,(,0,0,2
1:27.228,31402,t,0,0,0
1:27.356,31448,),0,0,2
1:27.619,31543,(,0,0,0
1:27.650,31554,p,0,0,0
1:27.683,31566,),0,0,0
1:27.775,31599,(,0,0,1
1:27.819,31615,N,0,0,0
1:27.861,31630,),0,0,1
1:28.181,31745,(,0,0,0
1:28.214,31757,p,0,0,0
1:28.253,31771,),0,0,0
1:28.275,31779,(,0,0,1
1:28.311,31792,N,0,0,0
1:28.411,31828,),0,0,1
1:28.417,31830,(,0,0,2
1:28.522,31868,t,0,0,0
1:28.661,31918,),0,0,2
1:28.939,32018,(,0,0,0
1:28.978,32032,p,0,0,0
1:29.031,32051,),0,0,0
1:29.106,32078,(,0,0,1
1:29.150,32094,N,0,0,0
1:29.203,32113,),0,0,1
1:29.289,32144,(,0,0,2
1:29.344,32164,t,0,0,1
1:29.481,32213,),0,0,2
1:29.589,32252,(,0,0,1
1:29.681,32285,N,0,0,0
1:29.769,32317,),0,0,1
1:29.803,32329,(,0,0,2
1:29.886,32359,t,0,0,0
1:30.033,32412,),0,0,2
1:30.339,32522,(,0,0,0
1:30.369,32533,p,0,0,0
1:30.400,32544,),0,0,0
1:30.508,32583,(,0,0,1
1:30.550,32598,N,0,0,0
1:30.594,32614,),0,0,1
1:30.869,32713,(,0,0,0
1:30.917,32730,p,0,0,0
1:30.964,32747,),0,0,0
1:30.989,32756,(,0,0,1
1:31.025,32769,N,0,0,0
1:31.131,32807,),0,0,1
1:31.153,32815,(,0,0,2
1:31.250,32850,t,0,0,0
1:31.392,32901,),0,0,2
1:31.703,33013,(,0,0,0
1:31.739,33026,p,0,0,0
1:31.769,33037,),0,0,0
1:31.892,33081,(,0,0,1
1:31.942,33099,N,0,0,0
1:31.994,33118,),0,0,1
1:32.194,33190,(,0,0,2
1:32.300,33228,t,0,0,0
1:32.339,33242,),0,0,2
1:32.472,33290,(,0,0,0
1:32.536,33313,p,0,0,0
1:32.597,33335,),0,0,0
1:32.639,33350,(,0,0,1
1:32.683,33366,N,0,0,0
1:32.728,33382,),0,0,1
1:32.817,33414,(,0,0,2
1:32.969,33469,t,0,0,0
1:33.047,33497,),0,0,2
1:33.194,33550,(,0,0,0
1:33.242,33567,p,0,0,0
1:33.272,33578,),0,0,0
1:33.394,33622,(,0,0,1
1:33.436,33637,N,0,0,0
1:33.483,33654,),0,0,1
1:33.597,33695,(,0,0,2
1:33.706,33734,t,0,0,0
1:33.814,33773,),0,0,2
1:33.947,33821,(,0,0,0
1:34.022,33848,p,0,0,0
1:34.086,33871,),0,0,0
1:34.139,33890,(,0,0,1
1:34.189,33908,N,0,0,0
1:34.242,33927,),0,0,1
1:34.358,33969,(,0,0,2
1:34.464,34007,t,0,0,0
1:34.619,34063,),0,0,2
1:34.661,34078,(,0,0,0
1:34.708,34095,p,0,0,0
1:34.739,34106,),0,0,0
1:34.842,34143,(,0,0,1
1:34.883,34158,N,0,0,0
1:34.928,34174,),0,0,1
1:35.022,34208,(,0,0,2
1:35.142,34251,t,0,0,0
1:35.300,34308,),0,0,2
1:35.536,34393,(,0,0,1
1:35.578,34408,N,0,0,0
1:35.617,34422,),0,0,1
1:35.717,34458,(,0,0,2
1:35.817,34494,t,0,0,0
1:35.967,34548,),0,0,2
1:36.042,34575,(,0,0,0
1:36.119,34603,p,0,0,0
1:36.183,34626,),0,0,0
1:36.236,34645,(,0,0,1
1:36.278,34660,N,0,0,0
1:36.325,34677,),0,0,1
1:36.439,34718,(,0,0,2
1:36.542,34755,t,0,0,0
1:36.594,34774,),0,0,2
1:36.775,34839,(,0,0,0
1:36.864,34871,p,0,0,0
1:36.894,34882,),0,0,0
1:37.017,34926,(,0,0,1
1:37.067,34944,N,0,0,0
1:37.119,34963,),0,0,1
1:37.242,35007,(,0,0,2
1:37.372,35054,t,0,0,0
1:37.469,35089,),0,0,2
1:37.622,35144,(,0,0,0
1:37.672,35162,p,0,0,0
1:37.706,35174,),0,0,0
1:37.822,35216,(,0,0,1
1:37.869,35233,N,0,0,0
1:37.914,35249,),0,0,1
1:38.031,35291,(,0,0,2
1:38.158,35337,t,0,0,0
1:38.233,35364,),0,0,2
1:38.436,35437,(,0,0,0
1:38.494,35458,p,0,0,0
1:38.533,35472,),0,0,0
1:38.653,35515,(,0,0,1
1:38.697,35531,N,0,0,0
1:38.742,35547,),0,0,1
1:38.853,35587,(,0,0,2
1:38.956,35624,t,0,0,0
1:39.117,35682,),0,0,2
1:39.467,35808,(,0,0,0
1:39.497,35819,p,0,0,0
1:39.531,35831,),0,0,0
1:39.633,35868,(,0,0,1
1:39.675,35883,N,0,0,0
1:39.722,35900,),0,0,1
1:39.858,35949,(,0,0,2
1:39.958,35985,t,0,0,0
1:40.003,36001,),0,0,2
1:40.133,36048,(,0,0,1
1:40.239,36086,N,0,0,0
1:40.331,36119,),0,0,1
1:40.383,36138,(,0,0,2
1:40.458,36165,t,0,0,0
1:40.583,36210,),0,0,2
1:40.994,36358,(,0,0,0
1:41.039,36374,p,0,0,0
1:41.086,36391,),0,0,0
1:41.192,36429,(,0,0,1
1:41.236,36445,N,0,0,0
1:41.283,36462,),0,0,1
1:41.408,36507,t,0,0,2
1:41.511,36544,),0,0,2
1:41.550,36558,(,0,0,0
1:41.639,36590,p,0,0,0
1:41.692,36609,),0,0,0
1:41.711,36616,(,0,0,1
1:41.744,36628,N,0,0,0
1:41.844,36664,),0,0,1
1:41.911,36688,(,0,0,2
1:41.969,36709,t,0,0,0
1:42.083,36750,),0,0,2
1:42.547,36917,(,0,0,0
1:42.617,36942,p,0,0,0
1:42.681,36965,),0,0,0
1:42.714,36977,(,0,0,1
1:42.761,36994,N,0,0,0
1:42.825,37017,),0,0,1
1:42.861,37030,(,0,0,2
1:42.942,37059,t,0,0,1
1:43.050,37098,),0,0,2
1:43.186,37147,(,0,0,1
1:43.286,37183,N,0,0,0
1:43.406,37226,),0,0,1
1:43.461,37246,(,0,0,2
1:43.500,37260,t,0,0,0
1:43.642,37311,),0,0,2
1:44.100,37476,(,0,0,0
1:44.131,37487,p,0,0,0
1:44.169,37501,),0,0,0
1:44.269,37537,(,0,0,1
1:44.322,37556,N,0,0,0
1:44.375,37575,),0,0,1
1:44.558,37641,(,0,0,2
1:44.586,37651,t,0,0,4
1:44.683,37686,t,0,0,4
1:44.744,37708,),0,0,2
1:44.828,37738,(,0,0,1
1:44.969,37789,N,0,0,0
1:45.025,37809,),0,0,1
1:45.058,37821,(,0,0,2
1:45.211,37876,t,0,0,0
1:45.347,37925,),0,0,2
1:45.678,38044,(,0,0,0
1:45.719,38059,p,0,0,0
1:45.761,38074,),0,0,0
1:45.861,38110,(,0,0,1
1:45.906,38126,N,0,0,0
1:45.956,38144,),0,0,1
1:46.111,38200,t,0,0,2
1:46.214,38237,),0,0,2
1:46.339,38282,(,0,0,1
1:46.439,38318,N,0,0,0
1:46.536,38353,),0,0,1
1:46.558,38361,(,0,0,2
1:46.658,38397,t,0,0,0
1:46.789,38444,),0,0,2
1:47.106,38558,(,0,0,0
1:47.139,38570,p,0,0,0
1:47.169,38581,),0,0,0
1:47.275,38619,(,0,0,1
1:47.319,38635,N,0,0,0
1:47.367,38652,),0,0,1
1:47.531,38711,t,0,0,2
1:47.622,38744,),0,0,2
1:47.658,38757,(,0,0,0
1:47.717,38778,p,0,0,0
1:47.747,38789,),0,0,0
1:47.767,38796,(,0,0,1
1:47.803,38809,N,0,0,0
1:47.894,38842,),0,0,1
1:47.922,38852,(,0,0,2
1:48.006,38882,t,0,0,0
1:48.144,38932,),0,0,2
1:48.492,39057,(,0,0,0
1:48.525,39069,p,0,0,0
1:48.558,39081,),0,0,0
1:48.650,39114,(,0,0,1
1:48.692,39129,N,0,0,0
1:48.744,39148,),0,0,1
1:48.922,39212,t,0,0,2
1:49.014,39245,),0,0,2
1:49.039,39254,(,0,0,0
1:49.111,39280,p,0,0,0
1:49.158,39297,),0,0,0
1:49.181,39305,(,0,0,1
1:49.217,39318,N,0,0,0
1:49.317,39354,),0,0,1
1:49.319,39355,t,0,0,2
1:49.439,39398,),0,0,2
1:49.636,39469,(,0,0,1
1:49.675,39483,N,0,0,0
1:49.747,39509,),0,0,1
1:49.803,39529,(,0,0,2
1:49.969,39589,t,0,0,0
1:50.086,39631,),0,0,2
1:50.406,39746,(,0,0,1
1:50.544,39796,N,0,0,0
1:50.586,39811,),0,0,1
1:50.672,39842,(,0,0,2
1:50.739,39866,t,0,0,1
1:50.897,39923,),0,0,2
1:51.461,40126,(,0,0,0
1:51.489,40136,p,0,0,0
1:51.525,40149,),0,0,0
1:51.619,40183,(,0,0,1
1:51.667,40200,N,0,0,0
1:51.714,40217,),0,0,1
1:51.811,40252,t,0,0,2
1:51.942,40299,),0,0,2
1:51.964,40307,(,0,0,0
1:52.050,40338,p,0,0,0
1:52.103,40357,),0,0,0
1:52.122,40364,(,0,0,1
1:52.156,40376,N,0,0,0
1:52.250,40410,),0,0,1
1:52.281,40421,(,0,0,2
1:52.367,40452,t,0,0,0
1:52.503,40501,),0,0,2
1:52.775,40599,(,0,0,0
1:52.806,40610,p,0,0,0
1:52.836,40621,),0,0,0
1:52.956,40664,(,0,0,1
1:53.022,40688,N,0,0,0
1:53.075,40707,),0,0,1
1:53.278,40780,),0,0,2
1:53.286,40783,t,0,0,0
1:53.292,40785,(,0,0,2
1:53.372,40814,(,0,0,0
1:53.436,40837,p,0,0,0
1:53.519,40867,),0,0,0
1:53.542,40875,(,0,0,1
1:53.578,40888,N,0,0,0
1:53.689,40928,),0,0,1
1:53.722,40940,(,0,0,2
1:53.797,40967,t,0,0,0
1:53.911,41008,),0,0,2
1:54.139,41090,(,0,0,0
1:54.178,41104,p,0,0,0
1:54.250,41130,),0,0,0
1:54.294,41146,(,0,0,1
1:54.344,41164,N,0,0,0
1:54.478,41212,),0,0,1
1:54.525,41229,(,0,0,2
1:54.558,41241,t,0,0,1
1:54.669,41281,),0,0,2
1:54.683,41286,(,0,0,0
1:54.747,41309,p,0,0,0
1:54.817,41334,),0,0,0
1:54.836,41341,(,0,0,1
1:54.869,41353,N,0,0,0
1:54.967,41388,),0,0,1
1:55.028,41410,(,0,0,2
1:55.072,41426,t,0,0,0
1:55.206,41474,),0,0,2
1:55.722,41660,(,0,0,0
1:55.747,41669,p,0,0,0
1:55.767,41676,),0,0,0
1:55.819,41695,(,0,0,1
1:55.922,41732,N,0,0,0
1:55.983,41754,),0,0,1
1:56.150,41814,(,0,0,2
1:56.194,41830,t,0,0,1
1:56.244,41848,),0,0,2
1:56.294,41866,(,0,0,0
1:56.342,41883,p,0,0,0
1:56.372,41894,),0,0,0
1:56.408,41907,(,0,0,1
1:56.464,41927,N,0,0,0
1:56.569,41965,),0,0,1
1:56.600,41976,(,0,0,2
1:56.686,42007,t,0,0,0
1:56.822,42056,),0,0,2
1:57.219,42199,(,0,0,0
1:57.247,42209,p,0,0,0
1:57.275,42219,),0,0,0
1:57.386,42259,(,0,0,1
1:57.433,42276,N,0,0,0
1:57.497,42299,),0,0,1
1:57.628,42346,(,0,0,2
1:57.664,42359,t,0,0,4
1:57.764,42395,t,0,0,4
1:57.836,42421,),0,0,2
1:57.936,42457,(,0,0,0
1:57.975,42471,p,0,0,0
1:58.003,42481,),0,0,0
1:58.125,42525,(,0,0,1
1:58.172,42542,N,0,0,0
1:58.222,42560,),0,0,1
1:58.350,42606,(,0,0,2
1:58.458,42645,t,0,0,0
1:58.511,42664,),0,0,2
1:58.647,42713,(,0,0,1
1:58.747,42749,N,0,0,0
1:58.872,42794,),0,0,1
1:58.903,42805,(,0,0,2
1:58.936,42817,t,0,0,0
1:59.081,42869,),0,0,2
1:59.275,42939,(,0,0,0
1:59.361,42970,p,0,0,0
1:59.450,43002,),0,0,0
1:59.464,43007,(,0,0,1
1:59.533,43032,N,0,0,0
1:59.586,43051,),0,0,1
1:59.739,43106,(,0,0,2
1:59.758,43113,t,0,0,1
1:59.817,43134,),0,0,2
1:59.928,43174,(,0,0,1
2:00.031,43211,N,0,0,0
2:00.119,43243,),0,0,1
2:00.158,43257,(,0,0,2
2:00.228,43282,t,0,0,0
2:00.369,43333,),0,0,2
2:00.519,43387,(,0,0,0
2:00.553,43399,p,0,0,0
2:00.672,43442,),0,0,0
2:00.817,43494,(,0,0,1
2:00.875,43515,N,0,0,0
2:00.919,43531,),0,0,1
2:00.997,43559,(,0,0,2
2:01.014,43565,t,0,0,1
2:01.178,43624,),0,0,2
2:01.275,43659,(,0,0,0
2:01.314,43673,p,0,0,0
2:01.378,43696,),0,0,0
2:01.408,43707,(,0,0,1
2:01.447,43721,N,0,0,0
2:01.561,43762,),0,0,1
2:01.606,43778,(,0,0,2
2:01.706,43814,t,0,0,0
2:01.822,43856,),0,0,2
2:02.167,43980,(,0,0,0
2:02.192,43989,p,0,0,0
2:02.219,43999,),0,0,0
2:02.314,44033,(,0,0,1
2:02.397,44063,N,0,0,0
2:02.467,44088,),0,0,1
2:02.561,44122,(,0,0,2
2:02.606,44138,t,0,0,5
2:02.711,44176,t,0,0,5
2:02.742,44187,),0,0,2
2:02.844,44224,(,0,0,1
2:02.944,44260,N,0,0,0
2:03.033,44292,),0,0,1
2:03.075,44307,(,0,0,2
2:03.158,44337,t,0,0,0
2:03.306,44390,),0,0,2
2:03.600,44496,(,0,0,0
2:03.658,44517,p,0,0,0
2:03.731,44543,),0,0,0
2:03.736,44545,(,0,0,1
2:03.800,44568,N,0,0,0
2:03.844,44584,),0,0,1
2:04.072,44666,(,0,0,2
2:04.089,44672,t,0,0,0
2:04.106,44678,),0,0,2
2:04.219,44719,(,0,0,1
2:04.319,44755,N,0,0,0
2:04.381,44777,),0,0,1
2:04.403,44785,(,0,0,2
2:04.536,44833,t,0,0,0
2:04.669,44881,),0,0,2
2:04.967,44988,(,0,0,0
2:04.989,44996,p,0,0,0
2:05.008,45003,),0,0,0
2:05.089,45032,(,0,0,1
2:05.167,45060,N,0,0,0
2:05.250,45090,),0,0,1
2:05.431,45155,(,0,0,0
2:05.500,45180,p,0,0,0
2:05.572,45206,),0,0,0
2:05.603,45217,(,0,0,1
2:05.675,45243,N,0,0,0
2:05.772,45278,),0,0,1
2:05.811,45292,(,0,0,2
2:05.875,45315,t,0,0,0
2:06.025,45369,),0,0,2
2:06.358,45489,(,0,0,0
2:06.394,45502,p,0,0,0
2:06.428,45514,),0,0,0
2:06.503,45541,(,0,0,1
2:06.581,45569,N,0,0,0
2:06.639,45590,),0,0,1
2:06.767,45636,(,0,0,2
2:06.792,45645,t,0,0,1
2:06.892,45681,),0,0,2
2:06.969,45709,(,0,0,0
2:06.997,45719,p,0,0,0
2:07.050,45738,),0,0,0
2:07.069,45745,(,0,0,1
2:07.106,45758,N,0,0,0
2:07.256,45812,),0,0,1
2:07.275,45819,(,0,0,2
2:07.317,45834,t,0,0,5
2:07.536,45913,t,0,0,5
2:07.556,45920,),0,0,2
2:07.786,46003,(,0,0,0
2:07.853,46027,p,0,0,0
2:07.925,46053,),0,0,0
2:07.942,46059,(,0,0,1
2:08.011,46084,N,0,0,0
2:08.086,46111,),0,0,1
2:08.122,46124,(,0,0,2
2:08.178,46144,t,0,0,0
2:08.208,46155,),0,0,2
2:08.286,46183,(,0,0,0
2:08.344,46204,p,0,0,0
2:08.375,46215,),0,0,0
2:08.439,46238,(,0,0,1
2:08.525,46269,N,0,0,0
2:08.631,46307,),0,0,1
2:08.675,46323,(,0,0,2
2:08.758,46353,t,0,0,0
2:08.903,46405,),0,0,2
2:09.228,46522,(,0,0,0
2:09.297,46547,p,0,0,0
2:09.361,46570,),0,0,0
2:09.414,46589,(,0,0,1
2:09.464,46607,N,0,0,0
2:09.522,46628,),0,0,1
2:09.656,46676,(,0,0,2
2:09.700,46692,t,0,0,5
2:09.731,46703,t,0,0,5
2:09.817,46734,),0,0,2
2:10.019,46807,(,0,0,1
2:10.097,46835,N,0,0,0
2:10.144,46852,),0,0,1
2:10.292,46905,(,0,0,2
2:10.350,46926,t,0,0,0
2:10.478,46972,),0,0,2
2:10.589,47012,(,0,0,1
2:10.694,47050,N,0,0,0
2:10.797,47087,),0,0,1
2:10.858,47109,(,0,0,2
2:10.914,47129,t,0,0,0
2:11.067,47184,),0,0,2
2:11.336,47281,(,0,0,0
2:11.364,47291,p,0,0,0
2:11.392,47301,),0,0,0
2:11.489,47336,(,0,0,1
2:11.533,47352,N,0,0,0
2:11.581,47369,),0,0,1
2:11.656,47396,(,0,0,2
2:11.725,47421,t,0,0,0
2:11.739,47426,),0,0,2
2:11.967,47508,(,0,0,1
2:12.064,47543,N,0,0,0
2:12.158,47577,),0,0,1
2:12.183,47586,(,0,0,2
2:12.283,47622,t,0,0,0
2:12.414,47669,),0,0,2
2:12.708,47775,(,0,0,0
2:12.758,47793,p,0,0,0
2:12.792,47805,),0,0,0
2:12.861,47830,(,0,0,1
2:12.933,47856,N,0,0,0
2:12.978,47872,),0,0,1
2:13.075,47907,(,0,0,2
2:13.208,47955,t,0,0,0
2:13.258,47973,),0,0,2
2:13.303,47989,(,0,0,0
2:13.333,48000,p,0,0,0
2:13.389,48020,),0,0,0
2:13.411,48028,(,0,0,1
2:13.453,48043,N,0,0,0
2:13.556,48080,),0,0,1
2:13.614,48101,(,0,0,2
2:13.678,48124,t,0,0,0
2:13.847,48185,),0,0,2
2:14.142,48291,(,0,0,0
2:14.169,48301,p,0,0,0
2:14.194,48310,),0,0,0
2:14.319,48355,(,0,0,1
2:14.369,48373,N,0,0,0
2:14.433,48396,),0,0,1
2:14.647,48473,(,0,0,2
2:14.761,48514,t,0,0,0
2:14.847,48545,),0,0,2
2:15.108,48639,(,0,0,0
2:15.144,48652,p,0,0,0
2:15.197,48671,),0,0,0
2:15.261,48694,(,0,0,1
2:15.303,48709,N,0,0,0
2:15.350,48726,),0,0,1
2:15.406,48746,(,0,0,2
2:15.431,48755,t,0,0,4
2:15.578,48808,t,0,0,4
2:15.736,48865,),0,0,2
2:15.942,48939,(,0,0,0
2:15.975,48951,p,0,0,0
2:16.011,48964,),0,0,0
2:16.111,49000,(,0,0,1
2:16.153,49015,N,0,0,0
2:16.197,49031,),0,0,1
2:16.328,49078,(,0,0,2
2:16.453,49123,t,0,0,0
2:16.567,49164,),0,0,2
2:16.614,49181,(,0,0,0
2:16.686,49207,p,0,0,0
2:16.711,49216,),0,0,0
2:16.800,49248,(,0,0,1
2:16.869,49273,N,0,0,0
2:16.917,49290,),0,0,1
2:17.042,49335,(,0,0,2
2:17.136,49369,t,0,0,0
2:17.236,49405,),0,0,2
2:17.567,49524,(,0,0,1
2:17.644,49552,N,0,0,0
2:17.694,49570,),0,0,1
2:17.775,49599,(,0,0,2
2:17.936,49657,t,0,0,0
2:18.114,49721,),0,0,2
2:18.186,49747,(,0,0,0
2:18.269,49777,p,0,0,0
2:18.347,49805,),0,0,0
2:18.386,49819,(,0,0,1
2:18.425,49833,N,0,0,0
2:18.472,49850,),0,0,1
2:18.600,49896,(,0,0,2
2:18.706,49934,t,0,0,0
2:18.781,49961,),0,0,2
2:18.969,50029,(,0,0,0
2:19.008,50043,p,0,0,0
2:19.039,50054,),0,0,0
2:19.156,50096,(,0,0,1
2:19.200,50112,N,0,0,0
2:19.247,50129,),0,0,1
2:19.378,50176,(,0,0,2
2:19.478,50212,t,0,0,0
2:19.522,50228,),0,0,2
2:19.806,50330,(,0,0,0
2:19.831,50339,p,0,0,0
2:19.861,50350,),0,0,0
2:19.908,50367,(,0,0,1
2:19.956,50384,N,0,0,0
2:20.044,50416,),0,0,1
2:20.117,50442,(,0,0,2
2:20.236,50485,t,0,0,0
2:20.306,50510,),0,0,2
2:20.456,50564,(,0,0,0
2:20.544,50596,p,0,0,0
2:20.619,50623,),0,0,0
2:20.672,50642,(,0,0,1
2:20.719,50659,N,0,0,0
2:20.769,50677,),0,0,1
2:20.925,50733,(,0,0,2
2:21.025,50769,t,0,0,0
2:21.078,50788,),0,0,2
2:21.217,50838,(,0,0,0
2:21.286,50863,p,0,0,0
2:21.317,50874,),0,0,0
2:21.419,50911,(,0,0,1
2:21.461,50926,N,0,0,0
2:21.511,50944,),0,0,1
2:21.592,50973,(,0,0,2
2:21.747,51029,t,0,0,0
2:21.808,51051,),0,0,2
2:21.978,51112,(,0,0,0
2:22.014,51125,p,0,0,0
2:22.053,51139,),0,0,0
2:22.169,51181,(,0,0,1
2:22.211,51196,N,0,0,0
2:22.258,51213,),0,0,1
2:22.375,51255,(,0,0,2
2:22.497,51299,t,0,0,0
2:22.603,51337,),0,0,2
2:22.694,51370,(,0,0,0
2:22.742,51387,p,0,0,0
2:22.769,51397,),0,0,0
2:22.900,51444,(,0,0,1
2:22.947,51461,N,0,0,0
2:22.994,51478,),0,0,1
2:23.106,51518,(,0,0,2
2:23.125,51525,t,0,0,4
2:23.214,51557,t,0,0,4
2:23.308,51591,),0,0,2
2:23.483,51654,(,0,0,0
2:23.506,51662,p,0,0,0
2:23.528,51670,),0,0,0
2:23.586,51691,(,0,0,1
2:23.631,51707,N,0,0,0
2:23.764,51755,),0,0,1
2:23.836,51781,(,0,0,2
2:23.872,51794,t,0,0,0
2:23.897,51803,),0,0,2
2:24.106,51878,(,0,0,0
2:24.139,51890,p,0,0,0
2:24.164,51899,),0,0,0
2:24.272,51938,(,0,0,1
2:24.317,51954,N,0,0,0
2:24.358,51969,),0,0,1
2:24.492,52017,(,0,0,2
2:24.547,52037,t,0,0,5
2:24.642,52071,t,0,0,5
2:24.664,52079,),0,0,2
2:24.722,52100,(,0,0,0
2:24.744,52108,p,0,0,0
2:24.792,52125,),0,0,0
2:24.922,52172,(,0,0,1
2:24.997,52199,N,0,0,0
2:25.042,52215,),0,0,1
2:25.225,52281,(,0,0,2
2:25.333,52320,t,0,0,0
2:25.436,52357,),0,0,2
2:25.519,52387,(,0,0,0
2:25.556,52400,p,0,0,0
2:25.583,52410,),0,0,0
2:25.689,52448,(,0,0,1
2:25.792,52485,N,0,0,0
2:25.872,52514,),0,0,1
2:25.964,52547,(,0,0,2
2:26.056,52580,t,0,0,0
2:26.194,52630,),0,0,2
2:26.375,52695,(,0,0,0
2:26.447,52721,p,0,0,0
2:26.517,52746,),0,0,0
2:26.572,52766,(,0,0,1
2:26.619,52783,N,0,0,0
2:26.672,52802,),0,0,1
2:26.811,52852,(,0,0,2
2:26.917,52890,t,0,0,0
2:26.997,52919,),0,0,2
2:27.147,52973,(,0,0,0
2:27.197,52991,p,0,0,0
2:27.242,53007,),0,0,0
2:27.344,53044,(,0,0,1
2:27.397,53063,N,0,0,0
2:27.444,53080,),0,0,1
2:27.539,53114,(,0,0,2
2:27.622,53144,t,0,0,0
2:27.736,53185,),0,0,2
2:27.825,53217,(,0,0,0
2:27.856,53228,p,0,0,0
2:27.903,53245,),0,0,0
2:28.008,53283,(,0,0,1
2:28.056,53300,N,0,0,0
2:28.100,53316,),0,0,1
2:28.214,53357,(,0,0,2
2:28.331,53399,t,0,0,0
2:28.486,53455,),0,0,2
2:28.500,53460,(,0,0,0
2:28.569,53485,p,0,0,0
2:28.619,53503,),0,0,0
2:28.653,53515,(,0,0,1
2:28.722,53540,N,0,0,0
2:28.825,53577,),0,0,1
2:28.931,53615,(,0,0,2
2:28.972,53630,t,0,0,0
2:29.136,53689,),0,0,2
2:29.244,53728,(,0,0,0
2:29.269,53737,p,0,0,0
2:29.308,53751,),0,0,0
2:29.317,53754,(,0,0,1
2:29.411,53788,N,0,0,0
2:29.456,53804,),0,0,1
2:29.517,53826,(,0,0,2
2:29.539,53834,t,0,0,4
2:29.692,53889,t,0,0,4
2:29.789,53924,),0,0,2
2:29.847,53945,(,0,0,0
2:29.925,53973,p,0,0,0
2:30.022,54008,),0,0,0
2:30.036,54013,(,0,0,1
2:30.100,54036,N,0,0,0
2:30.189,54068,),0,0,1
2:30.261,54094,(,0,0,2
2:30.325,54117,t,0,0,5
2:30.467,54168,t,0,0,5
2:30.492,54177,),0,0,2
2:30.561,54202,(,0,0,0
2:30.603,54217,p,0,0,0
2:30.639,54230,),0,0,0
2:30.731,54263,(,0,0,1
2:30.800,54288,N,0,0,0
2:30.897,54323,),0,0,1
2:31.028,54370,(,0,0,2
2:31.103,54397,t,0,0,0
2:31.161,54418,),0,0,2
2:31.311,54472,(,0,0,0
2:31.364,54491,p,0,0,0
2:31.386,54499,),0,0,0
2:31.469,54529,(,0,0,1
2:31.542,54555,N,0,0,0
2:31.594,54574,),0,0,1
2:31.731,54623,(,0,0,2
2:31.864,54671,t,0,0,0
2:31.972,54710,),0,0,2
2:32.036,54733,(,0,0,0
2:32.092,54753,p,0,0,0
2:32.122,54764,),0,0,0
2:32.236,54805,(,0,0,1
2:32.286,54823,N,0,0,0
2:32.333,54840,),0,0,1
2:32.464,54887,(,0,0,2
2:32.544,54916,t,0,0,0
2:32.647,54953,),0,0,2
2:32.736,54985,(,0,0,0
2:32.769,54997,p,0,0,0
2:32.797,55007,),0,0,0
2:32.922,55052,(,0,0,1
2:32.972,55070,N,0,0,0
2:33.014,55085,),0,0,1
2:33.122,55124,(,0,0,2
2:33.269,55177,t,0,0,0
2:33.317,55194,),0,0,2
2:33.422,55232,(,0,0,0
2:33.444,55240,p,0,0,0
2:33.483,55254,),0,0,0
2:33.644,55312,(,0,0,1
2:33.689,55328,N,0,0,0
2:33.742,55347,),0,0,1
2:33.853,55387,(,0,0,2
2:34.019,55447,t,0,0,0
2:34.114,55481,),0,0,2
2:34.219,55519,(,0,0,0
2:34.244,55528,p,0,0,0
2:34.267,55536,),0,0,0
2:34.397,55583,(,0,0,1
2:34.456,55604,N,0,0,0
2:34.500,55620,),0,0,1
2:34.617,55662,(,0,0,2
2:34.736,55705,t,0,0,5
2:34.819,55735,t,0,0,5
2:34.883,55758,),0,0,2
2:34.897,55763,(,0,0,0
2:34.919,55771,p,0,0,0
2:34.942,55779,),0,0,0
2:35.081,55829,(,0,0,1
2:35.125,55845,N,0,0,0
2:35.178,55864,),0,0,1
2:35.303,55909,(,0,0,2
2:35.333,55920,t,0,0,0
2:35.353,55927,),0,0,2
2:35.564,56003,(,0,0,0
2:35.628,56026,p,0,0,0
2:35.692,56049,),0,0,0
2:35.736,56065,(,0,0,1
2:35.778,56080,N,0,0,0
2:35.819,56095,),0,0,1
2:35.950,56142,(,0,0,2
2:36.019,56167,t,0,0,0
2:36.089,56192,),0,0,2
2:36.244,56248,(,0,0,0
2:36.306,56270,p,0,0,0
2:36.336,56281,),0,0,0
2:36.375,56295,(,0,0,1
2:36.447,56321,N,0,0,0
2:36.489,56336,),0,0,1
2:36.625,56385,(,0,0,2
2:36.731,56423,t,0,0,0
2:36.772,56438,),0,0,2
2:36.894,56482,(,0,0,0
2:36.975,56511,p,0,0,0
2:37.044,56536,),0,0,0
2:37.094,56554,(,0,0,1
2:37.142,56571,N,0,0,0
2:37.194,56590,),0,0,1
2:37.331,56639,(,0,0,2
2:37.414,56669,t,0,0,0
2:37.525,56709,),0,0,2
2:37.578,56728,(,0,0,0
2:37.603,56737,p,0,0,0
2:37.628,56746,),0,0,0
2:37.786,56803,(,0,0,1
2:37.831,56819,N,0,0,0
2:37.883,56838,),0,0,1
2:38.075,56907,(,0,0,2
2:38.125,56925,t,0,0,0
2:38.217,56958,),0,0,2
2:38.381,57017,(,0,0,0
2:38.411,57028,p,0,0,0
2:38.492,57057,),0,0,0
2:38.550,57078,(,0,0,1
2:38.600,57096,N,0,0,0
2:38.653,57115,),0,0,1
2:38.881,57197,(,0,0,2
2:38.914,57209,t,0,0,0
2:38.944,57220,),0,0,2
2:39.136,57289,(,0,0,0
2:39.167,57300,p,0,0,0
2:39.200,57312,),0,0,0
2:39.328,57358,(,0,0,1
2:39.372,57374,N,0,0,0
2:39.425,57393,),0,0,1
2:39.586,57451,(,0,0,2
2:39.636,57469,t,0,0,0
2:39.717,57498,),0,0,2
2:39.831,57539,(,0,0,0
2:39.867,57552,p,0,0,0
2:39.903,57565,),0,0,0
2:40.006,57602,(,0,0,1
2:40.050,57618,N,0,0,0
2:40.094,57634,),0,0,1
2:40.278,57700,(,0,0,2
2:40.328,57718,t,0,0,0
2:40.469,57769,),0,0,2
2:40.672,57842,(,0,0,1
2:40.714,57857,N,0,0,0
2:40.758,57873,),0,0,1
2:40.858,57909,(,0,0,2
2:40.961,57946,t,0,0,0
2:41.014,57965,),0,0,2
2:41.144,58012,(,0,0,0
2:41.236,58045,p,0,0,0
2:41.289,58064,),0,0,0
2:41.331,58079,(,0,0,1
2:41.375,58095,N,0,0,0
2:41.428,58114,),0,0,1
2:41.519,58147,(,0,0,2
2:41.650,58194,t,0,0,0
2:41.733,58224,),0,0,2
2:42.017,58326,(,0,0,1
2:42.086,58351,N,0,0,0
2:42.131,58367,),0,0,1
2:42.275,58419,(,0,0,2
2:42.394,58462,t,0,0,0
2:42.469,58489,),0,0,2
2:42.581,58529,(,0,0,0
2:42.614,58541,p,0,0,0
2:42.642,58551,),0,0,0
2:42.722,58580,(,0,0,1
2:42.797,58607,N,0,0,0
2:42.842,58623,),0,0,1
2:42.975,58671,(,0,0,2
2:43.075,58707,t,0,0,0
2:43.167,58740,),0,0,2
2:43.317,58794,(,0,0,0
2:43.353,58807,p,0,0,0
2:43.389,58820,),0,0,0
2:43.503,58861,(,0,0,1
2:43.550,58878,N,0,0,0
2:43.617,58902,),0,0,1
2:43.719,58939,(,0,0,2
2:43.789,58964,t,0,0,0
2:43.850,58986,),0,0,2
2:44.022,59048,(,0,0,0
2:44.061,59062,p,0,0,0
2:44.100,59076,),0,0,0
2:44.153,59095,(,0,0,1
2:44.278,59140,N,0,0,0
2:44.322,59156,),0,0,1
2:44.436,59197,(,0,0,2
2:44.583,59250,t,0,0,0
2:44.669,59281,),0,0,2
2:44.714,59297,(,0,0,0
2:44.733,59304,p,0,0,0
2:44.794,59326,),0,0,0
2:44.903,59365,(,0,0,1
2:44.994,59398,N,0,0,0
2:45.047,59417,),0,0,1
2:45.136,59449,(,0,0,2
2:45.256,59492,t,0,0,0
2:45.333,59520,),0,0,2
2:45.575,59607,(,0,0,0
2:45.603,59617,p,0,0,0
2:45.631,59627,),0,0,0
2:45.642,59631,(,0,0,1
2:45.689,59648,N,0,0,0
2:45.839,59702,),0,0,1
2:46.125,59805,(,0,0,2
2:46.156,59816,t,0,0,0
2:46.186,59827,),0,0,2
2:46.200,59832,(,0,0,0
2:46.225,59841,p,0,0,0
2:46.247,59849,),0,0,0
2:46.311,59872,(,0,0,1
2:46.403,59905,N,0,0,0
2:46.525,59949,),0,0,1
2:46.586,59971,(,0,0,2
2:46.617,59982,t,0,0,5
2:46.861,60070,t,0,0,5
2:46.914,60089,),0,0,2
2:46.953,60103,(,0,0,0
2:46.961,60106,p,0,0,0
2:46.981,60113,),0,0,0
2:47.022,60128,(,0,0,1
2:47.117,60162,N,0,0,0
2:47.156,60176,),0,0,1
2:47.311,60232,(,0,0,2
2:47.347,60245,t,0,0,5
2:47.519,60307,t,0,0,5
2:47.547,60317,),0,0,2
2:47.567,60324,(,0,0,0
2:47.608,60339,p,0,0,0
2:47.633,60348,),0,0,0
2:47.708,60375,(,0,0,1
2:47.783,60402,N,0,0,0
2:47.828,60418,),0,0,1
2:47.981,60473,(,0,0,2
2:48.042,60495,t,0,0,0
2:48.122,60524,),0,0,2
2:48.150,60534,(,0,0,0
2:48.222,60560,p,0,0,0
2:48.283,60582,),0,0,0
2:48.417,60630,(,0,0,1
2:48.461,60646,N,0,0,0
2:48.508,60663,),0,0,1
2:48.667,60720,(,0,0,2
2:48.728,60742,t,0,0,0
2:48.811,60772,),0,0,2
2:48.889,60800,(,0,0,0
2:48.928,60814,p,0,0,0
2:48.958,60825,),0,0,0
2:49.075,60867,(,0,0,1
2:49.117,60882,N,0,0,0
2:49.164,60899,),0,0,1
2:49.297,60947,(,0,0,2
2:49.397,60983,t,0,0,0
2:49.458,61005,),0,0,2
2:49.608,61059,(,0,0,0
2:49.636,61069,p,0,0,0
2:49.658,61077,),0,0,0
2:49.783,61122,(,0,0,1
2:49.853,61147,N,0,0,0
2:49.903,61165,),0,0,1
2:50.033,61212,(,0,0,2
2:50.169,61261,t,0,0,0
2:50.214,61277,),0,0,2
2:50.392,61341,(,0,0,0
2:50.481,61373,p,0,0,0
2:50.539,61394,),0,0,0
2:50.608,61419,(,0,0,1
2:50.656,61436,N,0,0,0
2:50.706,61454,),0,0,1
2:50.783,61482,(,0,0,2
2:50.942,61539,t,0,0,0
2:51.014,61565,),0,0,2
2:51.172,61622,(,0,0,0
2:51.200,61632,p,0,0,0
2:51.231,61643,),0,0,0
2:51.358,61689,(,0,0,1
2:51.403,61705,N,0,0,0
2:51.458,61725,),0,0,1
2:51.589,61772,(,0,0,2
2:51.675,61803,t,0,0,0
2:51.750,61830,),0,0,2
2:51.869,61873,(,0,0,0
2:51.897,61883,p,0,0,0
2:51.925,61893,),0,0,0
2:52.000,61920,(,0,0,1
2:52.072,61946,N,0,0,0
2:52.114,61961,),0,0,1
2:52.247,62009,(,0,0,2
2:52.339,62042,t,0,0,0
2:52.481,62093,),0,0,2
2:52.522,62108,(,0,0,0
2:52.556,62120,p,0,0,0
2:52.581,62129,),0,0,0
2:52.683,62166,(,0,0,1
2:52.725,62181,N,0,0,0
2:52.767,62196,),0,0,1
2:52.897,62243,(,0,0,2
2:52.983,62274,t,0,0,0
2:53.094,62314,),0,0,2
2:53.181,62345,(,0,0,0
2:53.217,62358,p,0,0,0
2:53.247,62369,),0,0,0
2:53.328,62398,(,0,0,1
2:53.400,62424,N,0,0,0
2:53.447,62441,),0,0,1
2:53.553,62479,(,0,0,2
2:53.633,62508,t,0,0,0
2:53.703,62533,),0,0,2
2:53.775,62559,(,0,0,0
2:53.806,62570,p,0,0,0
2:53.853,62587,),0,0,0
2:54.033,62652,(,0,0,1
2:54.086,62671,N,0,0,0
2:54.133,62688,),0,0,1
2:54.703,62893,(,0,0,1
2:54.778,62920,N,0,0,0
2:54.825,62937,),0,0,1
2:54.989,62996,(,0,0,2
2:55.064,63023,t,0,0,0
2:55.153,63055,),0,0,2
2:55.283,63102,(,0,0,0
2:55.353,63127,p,0,0,0
2:55.431,63155,),0,0,0
2:55.453,63163,(,0,0,1
2:55.500,63180,N,0,0,0
2:55.544,63196,),0,0,1
2:55.653,63235,(,0,0,2
2:55.775,63279,t,0,0,0
2:55.897,63323,),0,0,2
2:55.983,63354,(,0,0,0
2:56.025,63369,p,0,0,0
2:56.058,63381,),0,0,0
2:56.186,63427,(,0,0,1
2:56.233,63444,N,0,0,0
2:56.283,63462,),0,0,1
2:56.347,63485,(,0,0,2
2:56.375,63495,t,0,0,1
2:56.506,63542,),0,0,2
2:56.681,63605,(,0,0,1
2:56.756,63632,N,0,0,0
2:56.864,63671,),0,0,1
2:56.897,63683,(,0,0,2
2:57.006,63722,t,0,0,0
2:57.119,63763,),0,0,2
2:57.267,63816,(,0,0,1
2:57.386,63859,N,0,0,0
2:57.422,63872,),0,0,1
2:57.497,63899,(,0,0,2
2:57.578,63928,t,0,0,1
2:57.736,63985,),0,0,2
2:58.119,64123,(,0,0,0
2:58.153,64135,p,0,0,0
2:58.194,64150,),0,0,0
2:58.311,64192,(,0,0,1
2:58.356,64208,N,0,0,0
2:58.403,64225,),0,0,1
2:58.522,64268,t,0,0,2
2:58.647,64313,),0,0,2
2:58.664,64319,(,0,0,0
2:58.769,64357,p,0,0,0
2:58.817,64374,),0,0,0
2:58.839,64382,(,0,0,1
2:58.872,64394,N,0,0,0
2:58.967,64428,),0,0,1
2:59.025,64449,(,0,0,2
2:59.092,64473,t,0,0,0
2:59.239,64526,),0,0,2
2:59.394,64582,(,0,0,1
2:59.517,64626,N,0,0,0
2:59.556,64640,),0,0,1
2:59.611,64660,(,0,0,2
2:59.689,64688,t,0,0,1
2:59.908,64767,),0,0,2
3:00.156,64856,(,0,0,0
3:00.197,64871,p,0,0,0
3:00.233,64884,),0,0,0
3:00.336,64921,(,0,0,1
3:00.378,64936,N,0,0,0
3:00.422,64952,),0,0,1
3:00.528,64990,t,0,0,2
3:00.642,65031,),0,0,2
3:00.664,65039,(,0,0,0
3:00.756,65072,p,0,0,0
3:00.814,65093,),0,0,0
3:00.836,65101,(,0,0,1
3:00.869,65113,N,0,0,0
3:00.975,65151,),0,0,1
3:01.011,65164,(,0,0,2
3:01.114,65201,t,0,0,0
3:01.261,65254,),0,0,2
3:01.569,65365,(,0,0,0
3:01.597,65375,p,0,0,0
3:01.622,65384,),0,0,0
3:01.733,65424,(,0,0,1
3:01.781,65441,N,0,0,0
3:01.831,65459,),0,0,1
3:01.919,65491,(,0,0,2
3:01.939,65498,t,0,0,1
3:02.125,65565,),0,0,2
3:02.142,65571,(,0,0,0
3:02.217,65598,p,0,0,0
3:02.264,65615,),0,0,0
3:02.286,65623,(,0,0,1
3:02.325,65637,N,0,0,0
3:02.428,65674,),0,0,1
3:02.472,65690,(,0,0,2
3:02.561,65722,t,0,0,0
3:02.725,65781,),0,0,2
3:03.053,65899,(,0,0,0
3:03.103,65917,p,0,0,0
3:03.136,65929,),0,0,0
3:03.222,65960,(,0,0,1
3:03.300,65988,N,0,0,0
3:03.350,66006,),0,0,1
3:03.511,66064,t,0,0,2
3:03.614,66101,),0,0,2
3:03.656,66116,(,0,0,0
3:03.719,66139,p,0,0,0
3:03.753,66151,),0,0,0
3:03.775,66159,(,0,0,1
3:03.811,66172,N,0,0,0
3:03.900,66204,),0,0,1
3:03.953,66223,(,0,0,2
3:04.031,66251,t,0,0,0
3:04.167,66300,),0,0,2
3:04.458,66405,(,0,0,0
3:04.492,66417,p,0,0,0
3:04.519,66427,),0,0,0
3:04.617,66462,(,0,0,1
3:04.661,66478,N,0,0,0
3:04.708,66495,),0,0,1
3:04.986,66595,(,0,0,0
3:05.031,66611,p,0,0,0
3:05.075,66627,),0,0,0
3:05.094,66634,(,0,0,1
3:05.128,66646,N,0,0,0
3:05.211,66676,),0,0,1
3:05.258,66693,(,0,0,2
3:05.336,66721,t,0,0,0
3:05.472,66770,),0,0,2
3:05.750,66870,(,0,0,0
3:05.789,66884,p,0,0,0
3:05.819,66895,),0,0,0
3:05.933,66936,(,0,0,1
3:05.981,66953,N,0,0,0
3:06.028,66970,),0,0,1
3:06.344,67084,(,0,0,0
3:06.433,67116,p,0,0,0
3:06.481,67133,),0,0,0
3:06.503,67141,(,0,0,1
3:06.539,67154,N,0,0,0
3:06.631,67187,),0,0,1
3:06.636,67189,(,0,0,2
3:06.756,67232,t,0,0,0
3:06.914,67289,),0,0,2
3:07.156,67376,(,0,0,0
3:07.247,67409,p,0,0,0
3:07.319,67435,),0,0,0
3:07.372,67454,(,0,0,1
3:07.419,67471,N,0,0,0
3:07.469,67489,),0,0,1
3:07.664,67559,t,0,0,2
3:07.756,67592,),0,0,2
3:07.850,67626,(,0,0,0
3:07.875,67635,p,0,0,0
3:07.906,67646,),0,0,0
3:07.925,67653,(,0,0,1
3:07.961,67666,N,0,0,0
3:08.050,67698,),0,0,1
3:08.089,67712,(,0,0,2
3:08.189,67748,t,0,0,0
3:08.333,67800,),0,0,2
3:08.642,67911,(,0,0,0
3:08.694,67930,p,0,0,0
3:08.725,67941,),0,0,0
3:08.836,67981,(,0,0,1
3:08.881,67997,N,0,0,0
3:08.928,68014,),0,0,1
3:09.106,68078,t,0,0,2
3:09.211,68116,),0,0,2
3:09.231,68123,(,0,0,0
3:09.319,68155,p,0,0,0
3:09.358,68169,),0,0,0
3:09.381,68177,(,0,0,1
3:09.417,68190,N,0,0,0
3:09.519,68227,),0,0,1
3:09.556,68240,(,0,0,2
3:09.650,68274,t,0,0,0
3:09.778,68320,),0,0,2
3:10.094,68434,(,0,0,0
3:10.161,68458,p,0,0,0
3:10.225,68481,),0,0,0
3:10.269,68497,(,0,0,1
3:10.314,68513,N,0,0,0
3:10.367,68532,),0,0,1
3:10.536,68593,t,0,0,2
3:10.633,68628,),0,0,2
3:10.664,68639,(,0,0,0
3:10.744,68668,p,0,0,0
3:10.775,68679,),0,0,0
3:10.797,68687,(,0,0,1
3:10.833,68700,N,0,0,0
3:10.928,68734,),0,0,1
3:10.964,68747,(,0,0,2
3:11.064,68783,t,0,0,0
3:11.214,68837,),0,0,2
3:11.553,68959,(,0,0,0
3:11.622,68984,p,0,0,0
3:11.681,69005,),0,0,0
3:11.725,69021,(,0,0,1
3:11.764,69035,N,0,0,0
3:11.808,69051,),0,0,1
3:11.950,69102,t,0,0,2
3:12.056,69140,),0,0,2
3:12.119,69163,(,0,0,0
3:12.161,69178,p,0,0,0
3:12.194,69190,),0,0,0
3:12.217,69198,(,0,0,1
3:12.253,69211,N,0,0,0
3:12.350,69246,),0,0,1
3:12.417,69270,(,0,0,2
3:12.481,69293,t,0,0,0
3:12.644,69352,),0,0,2
3:12.983,69474,(,0,0,0
3:13.014,69485,p,0,0,0
3:13.033,69492,),0,0,0
3:13.094,69514,(,0,0,1
3:13.142,69531,N,0,0,0
3:13.192,69549,),0,0,1
3:13.328,69598,(,0,0,2
3:13.353,69607,t,0,0,4
3:13.442,69639,t,0,0,4
3:13.539,69674,),0,0,2
3:13.628,69706,(,0,0,1
3:13.761,69754,N,0,0,0
3:13.819,69775,),0,0,1
3:13.853,69787,(,0,0,2
3:14.017,69846,t,0,0,0
3:14.153,69895,),0,0,2
3:14.444,70000,(,0,0,0
3:14.489,70016,p,0,0,0
3:14.522,70028,),0,0,0
3:14.667,70080,(,0,0,1
3:14.719,70099,N,0,0,0
3:14.781,70121,),0,0,1
3:14.947,70181,),0,0,2
3:14.981,70193,t,0,0,0
3:15.011,70204,(,0,0,2
3:15.197,70271,(,0,0,1
3:15.294,70306,N,0,0,0
3:15.392,70341,),0,0,1
3:15.425,70353,(,0,0,2
3:15.511,70384,t,0,0,0
3:15.661,70438,),0,0,2
3:15.939,70538,(,0,0,0
3:15.986,70555,p,0,0,0
3:16.028,70570,),0,0,0
3:16.117,70602,(,0,0,1
3:16.158,70617,N,0,0,0
3:16.203,70633,),0,0,1
3:16.333,70680,t,0,0,2
3:16.444,70720,),0,0,2
3:16.497,70739,(,0,0,0
3:16.553,70759,p,0,0,0
3:16.594,70774,),0,0,0
3:16.622,70784,(,0,0,1
3:16.658,70797,N,0,0,0
3:16.781,70841,),0,0,1
3:16.808,70851,(,0,0,2
3:16.858,70869,t,0,0,0
3:16.986,70915,),0,0,2
3:17.158,70977,(,0,0,0
3:17.183,70986,p,0,0,0
3:17.206,70994,),0,0,0
3:17.358,71049,(,0,0,1
3:17.461,71086,N,0,0,0
3:17.508,71103,),0,0,1
3:17.806,71210,(,0,0,0
3:17.850,71226,p,0,0,0
3:17.889,71240,),0,0,0
3:17.911,71248,(,0,0,1
3:17.944,71260,N,0,0,0
3:18.036,71293,),0,0,1
3:18.058,71301,(,0,0,2
3:18.156,71336,t,0,0,0
3:18.308,71391,),0,0,2
3:18.608,71499,(,0,0,0
3:18.667,71520,p,0,0,0
3:18.719,71539,),0,0,0
3:18.778,71560,(,0,0,1
3:18.822,71576,N,0,0,0
3:18.869,71593,),0,0,1
3:19.114,71681,(,0,0,2
3:19.194,71710,t,0,0,0
3:19.269,71737,),0,0,2
3:19.400,71784,(,0,0,1
3:19.497,71819,N,0,0,0
3:19.558,71841,),0,0,1
3:19.597,71855,(,0,0,2
3:19.747,71909,t,0,0,0
3:19.903,71965,),0,0,2
3:20.064,72023,(,0,0,0
3:20.139,72050,p,0,0,0
3:20.211,72076,),0,0,0
3:20.256,72092,(,0,0,1
3:20.303,72109,N,0,0,0
3:20.356,72128,),0,0,1
3:20.444,72160,(,0,0,2
3:20.475,72171,t,0,0,0
3:20.489,72176,),0,0,2
3:20.542,72195,(,0,0,0
3:20.650,72234,p,0,0,0
3:20.706,72254,),0,0,0
3:20.786,72283,(,0,0,1
3:20.886,72319,N,0,0,0
3:20.989,72356,),0,0,1
3:21.028,72370,(,0,0,2
3:21.103,72397,t,0,0,0
3:21.219,72439,),0,0,2
3:21.564,72563,(,0,0,0
3:21.583,72570,p,0,0,0
3:21.614,72581,),0,0,0
3:21.653,72595,(,0,0,1
3:21.700,72612,N,0,0,0
3:21.744,72628,),0,0,1
3:21.914,72689,t,0,0,2
3:21.997,72719,),0,0,2
3:22.033,72732,(,0,0,0
3:22.103,72757,p,0,0,0
3:22.169,72781,),0,0,0
3:22.194,72790,(,0,0,1
3:22.233,72804,N,0,0,0
3:22.339,72842,),0,0,1
3:22.367,72852,(,0,0,2
3:22.461,72886,t,0,0,0
3:22.614,72941,),0,0,2
3:22.897,73043,(,0,0,0
3:22.950,73062,p,0,0,0
3:22.997,73079,),0,0,0
3:23.053,73099,(,0,0,1
3:23.125,73125,N,0,0,0
3:23.172,73142,),0,0,1
3:23.322,73196,(,0,0,2
3:23.342,73203,t,0,0,4
3:23.411,73228,t,0,0,4
3:23.447,73241,),0,0,2
3:23.481,73253,(,0,0,0
3:23.525,73269,p,0,0,0
3:23.572,73286,),0,0,0
3:23.597,73295,(,0,0,1
3:23.633,73308,N,0,0,0
3:23.739,73346,),0,0,1
3:23.767,73356,(,0,0,2
3:23.850,73386,t,0,0,0
3:24.022,73448,),0,0,2
3:24.253,73531,(,0,0,0
3:24.275,73539,p,0,0,0
3:24.306,73550,),0,0,0
3:24.400,73584,(,0,0,1
3:24.442,73599,N,0,0,0
3:24.489,73616,),0,0,1
3:24.722,73700,(,0,0,0
3:24.750,73710,p,0,0,0
3:24.833,73740,),0,0,0
3:24.853,73747,(,0,0,1
3:24.961,73786,N,0,0,0
3:25.053,73819,),0,0,1
3:25.086,73831,(,0,0,2
3:25.167,73860,t,0,0,0
3:25.286,73903,),0,0,2
3:25.675,74043,(,0,0,0
3:25.708,74055,p,0,0,0
3:25.739,74066,),0,0,0
3:25.767,74076,(,0,0,1
3:25.814,74093,N,0,0,0
3:25.875,74115,),0,0,1
3:26.003,74161,(,0,0,2
3:26.031,74171,t,0,0,1
3:26.067,74184,),0,0,2
3:26.175,74223,(,0,0,0
3:26.225,74241,p,0,0,0
3:26.281,74261,),0,0,0
3:26.300,74268,(,0,0,1
3:26.336,74281,N,0,0,0
3:26.439,74318,),0,0,1
3:26.508,74343,(,0,0,2
3:26.575,74367,t,0,0,5
3:26.711,74416,t,0,0,5
3:26.750,74430,),0,0,2
3:26.950,74502,(,0,0,0
3:26.978,74512,p,0,0,0
3:27.017,74526,),0,0,0
3:27.161,74578,(,0,0,1
3:27.211,74596,N,0,0,0
3:27.261,74614,),0,0,1
3:27.447,74681,(,0,0,2
3:27.550,74718,t,0,0,0
3:27.650,74754,),0,0,2
3:27.661,74758,(,0,0,0
3:27.728,74782,p,0,0,0
3:27.756,74792,),0,0,0
3:27.878,74836,(,0,0,1
3:27.925,74853,N,0,0,0
3:27.969,74869,),0,0,1
3:28.081,74909,(,0,0,2
3:28.189,74948,t,0,0,5
3:28.331,74999,t,0,0,5
3:28.364,75011,),0,0,2
3:28.497,75059,(,0,0,1
3:28.567,75084,N,0,0,0
3:28.608,75099,),0,0,1
3:28.931,75215,(,0,0,2
3:28.956,75224,t,0,0,0
3:28.992,75237,),0,0,2
3:29.117,75282,(,0,0,1
3:29.217,75318,N,0,0,0
3:29.358,75369,),0,0,1
3:29.369,75373,(,0,0,2
3:29.464,75407,t,0,0,0
3:29.547,75437,),0,0,2
3:29.644,75472,(,0,0,0
3:29.675,75483,p,0,0,0
3:29.697,75491,),0,0,0
3:29.722,75500,(,0,0,1
3:29.769,75517,N,0,0,0
3:29.814,75533,),0,0,1
3:29.961,75586,(,0,0,2
3:30.025,75609,t,0,0,0
3:30.067,75624,),0,0,2
3:30.161,75658,(,0,0,0
3:30.194,75670,p,0,0,0
3:30.253,75691,),0,0,0
3:30.436,75757,(,0,0,1
3:30.511,75784,N,0,0,0
3:30.556,75800,),0,0,1
3:30.744,75868,(,0,0,2
3:30.817,75894,t,0,0,0
3:30.897,75923,),0,0,2
3:31.050,75978,(,0,0,0
3:31.103,75997,p,0,0,0
3:31.131,76007,),0,0,0
3:31.186,76027,(,0,0,1
3:31.272,76058,N,0,0,0
3:31.319,76075,),0,0,1
3:31.425,76113,(,0,0,2
3:31.597,76175,t,0,0,0
3:31.692,76209,),0,0,2
3:31.906,76286,(,0,0,0
3:31.931,76295,p,0,0,0
3:31.956,76304,),0,0,0
3:31.986,76315,(,0,0,1
3:32.033,76332,N,0,0,0
3:32.131,76367,),0,0,1
3:32.181,76385,(,0,0,2
3:32.272,76418,t,0,0,0
3:32.367,76452,),0,0,2
3:32.481,76493,(,0,0,0
3:32.506,76502,p,0,0,0
3:32.533,76512,),0,0,0
3:32.681,76565,(,0,0,1
3:32.728,76582,N,0,0,0
3:32.772,76598,),0,0,1
3:32.967,76668,(,0,0,2
3:33.017,76686,t,0,0,0
3:33.094,76714,),0,0,2
3:33.128,76726,(,0,0,0
3:33.178,76744,p,0,0,0
3:33.247,76769,),0,0,0
3:33.403,76825,(,0,0,1
3:33.444,76840,N,0,0,0
3:33.486,76855,),0,0,1
3:33.619,76903,(,0,0,2
3:33.717,76938,t,0,0,0
3:33.797,76967,),0,0,2
3:33.947,77021,(,0,0,0
3:34.019,77047,p,0,0,0
3:34.072,77066,),0,0,0
3:34.125,77085,(,0,0,1
3:34.164,77099,N,0,0,0
3:34.208,77115,),0,0,1
3:34.308,77151,(,0,0,2
3:34.481,77213,t,0,0,0
3:34.569,77245,),0,0,2
3:34.697,77291,(,0,0,0
3:34.725,77301,p,0,0,0
3:34.756,77312,),0,0,0
3:34.764,77315,(,0,0,1
3:34.850,77346,N,0,0,0
3:34.950,77382,),0,0,1
3:35.031,77411,(,0,0,2
3:35.114,77441,t,0,0,0
3:35.183,77466,),0,0,2
3:35.222,77480,(,0,0,0
3:35.289,77504,p,0,0,0
3:35.367,77532,),0,0,0
3:35.383,77538,(,0,0,1
3:35.453,77563,N,0,0,0
3:35.553,77599,),0,0,1
3:35.644,77632,(,0,0,2
3:35.744,77668,t,0,0,0
3:35.850,77706,),0,0,2
3:36.225,77841,(,0,0,1
3:36.264,77855,N,0,0,0
3:36.308,77871,),0,0,1
3:36.447,77921,(,0,0,2
3:36.517,77946,t,0,0,0
3:36.569,77965,),0,0,2
3:36.681,78005,(,0,0,1
3:36.783,78042,N,0,0,0
3:36.842,78063,),0,0,1
3:36.867,78072,(,0,0,2
3:37.011,78124,t,0,0,0
3:37.131,78167,),0,0,2
3:37.483,78294,(,0,0,0
3:37.517,78306,p,0,0,0
3:37.547,78317,),0,0,0
3:37.625,78345,(,0,0,1
3:37.706,78374,N,0,0,0
3:37.747,78389,),0,0,1
3:37.928,78454,(,0,0,2
3:37.969,78469,t,0,0,0
3:38.011,78484,),0,0,2
3:38.100,78516,(,0,0,0
3:38.136,78529,p,0,0,0
3:38.172,78542,),0,0,0
3:38.197,78551,(,0,0,1
3:38.233,78564,N,0,0,0
3:38.339,78602,),0,0,1
3:38.383,78618,(,0,0,2
3:38.481,78653,t,0,0,0
3:38.642,78711,),0,0,2
3:39.086,78871,(,0,0,0
3:39.114,78881,p,0,0,0
3:39.147,78893,),0,0,0
3:39.253,78931,(,0,0,1
3:39.297,78947,N,0,0,0
3:39.344,78964,),0,0,1
3:39.514,79025,(,0,0,2
3:39.542,79035,t,0,0,1
3:39.600,79056,),0,0,2
3:39.681,79085,(,0,0,0
3:39.717,79098,p,0,0,0
3:39.753,79111,),0,0,0
3:39.775,79119,(,0,0,1
3:39.811,79132,N,0,0,0
3:39.925,79173,),0,0,1
3:39.931,79175,(,0,0,2
3:40.025,79209,t,0,0,5
3:40.225,79281,t,0,0,5
3:40.247,79289,),0,0,2
3:40.392,79341,(,0,0,0
3:40.408,79347,p,0,0,0
3:40.433,79356,),0,0,0
3:40.611,79420,(,0,0,1
3:40.694,79450,N,0,0,0
3:40.736,79465,),0,0,1
3:40.869,79513,(,0,0,2
3:40.936,79537,t,0,0,1
3:41.003,79561,),0,0,2
3:41.161,79618,(,0,0,1
3:41.267,79656,N,0,0,0
3:41.422,79712,),0,0,1
3:41.456,79724,t,0,0,3
3:41.578,79768,),0,0,2
3:41.822,79856,(,0,0,0
3:41.853,79867,p,0,0,0
3:41.950,79902,),0,0,0
3:41.969,79909,(,0,0,1
3:42.042,79935,N,0,0,0
3:42.086,79951,),0,0,1
3:42.286,80023,(,0,0,2
3:42.386,80059,t,0,0,0
3:42.453,80083,),0,0,2
3:42.475,80091,(,0,0,0
3:42.519,80107,p,0,0,0
3:42.550,80118,),0,0,0
3:42.656,80156,(,0,0,1
3:42.706,80174,N,0,0,0
3:42.753,80191,),0,0,1
3:42.842,80223,(,0,0,2
3:42.958,80265,t,0,0,0
3:43.100,80316,),0,0,2
3:43.244,80368,(,0,0,0
3:43.272,80378,p,0,0,0
3:43.306,80390,),0,0,0
3:43.350,80406,(,0,0,1
3:43.439,80438,N,0,0,0
3:43.489,80456,),0,0,1
3:43.611,80500,(,0,0,2
3:43.719,80539,t,0,0,0
3:43.833,80580,),0,0,2
3:43.883,80598,(,0,0,0
3:43.908,80607,p,0,0,0
3:43.928,80614,),0,0,0
3:44.086,80671,(,0,0,1
3:44.128,80686,N,0,0,0
3:44.253,80731,),0,0,1
3:44.269,80737,(,0,0,2
3:44.350,80766,t,0,0,5
3:44.547,80837,t,0,0,5
3:44.572,80846,),0,0,2
3:44.672,80882,(,0,0,0
3:44.708,80895,p,0,0,0
3:44.742,80907,),0,0,0
3:44.869,80953,(,0,0,1
3:44.919,80971,N,0,0,0
3:45.047,81017,),0,0,1
3:45.111,81040,(,0,0,2
3:45.181,81065,t,0,0,0
3:45.189,81068,),0,0,2
3:45.283,81102,(,0,0,0
3:45.303,81109,p,0,0,0
3:45.333,81120,),0,0,0
3:45.347,81125,(,0,0,1
3:45.467,81168,N,0,0,0
3:45.561,81202,),0,0,1
3:45.617,81222,(,0,0,2
3:45.686,81247,t,0,0,0
3:45.772,81278,),0,0,2
3:46.025,81369,(,0,0,0
3:46.050,81378,p,0,0,0
3:46.078,81388,),0,0,0
3:46.231,81443,(,0,0,1
3:46.272,81458,N,0,0,0
3:46.322,81476,),0,0,1
3:46.511,81544,(,0,0,2
3:46.539,81554,t,0,0,5
3:46.572,81566,t,0,0,5
3:46.614,81581,),0,0,2
3:46.625,81585,(,0,0,0
3:46.650,81594,p,0,0,0
3:46.753,81631,),0,0,0
3:46.772,81638,(,0,0,1
3:46.811,81652,N,0,0,0
3:46.883,81678,),0,0,1
3:46.942,81699,(,0,0,2
3:47.019,81727,t,0,0,5
3:47.164,81779,t,0,0,5
3:47.194,81790,),0,0,2
3:47.400,81864,(,0,0,0
3:47.431,81875,p,0,0,0
3:47.486,81895,),0,0,0
3:47.597,81935,(,0,0,1
3:47.672,81962,N,0,0,0
3:47.719,81979,),0,0,1
3:47.761,81994,t,0,0,2
3:47.836,82021,),0,0,2
3:48.036,82093,(,0,0,0
3:48.069,82105,p,0,0,0
3:48.117,82122,),0,0,0
3:48.139,82130,(,0,0,1
3:48.175,82143,N,0,0,0
3:48.275,82179,),0,0,1
3:48.319,82195,(,0,0,2
3:48.386,82219,t,0,0,0
3:48.558,82281,),0,0,2
3:48.797,82367,(,0,0,0
3:48.847,82385,p,0,0,0
3:48.892,82401,),0,0,0
3:48.922,82412,(,0,0,1
3:48.964,82427,N,0,0,0
3:49.017,82446,),0,0,1
3:49.178,82504,(,0,0,2
3:49.292,82545,t,0,0,0
3:49.361,82570,),0,0,2
3:49.817,82734,(,0,0,1
3:49.897,82763,N,0,0,0
3:49.964,82787,),0,0,1
3:50.031,82811,(,0,0,2
3:50.156,82856,t,0,0,0
3:50.267,82896,),0,0,2
3:50.828,83098,(,0,0,0
3:50.847,83105,p,0,0,0
3:50.917,83130,),0,0,0
3:51.008,83163,(,0,0,1
3:51.056,83180,N,0,0,0
3:51.136,83209,),0,0,1
3:51.183,83226,(,0,0,2
3:51.206,83234,t,0,0,4
3:51.356,83288,t,0,0,4
3:51.378,83296,),0,0,2
3:51.389,83300,(,0,0,0
3:51.417,83310,p,0,0,0
3:51.458,83325,),0,0,0
3:51.503,83341,(,0,0,1
3:51.581,83369,N,0,0,0
3:51.633,83388,),0,0,1
3:51.725,83421,(,0,0,2
3:51.761,83434,t,0,0,0
3:51.925,83493,),0,0,2
3:52.228,83602,(,0,0,0
3:52.253,83611,p,0,0,0
3:52.303,83629,),0,0,0
3:52.356,83648,(,0,0,1
3:52.408,83667,N,0,0,0
3:52.483,83694,),0,0,1
3:52.539,83714,(,0,0,2
3:52.561,83722,t,0,0,4
3:52.731,83783,t,0,0,4
3:52.786,83803,),0,0,2
3:52.856,83828,(,0,0,0
3:52.889,83840,p,0,0,0
3:52.914,83849,),0,0,0
3:53.025,83889,(,0,0,1
3:53.078,83908,N,0,0,0
3:53.211,83956,),0,0,1
3:53.225,83961,(,0,0,2
3:53.331,83999,t,0,0,0
3:53.397,84023,),0,0,2
3:53.464,84047,(,0,0,0
3:53.489,84056,p,0,0,0
3:53.514,84065,),0,0,0
3:53.642,84111,(,0,0,1
3:53.681,84125,N,0,0,0
3:53.739,84146,),0,0,1
3:53.897,84203,(,0,0,2
3:53.939,84218,t,0,0,0
3:53.992,84237,),0,0,2
3:54.167,84300,(,0,0,0
3:54.181,84305,p,0,0,0
3:54.225,84321,),0,0,0
3:54.261,84334,(,0,0,1
3:54.308,84351,N,0,0,0
3:54.356,84368,),0,0,1
3:54.475,84411,(,0,0,2
3:54.514,84425,t,0,0,5
3:54.700,84492,t,0,0,5
3:54.758,84513,),0,0,2
3:54.831,84539,(,0,0,0
3:54.850,84546,p,0,0,0
3:54.878,84556,),0,0,0
3:54.892,84561,(,0,0,1
3:54.986,84595,N,0,0,0
3:55.111,84640,),0,0,1
3:55.325,84717,(,0,0,2
3:55.378,84736,t,0,0,1
3:55.400,84744,),0,0,2
3:55.464,84767,(,0,0,0
3:55.489,84776,p,0,0,0
3:55.508,84783,),0,0,0
3:55.639,84830,(,0,0,1
3:55.678,84844,N,0,0,0
3:55.739,84866,),0,0,1
3:55.792,84885,(,0,0,2
3:55.822,84896,t,0,0,4
3:55.961,84946,t,0,0,4
3:56.056,84980,),0,0,2
3:56.333,85080,(,0,0,1
3:56.383,85098,N,0,0,0
3:56.433,85116,),0,0,1
3:56.619,85183,(,0,0,2
3:56.656,85196,t,0,0,0
3:56.692,85209,),0,0,2
3:56.742,85227,(,0,0,0
3:56.775,85239,p,0,0,0
3:56.814,85253,),0,0,0
3:56.944,85300,(,0,0,1
3:56.997,85319,N,0,0,0
3:57.131,85367,),0,0,1
3:57.200,85392,(,0,0,2
3:57.231,85403,t,0,0,5
3:57.261,85414,t,0,0,5
3:57.292,85425,),0,0,2
3:57.428,85474,(,0,0,0
3:57.467,85488,p,0,0,0
3:57.531,85511,),0,0,0
3:57.589,85532,(,0,0,1
3:57.631,85547,N,0,0,0
3:57.675,85563,),0,0,1
3:57.775,85599,(,0,0,2
3:57.894,85642,t,0,0,0
3:57.992,85677,),0,0,2
3:58.075,85707,(,0,0,0
3:58.158,85737,p,0,0,0
3:58.211,85756,),0,0,0
3:58.231,85763,(,0,0,1
3:58.306,85790,N,0,0,0
3:58.367,85812,),0,0,1
3:58.417,85830,(,0,0,2
3:58.531,85871,t,0,0,0
3:58.608,85899,),0,0,2
3:58.619,85903,(,0,0,0
3:58.628,85906,p,0,0,0
3:58.722,85940,),0,0,0
3:58.794,85966,(,0,0,1
3:58.836,85981,N,0,0,0
3:58.883,85998,),0,0,1
3:59.058,86061,(,0,0,2
3:59.100,86076,t,0,0,0
3:59.200,86112,),0,0,2
3:59.317,86154,(,0,0,0
3:59.344,86164,p,0,0,0
3:59.381,86177,),0,0,0
3:59.483,86214,(,0,0,1
3:59.528,86230,N,0,0,0
3:59.575,86247,),0,0,1
3:59.697,86291,(,0,0,2
3:59.825,86337,t,0,0,0
3:59.903,86365,),0,0,2
4:00.156,86456,(,0,0,1
4:00.203,86473,N,0,0,0
4:00.256,86492,),0,0,1
4:00.367,86532,(,0,0,2
4:00.469,86569,t,0,0,0
4:00.514,86585,),0,0,2
4:00.603,86617,(,0,0,0
4:00.628,86626,p,0,0,0
4:00.658,86637,),0,0,0
4:00.747,86669,(,0,0,1
4:00.814,86693,N,0,0,0
4:00.867,86712,),0,0,1
4:00.958,86745,(,0,0,2
4:01.069,86785,t,0,0,0
4:01.153,86815,),0,0,2
4:01.197,86831,(,0,0,0
4:01.258,86853,p,0,0,0
4:01.328,86878,),0,0,0
4:01.422,86912,(,0,0,1
4:01.464,86927,N,0,0,0
4:01.561,86962,),0,0,1
4:01.658,86997,(,0,0,2
4:01.711,87016,t,0,0,5
4:01.744,87028,t,0,0,5
4:01.764,87035,),0,0,2
4:01.944,87100,(,0,0,0
4:01.989,87116,p,0,0,0
4:02.019,87127,),0,0,0
4:02.036,87133,(,0,0,1
4:02.111,87160,N,0,0,0
4:02.161,87178,),0,0,1
4:02.244,87208,t,0,0,2
4:02.372,87254,),0,0,2
4:02.375,87255,(,0,0,0
4:02.389,87260,p,0,0,0
4:02.492,87297,),0,0,0
4:02.569,87325,(,0,0,1
4:02.608,87339,N,0,0,0
4:02.689,87368,),0,0,1
4:02.781,87401,(,0,0,2
4:02.839,87422,t,0,0,0
4:02.950,87462,),0,0,2
4:03.286,87583,(,0,0,0
4:03.317,87594,p,0,0,0
4:03.358,87609,),0,0,0
4:03.467,87648,(,0,0,1
4:03.514,87665,N,0,0,0
4:03.567,87684,),0,0,1
4:03.614,87701,(,0,0,2
4:03.661,87718,t,0,0,1
4:03.736,87745,),0,0,2
4:03.931,87815,(,0,0,1
4:04.019,87847,N,0,0,0
4:04.144,87892,),0,0,1
4:04.167,87900,(,0,0,2
4:04.236,87925,t,0,0,0
4:04.381,87977,),0,0,2
4:04.619,88063,(,0,0,0
4:04.644,88072,p,0,0,0
4:04.675,88083,),0,0,0
4:04.778,88120,(,0,0,1
4:04.819,88135,N,0,0,0
4:04.869,88153,),0,0,1
4:04.992,88197,(,0,0,2
4:05.006,88202,t,0,0,4
4:05.144,88252,t,0,0,4
4:05.183,88266,),0,0,2
4:05.208,88275,(,0,0,0
4:05.281,88301,p,0,0,0
4:05.347,88325,),0,0,0
4:05.383,88338,(,0,0,1
4:05.433,88356,N,0,0,0
4:05.478,88372,),0,0,1
4:05.578,88408,(,0,0,2
4:05.672,88442,t,0,0,0
4:05.778,88480,),0,0,2
4:05.803,88489,(,0,0,0
4:05.833,88500,p,0,0,0
4:05.861,88510,),0,0,0
4:05.983,88554,(,0,0,1
4:06.031,88571,N,0,0,0
4:06.081,88589,),0,0,1
4:06.242,88647,(,0,0,2
4:06.308,88671,t,0,0,0
4:06.361,88690,),0,0,2
4:06.503,88741,(,0,0,0
4:06.550,88758,p,0,0,0
4:06.586,88771,),0,0,0
4:06.631,88787,(,0,0,1
4:06.669,88801,N,0,0,0
4:06.789,88844,),0,0,1
4:07.039,88934,(,0,0,2
4:07.064,88943,t,0,0,1
4:07.106,88958,),0,0,2
4:07.183,88986,(,0,0,0
4:07.214,88997,p,0,0,0
4:07.253,89011,),0,0,0
4:07.275,89019,(,0,0,1
4:07.325,89037,N,0,0,0
4:07.369,89053,),0,0,1
4:07.475,89091,(,0,0,2
4:07.631,89147,t,0,0,0
4:07.686,89167,),0,0,2
4:07.767,89196,(,0,0,0
4:07.792,89205,p,0,0,0
4:07.819,89215,),0,0,0
4:07.958,89265,(,0,0,1
4:08.011,89284,N,0,0,0
4:08.108,89319,),0,0,1
4:08.203,89353,(,0,0,2
4:08.228,89362,t,0,0,4
4:08.289,89384,t,0,0,4
4:08.314,89393,),0,0,2
4:08.500,89460,(,0,0,0
4:08.525,89469,p,0,0,0
4:08.600,89496,),0,0,0
4:08.647,89513,(,0,0,1
4:08.747,89549,N,0,0,0
4:08.811,89572,),0,0,1
4:08.972,89630,(,0,0,2
4:09.028,89650,t,0,0,0
4:09.094,89674,),0,0,2
4:09.208,89715,(,0,0,0
4:09.233,89724,p,0,0,0
4:09.258,89733,),0,0,0
4:09.322,89756,(,0,0,1
4:09.400,89784,N,0,0,0
4:09.492,89817,),0,0,1
4:09.533,89832,(,0,0,2
4:09.558,89841,t,0,0,1
4:09.667,89880,),0,0,2
4:09.775,89919,(,0,0,0
4:09.797,89927,p,0,0,0
4:09.831,89939,),0,0,0
4:09.969,89989,(,0,0,1
4:10.022,90008,N,0,0,0
4:10.067,90024,),0,0,1
4:10.217,90078,(,0,0,2
4:10.264,90095,t,0,0,0
4:10.306,90110,),0,0,2
4:10.439,90158,(,0,0,0
4:10.458,90165,p,0,0,0
4:10.492,90177,),0,0,0
4:10.589,90212,(,0,0,1
4:10.631,90227,N,0,0,0
4:10.678,90244,),0,0,1
4:10.844,90304,(,0,0,2
4:10.881,90317,t,0,0,0
4:10.925,90333,),0,0,2
4:11.114,90401,(,0,0,0
4:11.158,90417,p,0,0,0
4:11.189,90428,),0,0,0
4:11.208,90435,(,0,0,1
4:11.286,90463,N,0,0,0
4:11.331,90479,),0,0,1
4:11.461,90526,(,0,0,2
4:11.572,90566,t,0,0,0
4:11.681,90605,),0,0,2
4:11.742,90627,(,0,0,0
4:11.800,90648,p,0,0,0
4:11.856,90668,),0,0,0
4:11.906,90686,(,0,0,1
4:11.953,90703,N,0,0,0
4:12.000,90720,),0,0,1
4:12.100,90756,(,0,0,2
4:12.222,90800,t,0,0,0
4:12.314,90833,),0,0,2
4:12.442,90879,(,0,0,0
4:12.467,90888,p,0,0,0
4:12.494,90898,),0,0,0
4:12.558,90921,(,0,0,1
4:12.608,90939,N,0,0,0
4:12.658,90957,),0,0,1
4:12.736,90985,(,0,0,2
4:12.781,91001,t,0,0,4
4:12.908,91047,t,0,0,4
4:12.992,91077,),0,0,2
4:13.006,91082,(,0,0,0
4:13.056,91100,p,0,0,0
4:13.103,91117,),0,0,0
4:13.206,91154,(,0,0,1
4:13.256,91172,N,0,0,0
4:13.306,91190,),0,0,1
4:13.469,91249,(,0,0,2
4:13.517,91266,t,0,0,0
4:13.614,91301,),0,0,2
4:13.792,91365,(,0,0,0
4:13.819,91375,p,0,0,0
4:13.847,91385,),0,0,0
4:13.867,91392,(,0,0,1
4:13.908,91407,N,0,0,0
4:13.958,91425,),0,0,1
4:14.064,91463,(,0,0,2
4:14.178,91504,t,0,0,0
4:14.236,91525,),0,0,2
4:14.561,91642,(,0,0,1
4:14.617,91662,N,0,0,0
4:14.672,91682,),0,0,1
4:14.692,91689,(,0,0,2
4:14.894,91762,t,0,0,0
4:15.014,91805,),0,0,2
4:15.025,91809,(,0,0,0
4:15.075,91827,p,0,0,0
4:15.103,91837,),0,0,0
4:15.192,91869,(,0,0,1
4:15.269,91897,N,0,0,0
4:15.325,91917,),0,0,1
4:15.436,91957,(,0,0,2
4:15.542,91995,t,0,0,0
4:15.678,92044,),0,0,2
4:15.725,92061,(,0,0,0
4:15.753,92071,p,0,0,0
4:15.783,92082,),0,0,0
4:15.878,92116,(,0,0,1
4:15.942,92139,N,0,0,0
4:15.989,92156,),0,0,1
4:16.122,92204,(,0,0,2
4:16.211,92236,t,0,0,5
4:16.331,92279,t,0,0,5
4:16.406,92306,),0,0,2
4:16.547,92357,(,0,0,1
4:16.619,92383,N,0,0,0
4:16.686,92407,),0,0,1
4:16.822,92456,(,0,0,2
4:16.881,92477,t,0,0,0
4:16.922,92492,),0,0,2
4:16.972,92510,(,0,0,0
4:17.006,92522,p,0,0,0
4:17.100,92556,),0,0,0
4:17.108,92559,(,0,0,1
4:17.164,92579,N,0,0,0
4:17.269,92617,),0,0,1
4:17.275,92619,(,0,0,2
4:17.344,92644,t,0,0,0
4:17.514,92705,),0,0,2
4:17.628,92746,(,0,0,0
4:17.650,92754,p,0,0,0
4:17.678,92764,),0,0,0
4:17.786,92803,(,0,0,1
4:17.872,92834,N,0,0,0
4:17.944,92860,),0,0,1
4:18.050,92898,(,0,0,2
4:18.072,92906,t,0,0,1
4:18.117,92922,),0,0,2
4:18.197,92951,(,0,0,0
4:18.242,92967,p,0,0,0
4:18.289,92984,),0,0,0
4:18.364,93011,(,0,0,1
4:18.422,93032,N,0,0,0
4:18.483,93054,),0,0,1
4:18.583,93090,(,0,0,2
4:18.647,93113,t,0,0,0
4:18.708,93135,),0,0,2
4:18.886,93199,(,0,0,0
4:18.956,93224,p,0,0,0
4:19.022,93248,),0,0,0
4:19.083,93270,(,0,0,1
4:19.131,93287,N,0,0,0
4:19.186,93307,),0,0,1
4:19.267,93336,(,0,0,2
4:19.286,93343,t,0,0,4
4:19.439,93398,t,0,0,4
4:19.467,93408,),0,0,2
4:19.531,93431,(,0,0,0
4:19.581,93449,p,0,0,0
4:19.661,93478,),0,0,0
4:19.683,93486,(,0,0,1
4:19.753,93511,N,0,0,0
4:19.833,93540,),0,0,1
4:19.864,93551,(,0,0,2
4:20.008,93603,t,0,0,0
4:20.158,93657,),0,0,2
4:20.406,93746,(,0,0,0
4:20.436,93757,p,0,0,0
4:20.458,93765,),0,0,0
4:20.558,93801,(,0,0,1
4:20.606,93818,N,0,0,0
4:20.669,93841,),0,0,1
4:20.803,93889,(,0,0,2
4:20.908,93927,t,0,0,0
4:21.000,93960,),0,0,2
4:21.150,94014,(,0,0,1
4:21.239,94046,N,0,0,0
4:21.331,94079,),0,0,1
4:21.356,94088,(,0,0,2
4:21.442,94119,t,0,0,0
4:21.550,94158,),0,0,2
4:21.697,94211,(,0,0,0
4:21.722,94220,p,0,0,0
4:21.825,94257,),0,0,0
4:21.856,94268,(,0,0,1
4:21.922,94292,N,0,0,0
4:21.983,94314,),0,0,1
4:22.133,94368,(,0,0,2
4:22.156,94376,t,0,0,4
4:22.231,94403,t,0,0,4
4:22.314,94433,),0,0,2
4:22.386,94459,(,0,0,0
4:22.433,94476,p,0,0,0
4:22.481,94493,),0,0,0
4:22.503,94501,(,0,0,1
4:22.544,94516,N,0,0,0
4:22.603,94537,),0,0,1
4:22.681,94565,(,0,0,2
4:22.817,94614,t,0,0,0
4:22.917,94650,),0,0,2
4:22.967,94668,(,0,0,0
4:23.011,94684,p,0,0,0
4:23.058,94701,),0,0,0
4:23.114,94721,(,0,0,1
4:23.156,94736,N,0,0,0
4:23.206,94754,),0,0,1
4:23.297,94787,(,0,0,2
4:23.400,94824,t,0,0,0
4:23.469,94849,),0,0,2
4:23.567,94884,(,0,0,0
4:23.597,94895,p,0,0,0
4:23.628,94906,),0,0,0
4:23.744,94948,(,0,0,1
4:23.792,94965,N,0,0,0
4:23.844,94984,),0,0,1
4:23.958,95025,(,0,0,2
4:24.064,95063,t,0,0,0
4:24.161,95098,),0,0,2
4:24.208,95115,(,0,0,0
4:24.239,95126,p,0,0,0
4:24.264,95135,),0,0,0
4:24.381,95177,(,0,0,1
4:24.431,95195,N,0,0,0
4:24.483,95214,),0,0,1
4:24.578,95248,(,0,0,2
4:24.708,95295,t,0,0,0
4:24.761,95314,),0,0,2
4:24.917,95370,(,0,0,1
4:25.014,95405,N,0,0,0
4:25.114,95441,),0,0,1
4:25.147,95453,(,0,0,2
4:25.228,95482,t,0,0,0
4:25.344,95524,),0,0,2
4:25.517,95586,(,0,0,0
4:25.544,95596,p,0,0,0
4:25.606,95618,),0,0,0
4:25.717,95658,(,0,0,1
4:25.767,95676,N,0,0,0
4:25.819,95695,),0,0,1
4:25.883,95718,(,0,0,2
4:25.919,95731,t,0,0,4
4:26.131,95807,t,0,0,4
4:26.150,95814,),0,0,2
4:26.208,95835,(,0,0,0
4:26.233,95844,p,0,0,0
4:26.286,95863,),0,0,0
4:26.375,95895,(,0,0,1
4:26.422,95912,N,0,0,0
4:26.472,95930,),0,0,1
4:26.550,95958,(,0,0,2
4:26.661,95998,t,0,0,0
4:26.764,96035,),0,0,2
4:26.822,96056,(,0,0,0
4:26.844,96064,p,0,0,0
4:26.869,96073,),0,0,0
4:27.039,96134,(,0,0,1
4:27.089,96152,N,0,0,0
4:27.144,96172,),0,0,1
4:27.225,96201,(,0,0,2
4:27.286,96223,t,0,0,0
4:27.297,96227,),0,0,2
4:27.389,96260,(,0,0,0
4:27.489,96296,p,0,0,0
4:27.525,96309,),0,0,0
4:27.569,96325,(,0,0,1
4:27.647,96353,N,0,0,0
4:27.719,96379,),0,0,1
4:27.786,96403,(,0,0,2
4:27.883,96438,t,0,0,5
4:27.922,96452,t,0,0,5
4:27.947,96461,),0,0,2
4:28.203,96553,(,0,0,0
4:28.244,96568,p,0,0,0
4:28.281,96581,),0,0,0
4:28.394,96622,(,0,0,1
4:28.436,96637,N,0,0,0
4:28.486,96655,),0,0,1
4:28.600,96696,t,0,0,2
4:28.692,96729,),0,0,2
4:28.761,96754,(,0,0,0
4:28.814,96773,p,0,0,0
4:28.881,96797,),0,0,0
4:28.903,96805,(,0,0,1
4:28.942,96819,N,0,0,0
4:29.050,96858,),0,0,1
4:29.056,96860,(,0,0,2
4:29.156,96896,t,0,0,0
4:29.292,96945,),0,0,2
4:29.461,97006,(,0,0,0
4:29.481,97013,p,0,0,0
4:29.550,97038,),0,0,0
4:29.575,97047,(,0,0,1
4:29.647,97073,N,0,0,0
4:29.692,97089,),0,0,1
4:29.875,97155,(,0,0,2
4:29.958,97185,t,0,0,0
4:29.986,97195,),0,0,2
4:30.119,97243,(,0,0,0
4:30.142,97251,p,0,0,0
4:30.172,97262,),0,0,0
4:30.208,97275,(,0,0,1
4:30.250,97290,N,0,0,0
4:30.297,97307,),0,0,1
4:30.408,97347,(,0,0,2
4:30.489,97376,t,0,0,0
4:30.594,97414,),0,0,2
4:30.636,97429,(,0,0,0
4:30.669,97441,p,0,0,0
4:30.692,97449,),0,0,0
4:30.817,97494,(,0,0,1
4:30.864,97511,N,0,0,0
4:30.917,97530,),0,0,1
4:31.028,97570,(,0,0,2
4:31.142,97611,t,0,0,0
4:31.233,97644,),0,0,2
4:31.258,97653,(,0,0,0
4:31.322,97676,p,0,0,0
4:31.394,97702,),0,0,0
4:31.422,97712,(,0,0,1
4:31.483,97734,N,0,0,0
4:31.531,97751,),0,0,1
4:31.603,97777,(,0,0,2
4:31.756,97832,t,0,0,0
4:31.789,97844,),0,0,2
4:31.936,97897,(,0,0,0
4:31.969,97909,p,0,0,0
4:32.000,97920,),0,0,0
4:32.078,97948,(,0,0,1
4:32.175,97983,N,0,0,0
4:32.247,98009,),0,0,1
4:32.361,98050,(,0,0,2
4:32.414,98069,t,0,0,5
4:32.553,98119,t,0,0,5
4:32.578,98128,),0,0,2
4:32.589,98132,(,0,0,0
4:32.617,98142,p,0,0,0
4:32.656,98156,),0,0,0
4:32.783,98202,(,0,0,1
4:32.869,98233,N,0,0,0
4:32.931,98255,),0,0,1
4:33.142,98331,(,0,0,2
4:33.181,98345,t,0,0,0
4:33.219,98359,),0,0,2
4:33.333,98400,(,0,0,0
4:33.364,98411,p,0,0,0
4:33.428,98434,),0,0,0
4:33.478,98452,(,0,0,1
4:33.528,98470,N,0,0,0
4:33.567,98484,),0,0,1
4:33.706,98534,(,0,0,2
4:33.778,98560,t,0,0,0
4:33.814,98573,),0,0,2
4:33.914,98609,(,0,0,0
4:33.939,98618,p,0,0,0
4:33.975,98631,),0,0,0
4:33.992,98637,(,0,0,1
4:34.058,98661,N,0,0,0
4:34.125,98685,),0,0,1
4:34.167,98700,(,0,0,2
4:34.264,98735,t,0,0,0
4:34.394,98782,),0,0,2
4:34.514,98825,(,0,0,0
4:34.539,98834,p,0,0,0
4:34.564,98843,),0,0,0
4:34.644,98872,(,0,0,1
4:34.742,98907,N,0,0,0
4:34.875,98955,),0,0,1
4:34.900,98964,(,0,0,2
4:34.931,98975,t,0,0,1
4:35.036,99013,),0,0,2
4:35.119,99043,(,0,0,0
4:35.150,99054,p,0,0,0
4:35.172,99062,),0,0,0
4:35.289,99104,(,0,0,1
4:35.339,99122,N,0,0,0
4:35.397,99143,),0,0,1
4:35.494,99178,(,0,0,2
4:35.581,99209,t,0,0,0
4:35.672,99242,),0,0,2
4:37.517,99906,(,0,0,0
4:37.597,99935,p,0,0,0
4:37.678,99964,),0,0,0
4:37.706,99974,(,0,0,1
4:37.769,99997,N,0,0,0
4:37.800   100008,),0,0,1
4:37.903   100045,(,0,0,2
4:37.928   100054,t,0,0,1
4:37.978   100072,),0,0,2
4:38.083   100110,(,0,0,0
4:38.100   100116,p,0,0,0
4:38.142   100131,),0,0,0
4:38.183   100146,(,0,0,1
4:38.306   100190,N,0,0,0
4:38.369   100213,),0,0,1
4:38.542   100275,(,0,0,2
4:38.578   100288,t,0,0,0
4:38.617   100302,),0,0,2
4:39.033   100452,(,0,0,0
4:39.058   100461,p,0,0,0
4:39.092   100473,),0,0,0
4:39.189   100508,(,0,0,1
4:39.247   100529,N,0,0,0
4:39.275   100539,),0,0,1
4:39.811   100732,(,0,0,2
4:39.850   100746,t,0,0,0
4:39.889   100760,),0,0,2
4:50.072   104426,(,0,0,0
4:50.119   104443,p,0,0,0
4:50.167   104460,),0,0,0
4:50.178   104464,(,0,0,1
4:50.367   104532,N,0,0,0
4:50.367   104532,),0,0,1
4:51.031   104771,(,0,0,2
4:51.067   104784,t,0,0,0
4:51.106   104798,),0,0,2
4:54.917   106170,(,0,0,0
4:54.964   106187,p,0,0,0
4:55.000   106200,),0,0,0
4:55.119   106243,(,0,0,1
4:55.169   106261,N,0,0,0
4:55.206   106274,),0,0,1
4:55.867   106512,(,0,0,2
4:55.906   106526,t,0,0,0
4:55.944   106540,),0,0,2
5:01.306   108470,(,0,0,0
5:01.356   108488,p,0,0,0
5:01.392   108501,),0,0,0
5:01.408   108507,(,0,0,1
5:01.481   108533,N,0,0,0
5:01.483   108534,),0,0,1
5:02.122   108764,(,0,0,2
5:02.158   108777,t,0,0,0
5:02.197   108791,),0,0,2
5:04.864   109751,(,0,0,0
5:04.931   109775,p,0,0,0
5:04.978   109792,),0,0,0
5:05.086   109831,(,0,0,1
5:05.217   109878,N,0,0,0
5:05.217   109878,),0,0,1
5:05.853   110107,(,0,0,2
5:05.889   110120,t,0,0,5
5:05.928   110134,t,0,0,5
5:05.956   110144,),0,0,2
5:06.258   110253,(,0,0,0
5:06.314   110273,p,0,0,0
5:06.347   110285,),0,0,0
5:06.406   110306,(,0,0,1
5:06.486   110335,N,0,0,0
5:06.550   110358,),0,0,1
5:07.022   110528,(,0,0,2
5:07.056   110540,t,0,0,5
5:07.094   110554,t,0,0,5
5:07.111   110560,),0,0,2
5:07.225   110601,(,0,0,0
5:07.325   110637,p,0,0,0
5:07.383   110658,),0,0,0
5:07.481   110693,(,0,0,1
5:07.567   110724,N,0,0,0
5:07.567   110724,),0,0,1
5:07.572   110726,(,0,0,2
5:07.783   110802,t,0,0,0
5:07.950   110862,),0,0,2
5:08.089   110912,(,0,0,0
5:08.117   110922,p,0,0,0
5:08.139   110930,),0,0,0
5:08.253   110971,(,0,0,1
5:08.333   111000,N,0,0,0
5:08.367   111012,),0,0,1
5:08.528   111070,(,0,0,2
5:08.558   111081,t,0,0,5
5:08.589   111092,t,0,0,5
5:08.661   111118,),0,0,2
5:08.728   111142,(,0,0,0
5:08.761   111154,p,0,0,0
5:08.808   111171,),0,0,0
5:08.856   111188,(,0,0,1
5:08.950   111222,N,0,0,0
5:08.972   111230,),0,0,1
5:09.003   111241,(,0,0,2
5:09.161   111298,t,0,0,0
5:09.294   111346,),0,0,2
5:09.508   111423,(,0,0,0
5:09.533   111432,p,0,0,0
5:09.564   111443,),0,0,0
5:09.619   111463,(,0,0,1
5:09.664   111479,N,0,0,0
5:09.733   111504,),0,0,1
5:10.236   111685,(,0,0,2
5:10.272   111698,t,0,0,0
5:10.308   111711,),0,0,2
5:13.611   112900,(,0,0,0
5:13.631   112907,p,0,0,0
5:13.647   112913,),0,0,0
5:13.694   112930,(,0,0,1
5:13.803   112969,N,0,0,0
5:13.822   112976,),0,0,1
5:13.856   112988,(,0,0,2
5:13.986   113035,t,0,0,0
5:14.075   113067,),0,0,2
5:14.206   113114,(,0,0,0
5:14.231   113123,p,0,0,0
5:14.275   113139,),0,0,0
5:14.422   113192,(,0,0,1
5:14.461   113206,N,0,0,0
5:14.536   113233,),0,0,1
5:14.764   113315,(,0,0,2
5:14.797   113327,t,0,0,5
5:15.008   113403,t,0,0,5
5:15.181   113465,),0,0,2
5:15.911   113728,(,0,0,0
5:15.964   113747,p,0,0,0
5:16.050   113778,),0,0,0
5:16.122   113804,(,0,0,1
5:16.206   113834,N,0,0,0
5:16.206   113834,),0,0,1
5:16.886   114079,(,0,0,2
5:16.919   114091,t,0,0,0
5:16.958   114105,),0,0,2
5:19.511   115024,(,0,0,0
5:19.586   115051,p,0,0,0
5:19.675   115083,),0,0,0
5:19.714   115097,(,0,0,1
5:19.844   115144,N,0,0,0
5:19.844   115144,),0,0,1
5:19.856   115148,(,0,0,2
5:20.017   115206,t,0,0,0
5:20.103   115237,),0,0,2
5:20.261   115294,(,0,0,0
5:20.303   115309,p,0,0,0
5:20.333   115320,),0,0,0
5:20.406   115346,(,0,0,1
5:20.489   115376,N,0,0,0
5:20.517   115386,),0,0,1
5:21.106   115598,(,0,0,2
5:21.142   115611,t,0,0,0
5:21.183   115626,),0,0,2
5:22.028   115930,(,0,0,0
5:22.058   115941,p,0,0,0
5:22.089   115952,),0,0,0
5:22.250   116010,(,0,0,1
5:22.328   116038,N,0,0,0
5:22.389   116060,),0,0,1
5:22.914   116249,(,0,0,2
5:22.944   116260,t,0,0,0
5:22.983   116274,),0,0,2
5:24.303   116749,(,0,0,0
5:24.342   116763,p,0,0,0
5:24.433   116796,),0,0,0
5:24.497   116819,(,0,0,1
5:24.611   116860,N,0,0,0
5:24.642   116871,),0,0,1
5:25.294   117106,(,0,0,2
5:25.331   117119,t,0,0,0
5:25.369   117133,),0,0,2
5:25.786   117283,(,0,0,1
5:25.867   117312,N,0,0,0
5:25.869   117313,),0,0,1
5:26.569   117565,(,0,0,2
5:26.603   117577,t,0,0,0
5:26.642   117591,),0,0,2
5:29.186   118507,(,0,0,0
5:29.275   118539,p,0,0,0
5:29.319   118555,),0,0,0
5:29.406   118586,(,0,0,1
5:29.506   118622,N,0,0,0
5:29.508   118623,),0,0,1
5:30.186   118867,(,0,0,2
5:30.222   118880,t,0,0,0
5:30.258   118893,),0,0,2
5:33.211   119956,(,0,0,0
5:33.244   119968,p,0,0,0
5:33.269   119977,),0,0,0
5:33.303   119989,(,0,0,1
5:33.378   120016,N,0,0,0
5:33.422   120032,),0,0,1
5:33.994   120238,(,0,0,2
5:34.031   120251,t,0,0,0
5:34.069   120265,),0,0,2
5:36.808   121251,(,0,0,1
5:36.911   121288,N,0,0,0
5:36.914   121289,),0,0,1
5:37.586   121531,(,0,0,2
5:37.625   121545,t,0,0,0
5:37.667   121560,),0,0,2
5:37.919   121651,(,0,0,0
5:37.950   121662,p,0,0,0
5:37.983   121674,),0,0,0
5:38.128   121726,(,0,0,1
5:38.217   121758,N,0,0,0
5:38.219   121759,),0,0,1
5:38.228   121762,(,0,0,2
5:38.417   121830,t,0,0,0
5:38.564   121883,),0,0,2
5:41.692   123009,(,0,0,0
5:41.778   123040,p,0,0,0
5:41.833   123060,),0,0,0
5:41.922   123092,(,0,0,1
5:42.019   123127,N,0,0,0
5:42.022   123128,),0,0,1
5:42.708   123375,(,0,0,2
5:42.744   123388,t,0,0,0
5:42.781   123401,),0,0,2
5:45.756   124472,(,0,0,0
5:45.783   124482,p,0,0,0
5:45.872   124514,),0,0,0
5:45.881   124517,(,0,0,1
5:45.942   124539,N,0,0,0
5:45.942   124539,),0,0,1
5:46.592   124773,(,0,0,2
5:46.625   124785,t,0,0,0
5:46.664   124799,),0,0,2
5:46.911   124888,(,0,0,0
5:46.944   124900,p,0,0,0
5:46.975   124911,),0,0,0
5:47.072   124946,(,0,0,1
5:47.153   124975,N,0,0,0
5:47.164   124979,),0,0,1
5:47.800   125208,(,0,0,2
5:47.836   125221,t,0,0,0
5:47.869   125233,),0,0,2
5:48.181   125345,(,0,0,0
5:48.258   125373,p,0,0,0
5:48.325   125397,),0,0,0
5:48.397   125423,(,0,0,1
5:48.447   125441,N,0,0,0
5:48.569   125485,),0,0,1
5:49.078   125668,(,0,0,2
5:49.117   125682,t,0,0,0
5:49.156   125696,),0,0,2
5:50.328   126118,(,0,0,0
5:50.358   126129,p,0,0,0
5:50.394   126142,),0,0,0
5:50.408   126147,(,0,0,1
5:50.464   126167,N,0,0,0
5:50.497   126179,),0,0,1
5:51.100   126396,(,0,0,2
5:51.136   126409,t,0,0,0
5:51.178   126424,),0,0,2
5:51.508   126543,(,0,0,0
5:51.561   126562,p,0,0,0
5:51.633   126588,),0,0,0
5:51.708   126615,(,0,0,1
5:51.781   126641,N,0,0,0
5:51.806   126650,),0,0,1
5:51.964   126707,(,0,0,2
5:52.003   126721,t,0,0,0
5:52.050   126738,),0,0,2
5:52.133   126768,(,0,0,0
5:52.194   126790,p,0,0,0
5:52.308   126831,),0,0,0
5:52.342   126843,(,0,0,1
5:52.383   126858,N,0,0,0
5:52.483   126894,),0,0,1
5:52.956   127064,(,0,0,2
5:52.989   127076,t,0,0,0
5:53.028   127090,),0,0,2
5:55.822   128096,(,0,0,0
5:55.872   128114,p,0,0,0
5:55.933   128136,),0,0,0
5:56.022   128168,(,0,0,1
5:56.119   128203,N,0,0,0
5:56.183   128226,),0,0,1
5:56.867   128472,(,0,0,2
5:56.908   128487,t,0,0,0
5:56.947   128501,),0,0,2
5:58.069   128905,(,0,0,0
5:58.100   128916,p,0,0,0
5:58.156   128936,),0,0,0
5:58.208   128955,(,0,0,1
5:58.283   128982,N,0,0,0
5:58.311   128992,),0,0,1
5:58.889   129200,(,0,0,2
5:58.925   129213,t,0,0,0
5:58.964   129227,),0,0,2
5:59.142   129291,(,0,0,0
5:59.175   129303,p,0,0,0
5:59.239   129326,),0,0,0
5:59.403   129385,(,0,0,1
5:59.492   129417,N,0,0,0
5:59.594   129454,),0,0,1
5:59.689   129488,(,0,0,2
5:59.711   129496,t,0,0,1
5:59.744   129508,),0,0,2
5:59.911   129568,(,0,0,0
5:59.936   129577,p,0,0,0
5:59.958   129585,),0,0,0
6:00.006   129602,(,0,0,1
6:00.097   129635,N,0,0,0
6:00.125   129645,),0,0,1
6:00.703   129853,(,0,0,2
6:00.744   129868,t,0,0,0
6:00.783   129882,),0,0,2
6:04.894   131362,(,0,0,0
6:04.967   131388,p,0,0,0
6:05.039   131414,),0,0,0
6:05.081   131429,(,0,0,1
6:05.181   131465,N,0,0,0
6:05.183   131466,),0,0,1
6:05.186   131467,(,0,0,2
6:05.386   131539,t,0,0,0
6:05.492   131577,),0,0,2
6:09.414   132989,(,0,0,0
6:09.472   133010,p,0,0,0
6:09.506   133022,),0,0,0
6:09.653   133075,(,0,0,1
6:09.708   133095,N,0,0,0
6:09.739   133106,),0,0,1
6:09.853   133147,(,0,0,2
6:09.903   133165,t,0,0,5
6:10.103   133237,t,0,0,5
6:10.169   133261,),0,0,2
6:10.819   133495,(,0,0,0
6:10.886   133519,p,0,0,0
6:10.964   133547,),0,0,0
6:11.022   133568,(,0,0,1
6:11.158   133617,N,0,0,0
6:11.181   133625,),0,0,1
6:11.839   133862,(,0,0,2
6:11.878   133876,t,0,0,0
6:11.917   133890,),0,0,2
6:25.536   138793,(,0,0,0
6:25.567   138804,p,0,0,0
6:25.597   138815,),0,0,0
6:25.706   138854,(,0,0,1
6:25.744   138868,N,0,0,0
6:25.800   138888,),0,0,1
6:26.411   139108,(,0,0,2
6:26.447   139121,t,0,0,0
6:26.489   139136,),0,0,2
6:26.925   139293,(,0,0,0
6:26.967   139308,p,0,0,0
6:27.033   139332,),0,0,0
6:27.103   139357,(,0,0,1
6:27.169   139381,N,0,0,0
6:27.250   139410,),0,0,1
6:27.408   139467,(,0,0,2
6:27.436   139477,t,0,0,0
6:27.464   139487,),0,0,2
6:27.661   139558,(,0,0,0
6:27.703   139573,p,0,0,0
6:27.728   139582,),0,0,0
6:27.811   139612,(,0,0,1
6:27.881   139637,N,0,0,0
6:27.911   139648,),0,0,1
6:28.078   139708,(,0,0,2
6:28.133   139728,t,0,0,0
6:28.211   139756,),0,0,2
6:28.325   139797,(,0,0,0
6:28.361   139810,p,0,0,0
6:28.392   139821,),0,0,0
6:28.514   139865,(,0,0,1
6:28.550   139878,N,0,0,0
6:28.578   139888,),0,0,1
6:28.664   139919,(,0,0,2
6:28.783   139962,t,0,0,0
6:28.886   139999,),0,0,2
6:28.978   140032,(,0,0,0
6:29.042   140055,p,0,0,0
6:29.092   140073,),0,0,0
6:29.142   140091,(,0,0,1
6:29.178   140104,N,0,0,0
6:29.206   140114,),0,0,1
6:29.583   140250,(,0,0,0
6:29.617   140262,p,0,0,0
6:29.647   140273,),0,0,0
6:29.769   140317,(,0,0,1
6:29.808   140331,N,0,0,0
6:29.836   140341,),0,0,1
6:29.956   140384,(,0,0,2
6:30.069   140425,t,0,0,0
6:30.206   140474,),0,0,2
6:30.258   140493,(,0,0,0
6:30.300   140508,p,0,0,0
6:30.319   140515,),0,0,0
6:30.467   140568,(,0,0,1
6:30.511   140584,N,0,0,0
6:30.539   140594,),0,0,1
6:30.678   140644,(,0,0,2
6:30.764   140675,t,0,0,0
6:30.775   140679,),0,0,2
6:30.997   140759,(,0,0,0
6:31.019   140767,p,0,0,0
6:31.044   140776,),0,0,0
6:31.075   140787,(,0,0,1
6:31.117   140802,N,0,0,0
6:31.144   140812,),0,0,1
6:31.219   140839,(,0,0,2
6:31.239   140846,t,0,0,4
6:31.386   140899,t,0,0,4
6:31.464   140927,),0,0,2
6:31.650   140994,(,0,0,0
6:31.728   141022,p,0,0,0
6:31.800   141048,),0,0,0
6:31.836   141061,(,0,0,1
6:31.897   141083,N,0,0,0
6:31.928   141094,),0,0,1
6:32.056   141140,t,0,0,2
6:32.144   141172,),0,0,2
6:32.275   141219,(,0,0,1
6:32.336   141241,N,0,0,0
6:32.367   141252,),0,0,1
6:32.517   141306,(,0,0,2
6:32.586   141331,t,0,0,0
6:32.622   141344,),0,0,2
6:33.025   141489,(,0,0,0
6:33.061   141502,p,0,0,0
6:33.097   141515,),0,0,0
6:33.208   141555,(,0,0,1
6:33.250   141570,N,0,0,0
6:33.278   141580,),0,0,1
6:33.772   141758,(,0,0,2
6:33.808   141771,t,0,0,1
6:33.931   141815,),0,0,2
6:34.417   141990,(,0,0,0
6:34.444   142000,p,0,0,0
6:34.472   142010,),0,0,0
6:34.525   142029,(,0,0,1
6:34.564   142043,N,0,0,0
6:34.594   142054,),0,0,1
6:35.028   142210,(,0,0,2
6:35.072   142226,t,0,0,1
6:35.217   142278,),0,0,2
6:35.706   142454,(,0,0,0
6:35.778   142480,p,0,0,0
6:35.839   142502,),0,0,0
6:35.872   142514,(,0,0,1
6:35.925   142533,N,0,0,0
6:35.953   142543,),0,0,1
6:36.458   142725,(,0,0,2
6:36.497   142739,t,0,0,1
6:36.661   142798,),0,0,2
6:36.922   142892,(,0,0,0
6:36.950   142902,p,0,0,0
6:37.019   142927,),0,0,0
6:37.097   142955,(,0,0,1
6:37.133   142968,N,0,0,0
6:37.161   142978,),0,0,1
6:37.628   143146,(,0,0,2
6:37.669   143161,t,0,0,1
6:37.833   143220,),0,0,2
6:38.836   143581,(,0,0,0
6:38.861   143590,p,0,0,0
6:38.886   143599,),0,0,0
6:38.914   143609,(,0,0,1
6:38.986   143635,N,0,0,0
6:39.017   143646,),0,0,1
6:39.483   143814,(,0,0,2
6:39.514   143825,t,0,0,5
6:39.558   143841,t,0,0,5
6:39.653   143875,),0,0,2
6:39.928   143974,(,0,0,1
6:39.964   143987,N,0,0,0
6:39.997   143999,),0,0,1
6:40.100   144036,(,0,0,2
6:40.267   144096,t,0,0,0
6:40.408   144147,),0,0,2
6:40.933   144336,(,0,0,0
6:40.967   144348,p,0,0,0
6:41.003   144361,),0,0,0
6:41.094   144394,(,0,0,1
6:41.131   144407,N,0,0,0
6:41.158   144417,),0,0,1
6:41.608   144579,(,0,0,2
6:41.639   144590,t,0,0,5
6:41.683   144606,t,0,0,5
6:41.761   144634,),0,0,2
6:42.394   144862,(,0,0,0
6:42.428   144874,p,0,0,0
6:42.456   144884,),0,0,0
6:42.519   144907,(,0,0,1
6:42.569   144925,N,0,0,0
6:42.600   144936,),0,0,1
6:42.722   144980,(,0,0,2
6:42.753   144991,t,0,0,0
6:42.792   145005,),0,0,2
6:43.172   145142,(,0,0,0
6:43.194   145150,p,0,0,0
6:43.214   145157,),0,0,0
6:43.283   145182,(,0,0,1
6:43.342   145203,N,0,0,0
6:43.369   145213,),0,0,1
6:43.608   145299,(,0,0,2
6:43.653   145315,t,0,0,5
6:43.700   145332,t,0,0,5
6:43.711   145336,),0,0,2
6:43.883   145398,(,0,0,0
6:43.967   145428,p,0,0,0
6:44.036   145453,),0,0,0
6:44.081   145469,(,0,0,1
6:44.119   145483,N,0,0,0
6:44.183   145506,),0,0,1
6:44.322   145556,(,0,0,2
6:44.436   145597,t,0,0,0
6:44.542   145635,),0,0,2
6:44.658   145677,(,0,0,0
6:44.683   145686,p,0,0,0
6:44.714   145697,),0,0,0
6:44.825   145737,(,0,0,1
6:44.886   145759,N,0,0,0
6:44.992   145797,),0,0,1
6:45.086   145831,(,0,0,2
6:45.147   145853,t,0,0,0
6:45.183   145866,),0,0,2
6:45.356   145928,(,0,0,0
6:45.392   145941,p,0,0,0
6:45.422   145952,),0,0,0
6:45.528   145990,(,0,0,1
6:45.583   146010,N,0,0,0
6:45.611   146020,),0,0,1
6:45.769   146077,(,0,0,2
6:45.850   146106,t,0,0,0
6:45.883   146118,),0,0,2
6:46.058   146181,(,0,0,0
6:46.147   146213,p,0,0,0
6:46.231   146243,),0,0,0
6:46.256   146252,(,0,0,1
6:46.297   146267,N,0,0,0
6:46.331   146279,),0,0,1
6:46.414   146309,(,0,0,2
6:46.433   146316,t,0,0,4
6:46.528   146350,t,0,0,4
6:46.544   146356,),0,0,2
6:46.556   146360,(,0,0,0
6:46.572   146366,p,0,0,0
6:46.719   146419,),0,0,0
6:46.742   146427,(,0,0,1
6:46.778   146440,N,0,0,0
6:46.811   146452,),0,0,1
6:46.942   146499,(,0,0,2
6:47.011   146524,t,0,0,0
6:47.128   146566,),0,0,2
6:47.408   146667,(,0,0,0
6:47.464   146687,p,0,0,0
6:47.500   146700,),0,0,0
6:47.597   146735,(,0,0,1
6:47.656   146756,N,0,0,0
6:47.686   146767,),0,0,1
6:48.125   146925,(,0,0,2
6:48.164   146939,t,0,0,1
6:48.314   146993,),0,0,2
6:48.717   147138,(,0,0,0
6:48.747   147149,p,0,0,0
6:48.775   147159,),0,0,0
6:48.889   147200,(,0,0,1
6:48.931   147215,N,0,0,0
6:48.958   147225,),0,0,1
6:49.353   147367,(,0,0,2
6:49.394   147382,t,0,0,5
6:49.453   147403,t,0,0,5
6:49.639   147470,),0,0,2
6:50.069   147625,(,0,0,0
6:50.119   147643,p,0,0,0
6:50.144   147652,),0,0,0
6:50.267   147696,(,0,0,1
6:50.308   147711,N,0,0,0
6:50.336   147721,),0,0,1
6:50.842   147903,(,0,0,2
6:50.883   147918,t,0,0,1
6:51.058   147981,),0,0,2
6:51.489   148136,(,0,0,0
6:51.525   148149,p,0,0,0
6:51.586   148171,),0,0,0
6:51.669   148201,(,0,0,1
6:51.717   148218,N,0,0,0
6:51.747   148229,),0,0,1
6:51.956   148304,(,0,0,2
6:52.058   148341,t,0,0,0
6:52.119   148363,),0,0,2
6:52.208   148395,(,0,0,0
6:52.278   148420,p,0,0,0
6:52.342   148443,),0,0,0
6:52.389   148460,(,0,0,1
6:52.428   148474,N,0,0,0
6:52.458   148485,),0,0,1
6:52.633   148548,(,0,0,2
6:52.678   148564,t,0,0,0
6:52.767   148596,),0,0,2
6:52.858   148629,(,0,0,0
6:52.889   148640,p,0,0,0
6:52.919   148651,),0,0,0
6:53.042   148695,(,0,0,1
6:53.081   148709,N,0,0,0
6:53.108   148719,),0,0,1
6:53.222   148760,(,0,0,2
6:53.258   148773,t,0,0,5
6:53.489   148856,t,0,0,5
6:53.531   148871,),0,0,2
6:54.717   149298,(,0,0,0
6:54.750   149310,p,0,0,0
6:54.778   149320,),0,0,0
6:54.939   149378,(,0,0,1
6:55.019   149407,N,0,0,0
6:55.047   149417,),0,0,1
6:55.167   149460,(,0,0,2
6:55.281   149501,t,0,0,0
6:55.369   149533,),0,0,2
6:55.453   149563,(,0,0,0
6:55.492   149577,p,0,0,0
6:55.519   149587,),0,0,0
6:55.636   149629,(,0,0,1
6:55.683   149646,N,0,0,0
6:55.714   149657,),0,0,1
6:55.797   149687,(,0,0,2
6:55.817   149694,t,0,0,4
6:55.975   149751,t,0,0,4
6:56.028   149770,),0,0,2
6:57.481   150293,(,0,0,0
6:57.508   150303,p,0,0,0
6:57.533   150312,),0,0,0
6:57.633   150348,(,0,0,1
6:57.700   150372,N,0,0,0
6:57.728   150382,),0,0,1
6:57.933   150456,(,0,0,2
6:57.986   150475,t,0,0,0
6:58.142   150531,),0,0,2
6:58.158   150537,(,0,0,0
6:58.189   150548,p,0,0,0
6:58.214   150557,),0,0,0
6:58.331   150599,(,0,0,1
6:58.364   150611,N,0,0,0
6:58.392   150621,),0,0,1
6:58.475   150651,(,0,0,2
6:58.597   150695,t,0,0,5
6:58.778   150760,t,0,0,5
6:58.819   150775,),0,0,2
6:59.469   151009,(,0,0,0
6:59.511   151024,p,0,0,0
6:59.539   151034,),0,0,0
6:59.628   151066,(,0,0,1
6:59.708   151095,N,0,0,0
6:59.739   151106,),0,0,1
6:59.864   151151,(,0,0,2
6:59.964   151187,t,0,0,0
7:00.069   151225,),0,0,2
7:02.292   152025,(,0,0,0
7:02.331   152039,p,0,0,0
7:02.364   152051,),0,0,0
7:02.497   152099,(,0,0,1
7:02.544   152116,N,0,0,0
7:02.575   152127,),0,0,1
7:02.681   152165,(,0,0,2
7:02.842   152223,t,0,0,0
7:02.928   152254,),0,0,2
7:04.581   152849,(,0,0,0
7:04.617   152862,p,0,0,0
7:04.650   152874,),0,0,0
7:04.731   152903,(,0,0,1
7:04.781   152921,N,0,0,0
7:04.806   152930,),0,0,1
7:04.903   152965,(,0,0,2
7:05.019   153007,t,0,0,5
7:05.156   153056,t,0,0,5
7:05.211   153076,),0,0,2
7:05.233   153084,(,0,0,0
7:05.261   153094,p,0,0,0
7:05.292   153105,),0,0,0
7:05.358   153129,(,0,0,1
7:05.417   153150,N,0,0,0
7:05.494   153178,),0,0,1
7:05.603   153217,(,0,0,2
7:05.633   153228,t,0,0,0
7:05.689   153248,),0,0,2
7:05.700   153252,(,0,0,0
7:05.744   153268,p,0,0,0
7:05.794   153286,),0,0,0
7:05.844   153304,(,0,0,1
7:05.942   153339,N,0,0,0
7:06.006   153362,),0,0,1
7:06.117   153402,(,0,0,2
7:06.181   153425,t,0,0,0
7:06.269   153457,),0,0,2
7:06.533   153552,(,0,0,0
7:06.575   153567,p,0,0,0
7:06.606   153578,),0,0,0
7:06.661   153598,(,0,0,1
7:06.703   153613,N,0,0,0
7:06.731   153623,),0,0,1
7:06.931   153695,(,0,0,2
7:06.978   153712,t,0,0,5
7:07.039   153734,t,0,0,5
7:07.075   153747,),0,0,2
7:08.247   154169,(,0,0,0
7:08.289   154184,p,0,0,0
7:08.319   154195,),0,0,0
7:08.453   154243,(,0,0,1
7:08.500   154260,N,0,0,0
7:08.528   154270,),0,0,1
7:08.725   154341,(,0,0,2
7:08.797   154367,t,0,0,0
7:08.928   154414,),0,0,2
7:09.803   154729,(,0,0,0
7:09.831   154739,p,0,0,0
7:09.858   154749,),0,0,0
7:09.958   154785,(,0,0,1
7:09.997   154799,N,0,0,0
7:10.025   154809,),0,0,1
7:10.189   154868,(,0,0,2
7:10.217   154878,t,0,0,1
7:10.297   154907,),0,0,2
7:10.342   154923,(,0,0,0
7:10.403   154945,p,0,0,0
7:10.442   154959,),0,0,0
7:10.475   154971,(,0,0,1
7:10.581   155009,N,0,0,0
7:10.606   155018,),0,0,1
7:10.658   155037,(,0,0,2
7:10.794   155086,t,0,0,0
7:10.936   155137,),0,0,2
7:11.275   155259,(,0,0,0
7:11.297   155267,p,0,0,0
7:11.339   155282,),0,0,0
7:11.378   155296,(,0,0,1
7:11.425   155313,N,0,0,0
7:11.550   155358,),0,0,1
7:11.686   155407,(,0,0,0
7:11.764   155435,p,0,0,0
7:11.819   155455,),0,0,0
7:11.850   155466,(,0,0,1
7:11.956   155504,N,0,0,0
7:11.958   155505,),0,0,1
7:11.964   155507,(,0,0,2
7:12.156   155576,t,0,0,0
7:12.294   155626,),0,0,2
7:12.600   155736,(,0,0,0
7:12.619   155743,p,0,0,0
7:12.644   155752,),0,0,0
7:12.800   155808,(,0,0,1
7:12.839   155822,N,0,0,0
7:12.864   155831,),0,0,1
7:13.094   155914,(,0,0,0
7:13.147   155933,p,0,0,0
7:13.208   155955,),0,0,0
7:13.231   155963,(,0,0,1
7:13.319   155995,N,0,0,0
7:13.350   156006,),0,0,1
7:13.386   156019,(,0,0,2
7:13.542   156075,t,0,0,0
7:13.700   156132,),0,0,2
7:14.464   156407,(,0,0,0
7:14.575   156447,p,0,0,0
7:14.606   156458,),0,0,0
7:14.650   156474,(,0,0,1
7:14.772   156518,N,0,0,0
7:14.828   156538,),0,0,1
7:14.833   156540,(,0,0,2
7:14.981   156593,t,0,0,0
7:15.103   156637,),0,0,2
7:15.431   156755,(,0,0,0
7:15.464   156767,p,0,0,0
7:15.497   156779,),0,0,0
7:15.603   156817,(,0,0,1
7:15.661   156838,N,0,0,0
7:15.689   156848,),0,0,1
7:15.856   156908,(,0,0,2
7:15.881   156917,t,0,0,4
7:15.950   156942,t,0,0,4
7:15.978   156952,),0,0,2
7:16.081   156989,(,0,0,1
7:16.172   157022,N,0,0,0
7:16.236   157045,),0,0,1
7:16.292   157065,(,0,0,2
7:16.394   157102,t,0,0,0
7:16.550   157158,),0,0,2
7:16.814   157253,(,0,0,0
7:16.858   157269,p,0,0,0
7:16.903   157285,),0,0,0
7:16.922   157292,(,0,0,1
7:17.006   157322,N,0,0,0
7:17.033   157332,),0,0,1
7:17.244   157408,(,0,0,2
7:17.264   157415,t,0,0,1
7:17.297   157427,),0,0,2
7:17.436   157477,(,0,0,1
7:17.531   157511,N,0,0,0
7:17.531   157511,),0,0,1
7:17.536   157513,(,0,0,2
7:17.686   157567,t,0,0,0
7:17.864   157631,),0,0,2
7:18.494   157858,(,0,0,0
7:18.522   157868,p,0,0,0
7:18.547   157877,),0,0,0
7:18.692   157929,(,0,0,1
7:18.772   157958,N,0,0,0
7:18.775   157959,),0,0,1
7:18.781   157961,(,0,0,2
7:19.000   158040,t,0,0,0
7:19.117   158082,),0,0,2
7:19.508   158223,(,0,0,0
7:19.542   158235,p,0,0,0
7:19.569   158245,),0,0,0
7:19.656   158276,(,0,0,1
7:19.703   158293,N,0,0,0
7:19.733   158304,),0,0,1
7:19.808   158331,(,0,0,2
7:19.892   158361,t,0,0,1
7:20.019   158407,),0,0,2
7:20.164   158459,(,0,0,1
7:20.261   158494,N,0,0,0
7:20.325   158517,),0,0,1
7:20.339   158522,(,0,0,2
7:20.492   158577,t,0,0,0
7:20.650   158634,),0,0,2
7:20.903   158725,(,0,0,0
7:20.922   158732,p,0,0,0
7:20.947   158741,),0,0,0
7:21.106   158798,(,0,0,1
7:21.142   158811,N,0,0,0
7:21.267   158856,),0,0,1
7:21.328   158878,(,0,0,2
7:21.361   158890,t,0,0,5
7:21.392   158901,t,0,0,5
7:21.447   158921,),0,0,2
7:21.547   158957,(,0,0,1
7:21.639   158990,N,0,0,0
7:21.642   158991,),0,0,1
7:21.644   158992,(,0,0,2
7:21.847   159065,t,0,0,0
7:21.961   159106,),0,0,2
7:22.192   159189,(,0,0,0
7:22.258   159213,p,0,0,0
7:22.294   159226,),0,0,0
7:22.375   159255,(,0,0,1
7:22.417   159270,N,0,0,0
7:22.444   159280,),0,0,1
7:22.586   159331,(,0,0,2
7:22.611   159340,t,0,0,5
7:22.644   159352,t,0,0,5
7:22.756   159392,),0,0,2
7:22.839   159422,(,0,0,1
7:22.928   159454,N,0,0,0
7:22.928   159454,),0,0,1
7:22.931   159455,(,0,0,2
7:23.097   159515,t,0,0,0
7:23.233   159564,),0,0,2
7:24.000   159840,(,0,0,0
7:24.075   159867,p,0,0,0
7:24.125   159885,),0,0,0
7:24.156   159896,(,0,0,1
7:24.228   159922,N,0,0,0
7:24.261   159934,),0,0,1
7:24.339   159962,(,0,0,2
7:24.375   159975,t,0,0,4
7:24.539   160034,t,0,0,4
7:24.572   160046,),0,0,2
7:24.864   160151,(,0,0,0
7:24.914   160169,p,0,0,0
7:24.933   160176,),0,0,0
7:25.089   160232,(,0,0,1
7:25.142   160251,N,0,0,0
7:25.169   160261,),0,0,1
7:25.400   160344,(,0,0,2
7:25.492   160377,t,0,0,0
7:25.533   160392,),0,0,2
7:26.617   160782,(,0,0,0
7:26.689   160808,p,0,0,0
7:26.794   160846,),0,0,0
7:26.881   160877,(,0,0,1
7:26.992   160917,N,0,0,0
7:27.031   160931,),0,0,1
7:27.150   160974,(,0,0,2
7:27.189   160988,t,0,0,1
7:27.314   161033,),0,0,2
7:28.525   161469,(,0,0,0
7:28.586   161491,p,0,0,0
7:28.639   161510,),0,0,0
7:28.689   161528,(,0,0,1
7:28.772   161558,N,0,0,0
7:28.819   161575,),0,0,1
7:28.825   161577,(,0,0,2
7:28.983   161634,t,0,0,0
7:29.164   161699,),0,0,2
7:36.344   164284,(,0,0,0
7:36.444   164320,p,0,0,0
7:36.472   164330,),0,0,0
7:36.603   164377,(,0,0,1
7:36.694   164410,N,0,0,0
7:36.758   164433,),0,0,1
7:36.819   164455,(,0,0,2
7:36.917   164490,t,0,0,0
7:37.078   164548,),0,0,2
7:37.833   164820,(,0,0,0
7:37.900   164844,p,0,0,0
7:37.928   164854,),0,0,0
7:38.003   164881,(,0,0,1
7:38.097   164915,N,0,0,0
7:38.122   164924,),0,0,1
7:38.128   164926,(,0,0,2
7:38.306   164990,t,0,0,0
7:38.453   165043,),0,0,2
7:39.286   165343,(,0,0,0
7:39.347   165365,p,0,0,0
7:39.400   165384,),0,0,0
7:39.450   165402,(,0,0,1
7:39.539   165434,N,0,0,0
7:39.539   165434,),0,0,1
7:39.542   165435,(,0,0,2
7:39.742   165507,t,0,0,0
7:39.853   165547,),0,0,2
7:40.633   165828,(,0,0,0
7:40.664   165839,p,0,0,0
7:40.708   165855,),0,0,0
7:40.850   165906,(,0,0,1
7:40.931   165935,N,0,0,0
7:40.956   165944,),0,0,1
7:41.006   165962,(,0,0,2
7:41.156   166016,t,0,0,0
7:41.275   166059,),0,0,2
7:45.578   167608,(,0,0,0
7:45.700   167652,p,0,0,0
7:45.756   167672,),0,0,0
7:45.878   167716,(,0,0,1
7:45.956   167744,N,0,0,0
7:45.992   167757,),0,0,1
7:46.056   167780,(,0,0,2
7:46.117   167802,t,0,0,1
7:46.264   167855,),0,0,2
7:47.008   168123,(,0,0,0
7:47.039   168134,p,0,0,0
7:47.128   168166,),0,0,0
7:47.197   168191,(,0,0,1
7:47.283   168222,N,0,0,0
7:47.339   168242,),0,0,1
7:47.350   168246,(,0,0,2
7:47.483   168294,t,0,0,0
7:47.586   168331,),0,0,2
7:48.294   168586,(,0,0,0
7:48.322   168596,p,0,0,0
7:48.347   168605,),0,0,0
7:48.444   168640,(,0,0,1
7:48.572   168686,N,0,0,0
7:48.572   168686,),0,0,1
7:48.575   168687,(,0,0,2
7:48.781   168761,t,0,0,0
7:48.919   168811,),0,0,2
7:49.742   169107,(,0,0,0
7:49.775   169119,p,0,0,0
7:49.806   169130,),0,0,0
7:49.894   169162,(,0,0,1
7:49.986   169195,N,0,0,0
7:50.017   169206,),0,0,1
7:50.047   169217,(,0,0,2
7:50.225   169281,t,0,0,0
7:50.372   169334,),0,0,2
7:51.722   169820,(,0,0,0
7:51.764   169835,p,0,0,0
7:51.789   169844,),0,0,0
7:51.911   169888,(,0,0,1
7:51.972   169910,N,0,0,0
7:52.003   169921,),0,0,1
7:52.258   170013,(,0,0,2
7:52.275   170019,t,0,0,1
7:52.308   170031,),0,0,2
7:58.914   172409,(,0,0,0
7:59.003   172441,p,0,0,0
7:59.089   172472,),0,0,0
7:59.128   172486,(,0,0,1
7:59.225   172521,N,0,0,0
7:59.278   172540,),0,0,1
7:59.283   172542,(,0,0,2
7:59.417   172590,t,0,0,0
7:59.558   172641,),0,0,2
8:00.453   172963,(,0,0,0
8:00.500   172980,p,0,0,0
8:00.578   173008,),0,0,0
8:00.617   173022,(,0,0,1
8:00.722   173060,N,0,0,0
8:00.722   173060,),0,0,1
8:00.725   173061,(,0,0,2
8:00.972   173150,t,0,0,0
8:01.078   173188,),0,0,2
8:02.164   173579,(,0,0,0
8:02.183   173586,p,0,0,0
8:02.208   173595,),0,0,0
8:02.222   173600,(,0,0,1
8:02.347   173645,N,0,0,0
8:02.347   173645,),0,0,1
8:02.350   173646,(,0,0,2
8:02.544   173716,t,0,0,0
8:02.683   173766,),0,0,2
8:03.694   174130,(,0,0,0
8:03.769   174157,p,0,0,0
8:03.850   174186,),0,0,0
8:03.875   174195,(,0,0,1
8:03.961   174226,N,0,0,0
8:04.014   174245,),0,0,1
8:04.061   174262,(,0,0,2
8:04.181   174305,t,0,0,0
8:04.328   174358,),0,0,2
8:05.222   174680,(,0,0,0
8:05.247   174689,p,0,0,0
8:05.281   174701,),0,0,0
8:05.392   174741,(,0,0,1
8:05.519   174787,N,0,0,0
8:05.522   174788,),0,0,1
8:05.525   174789,(,0,0,2
8:05.747   174869,t,0,0,0
8:05.911   174928,),0,0,2
8:06.847   175265,(,0,0,0
8:06.872   175274,p,0,0,0
8:06.886   175279,),0,0,0
8:07.031   175331,(,0,0,1
8:07.103   175357,N,0,0,0
8:07.106   175358,),0,0,1
8:07.178   175384,(,0,0,2
8:07.311   175432,t,0,0,0
8:07.444   175480,),0,0,2
8:19.525   179829,(,0,0,0
8:19.564   179843,p,0,0,0
8:19.600   179856,),0,0,0
8:19.758   179913,(,0,0,1
8:19.881   179957,N,0,0,0
8:19.881   179957,),0,0,1
8:19.886   179959,(,0,0,2
8:20.106   180038,t,0,0,0
8:20.231   180083,),0,0,2
8:23.744   181348,(,0,0,0
8:23.769   181357,p,0,0,0
8:23.789   181364,),0,0,0
8:23.897   181403,(,0,0,1
8:23.967   181428,N,0,0,0
8:23.967   181428,),0,0,1
8:23.969   181429,(,0,0,2
8:24.156   181496,t,0,0,0
8:24.297   181547,),0,0,2
8:26.614   182381,(,0,0,0
8:26.703   182413,p,0,0,0
8:26.769   182437,),0,0,0
8:26.803   182449,(,0,0,1
8:26.886   182479,N,0,0,0
8:26.956   182504,),0,0,1
8:26.961   182506,(,0,0,2
8:27.100   182556,t,0,0,0
8:27.236   182605,),0,0,2
8:29.953   183583,(,0,0,0
8:29.972   183590,p,0,0,0
8:30.039   183614,),0,0,0
8:30.172   183662,(,0,0,1
8:30.283   183702,N,0,0,0
8:30.322   183716,),0,0,1
8:30.344   183724,(,0,0,2
8:30.492   183777,t,0,0,0
8:30.650   183834,),0,0,2
8:40.417   187350,(,0,0,0
8:40.469   187369,p,0,0,0
8:40.503   187381,),0,0,0
8:40.583   187410,(,0,0,1
8:40.656   187436,N,0,0,0
8:40.700   187452,),0,0,1
8:40.783   187482,(,0,0,2
8:40.814   187493,t,0,0,1
8:40.972   187550,),0,0,2
8:41.992   187917,(,0,0,0
8:42.072   187946,p,0,0,0
8:42.167   187980,),0,0,0
8:42.186   187987,(,0,0,1
8:42.267   188016,N,0,0,0
8:42.347   188045,),0,0,1
8:42.400   188064,(,0,0,2
8:42.475   188091,t,0,0,0
8:42.644   188152,),0,0,2
9:12.042   198735,(,0,0,0
9:12.067   198744,p,0,0,0
9:12.092   198753,),0,0,0
9:12.119   198763,(,0,0,1
9:12.203   198793,N,0,0,0
9:12.250   198810,),0,0,1
9:12.406   198866,(,0,0,2
9:12.456   198884,t,0,0,0
9:12.522   198908,),0,0,2
9:12.650   198954,(,0,0,0
9:12.683   198966,p,0,0,0
9:12.728   198982,),0,0,0
9:12.811   199012,(,0,0,1
9:12.886   199039,N,0,0,0
9:13.042   199095,),0,0,1
9:13.067   199104,(,0,0,2
9:13.139   199130,t,0,0,5
9:13.297   199187,t,0,0,5
9:13.328   199198,),0,0,2
9:13.364   199211,(,0,0,0
9:13.414   199229,p,0,0,0
9:13.442   199239,),0,0,0
9:13.533   199272,(,0,0,1
9:13.578   199288,N,0,0,0
9:13.625   199305,),0,0,1
9:13.750   199350,(,0,0,2
9:13.867   199392,t,0,0,0
9:13.983   199434,),0,0,2
9:14.236   199525,(,0,0,0
9:14.264   199535,p,0,0,0
9:14.283   199542,),0,0,0
9:14.303   199549,(,0,0,1
9:14.347   199565,N,0,0,0
9:14.381   199577,),0,0,1
9:14.428   199594,(,0,0,2
9:14.492   199617,t,0,0,5
9:14.528   199630,t,0,0,5
9:14.600   199656,),0,0,2
9:14.944   199780,(,0,0,0
9:15.008   199803,p,0,0,0
9:15.069   199825,),0,0,0
9:15.142   199851,(,0,0,1
9:15.186   199867,N,0,0,0
9:15.236   199885,),0,0,1
9:15.364   199931,(,0,0,2
9:15.469   199969,t,0,0,0
9:15.589   200012,),0,0,2
9:15.658   200037,(,0,0,0
9:15.719   200059,p,0,0,0
9:15.750   200070,),0,0,0
9:15.869   200113,(,0,0,1
9:15.914   200129,N,0,0,0
9:15.964   200147,),0,0,1
9:16.081   200189,(,0,0,2
9:16.206   200234,t,0,0,0
9:16.344   200284,),0,0,2
9:16.411   200308,(,0,0,0
9:16.486   200335,p,0,0,0
9:16.536   200353,),0,0,0
9:16.581   200369,(,0,0,1
9:16.617   200382,N,0,0,0
9:16.664   200399,),0,0,1
9:16.744   200428,(,0,0,2
9:16.867   200472,t,0,0,0
9:16.975   200511,),0,0,2
9:17.072   200546,(,0,0,0
9:17.117   200562,p,0,0,0
9:17.147   200573,),0,0,0
9:17.250   200610,(,0,0,1
9:17.289   200624,N,0,0,0
9:17.333   200640,),0,0,1
9:17.422   200672,(,0,0,2
9:17.556   200720,t,0,0,0
9:17.606   200738,),0,0,2
9:17.725   200781,(,0,0,0
9:17.764   200795,p,0,0,0
9:17.797   200807,),0,0,0
9:17.897   200843,(,0,0,1
9:17.956   200864,N,0,0,0
9:18.006   200882,),0,0,1
9:18.119   200923,(,0,0,2
9:18.186   200947,t,0,0,0
9:18.297   200987,),0,0,2
9:18.372   201014,(,0,0,0
9:18.403   201025,p,0,0,0
9:18.431   201035,),0,0,0
9:18.561   201082,(,0,0,1
9:18.603   201097,N,0,0,0
9:18.650   201114,),0,0,1
9:18.806   201170,(,0,0,2
9:18.881   201197,t,0,0,0
9:19.033   201252,),0,0,2
9:19.089   201272,(,0,0,0
9:19.142   201291,p,0,0,0
9:19.169   201301,),0,0,0
9:19.289   201344,(,0,0,1
9:19.331   201359,N,0,0,0
9:19.381   201377,),0,0,1
9:19.494   201418,(,0,0,2
9:19.614   201461,t,0,0,0
9:19.728   201502,),0,0,2
9:19.886   201559,(,0,0,0
9:19.964   201587,p,0,0,0
9:20.031   201611,),0,0,0
9:20.094   201634,(,0,0,1
9:20.142   201651,N,0,0,0
9:20.200   201672,),0,0,1
9:20.297   201707,(,0,0,2
9:20.433   201756,t,0,0,0
9:20.539   201794,),0,0,2
9:20.650   201834,(,0,0,0
9:20.681   201845,p,0,0,0
9:20.711   201856,),0,0,0
9:20.836   201901,(,0,0,1
9:20.883   201918,N,0,0,0
9:20.936   201937,),0,0,1
9:21.172   202022,(,0,0,2
9:21.197   202031,t,0,0,5
9:21.236   202045,t,0,0,5
9:21.253   202051,),0,0,2
9:21.344   202084,(,0,0,0
9:21.372   202094,p,0,0,0
9:21.428   202114,),0,0,0
9:21.539   202154,(,0,0,1
9:21.611   202180,N,0,0,0
9:21.722   202220,),0,0,1
9:21.753   202231,(,0,0,2
9:21.828   202258,t,0,0,5
9:21.953   202303,t,0,0,5
9:21.975   202311,),0,0,2
9:22.108   202359,(,0,0,0
9:22.153   202375,p,0,0,0
9:22.175   202383,),0,0,0
9:22.258   202413,(,0,0,1
9:22.322   202436,N,0,0,0
9:22.369   202453,),0,0,1
9:22.531   202511,(,0,0,2
9:22.592   202533,t,0,0,5
9:22.686   202567,t,0,0,5
9:22.722   202580,),0,0,2
9:23.606   202898,(,0,0,0
9:23.642   202911,p,0,0,0
9:23.675   202923,),0,0,0
9:23.731   202943,(,0,0,1
9:23.775   202959,N,0,0,0
9:23.822   202976,),0,0,1
9:24.086   203071,(,0,0,0
9:24.153   203095,p,0,0,0
9:24.208   203115,),0,0,0
9:24.242   203127,(,0,0,1
9:24.308   203151,N,0,0,0
9:24.358   203169,),0,0,1
9:24.422   203192,(,0,0,2
9:24.514   203225,t,0,0,0
9:24.656   203276,),0,0,2
9:24.914   203369,(,0,0,0
9:24.994   203398,p,0,0,0
9:25.069   203425,),0,0,0
9:25.122   203444,(,0,0,1
9:25.169   203461,N,0,0,0
9:25.239   203486,),0,0,1
9:25.372   203534,(,0,0,2
9:25.406   203546,t,0,0,1
9:25.475   203571,),0,0,2
9:25.547   203597,(,0,0,0
9:25.572   203606,p,0,0,0
9:25.619   203623,),0,0,0
9:25.656   203636,(,0,0,1
9:25.725   203661,N,0,0,0
9:25.808   203691,),0,0,1
9:25.844   203704,(,0,0,2
9:25.972   203750,t,0,0,0
9:26.094   203794,),0,0,2
9:26.383   203898,(,0,0,0
9:26.444   203920,p,0,0,0
9:26.506   203942,),0,0,0
9:26.544   203956,(,0,0,1
9:26.611   203980,N,0,0,0
9:26.703   204013,),0,0,1
9:26.883   204078,(,0,0,2
9:26.914   204089,t,0,0,5
9:26.947   204101,t,0,0,5
9:26.975   204111,),0,0,2
9:27.036   204133,(,0,0,0
9:27.086   204151,p,0,0,0
9:27.128   204166,),0,0,0
9:27.150   204174,(,0,0,1
9:27.189   204188,N,0,0,0
9:27.311   204232,),0,0,1
9:27.328   204238,(,0,0,2
9:27.425   204273,t,0,0,0
9:27.567   204324,),0,0,2
9:27.844   204424,(,0,0,0
9:27.903   204445,p,0,0,0
9:27.933   204456,),0,0,0
9:28.011   204484,(,0,0,1
9:28.100   204516,N,0,0,0
9:28.144   204532,),0,0,1
9:28.256   204572,(,0,0,2
9:28.336   204601,t,0,0,1
9:28.450   204642,),0,0,2
9:28.536   204673,(,0,0,0
9:28.575   204687,p,0,0,0
9:28.633   204708,),0,0,0
9:28.647   204713,(,0,0,1
9:28.719   204739,N,0,0,0
9:28.775   204759,),0,0,1
9:28.797   204767,(,0,0,2
9:28.928   204814,t,0,0,0
9:29.069   204865,),0,0,2
9:29.253   204931,(,0,0,0
9:29.283   204942,p,0,0,0
9:29.317   204954,),0,0,0
9:29.428   204994,(,0,0,1
9:29.472   205010,N,0,0,0
9:29.525   205029,),0,0,1
9:29.681   205085,(,0,0,2
9:29.714   205097,t,0,0,0
9:29.747   205109,),0,0,2
9:29.867   205152,(,0,0,1
9:29.956   205184,N,0,0,0
9:30.008   205203,),0,0,1
9:30.028   205210,(,0,0,2
9:30.161   205258,t,0,0,0
9:30.303   205309,),0,0,2
9:30.533   205392,(,0,0,0
9:30.572   205406,p,0,0,0
9:30.600   205416,),0,0,0
9:30.722   205460,(,0,0,1
9:30.769   205477,N,0,0,0
9:30.819   205495,),0,0,1
9:30.986   205555,t,0,0,2
9:31.108   205599,),0,0,2
9:31.197   205631,(,0,0,0
9:31.242   205647,p,0,0,0
9:31.289   205664,),0,0,0
9:31.311   205672,(,0,0,1
9:31.353   205687,N,0,0,0
9:31.464   205727,),0,0,1
9:31.497   205739,(,0,0,2
9:31.597   205775,t,0,0,0
9:31.764   205835,),0,0,2
9:32.011   205924,(,0,0,0
9:32.061   205942,p,0,0,0
9:32.100   205956,),0,0,0
9:32.211   205996,(,0,0,1
9:32.261   206014,N,0,0,0
9:32.322   206036,),0,0,1
9:32.394   206062,(,0,0,2
9:32.475   206091,t,0,0,0
9:32.525   206109,),0,0,2
9:32.661   206158,(,0,0,0
9:32.736   206185,p,0,0,0
9:32.789   206204,),0,0,0
9:32.808   206211,(,0,0,1
9:32.844   206224,N,0,0,0
9:32.950   206262,),0,0,1
9:32.969   206269,(,0,0,2
9:33.056   206300,t,0,0,0
9:33.206   206354,),0,0,2
9:33.414   206429,(,0,0,0
9:33.453   206443,p,0,0,0
9:33.489   206456,),0,0,0
9:33.600   206496,(,0,0,1
9:33.644   206512,N,0,0,0
9:33.689   206528,),0,0,1
9:33.981   206633,(,0,0,0
9:34.017   206646,p,0,0,0
9:34.092   206673,),0,0,0
9:34.119   206683,(,0,0,1
9:34.156   206696,N,0,0,0
9:34.272   206738,),0,0,1
9:34.311   206752,(,0,0,2
9:34.378   206776,t,0,0,0
9:34.528   206830,),0,0,2
9:34.736   206905,(,0,0,0
9:34.797   206927,p,0,0,0
9:34.853   206947,),0,0,0
9:34.892   206961,(,0,0,1
9:34.936   206977,N,0,0,0
9:34.992   206997,),0,0,1
9:35.083   207030,(,0,0,2
9:35.108   207039,t,0,0,1
9:35.225   207081,),0,0,2
9:35.297   207107,(,0,0,0
9:35.331   207119,p,0,0,0
9:35.392   207141,),0,0,0
9:35.414   207149,(,0,0,1
9:35.450   207162,N,0,0,0
9:35.550   207198,),0,0,1
9:35.594   207214,(,0,0,2
9:35.658   207237,t,0,0,0
9:35.803   207289,),0,0,2
9:36.031   207371,(,0,0,0
9:36.067   207384,p,0,0,0
9:36.100   207396,),0,0,0
9:36.219   207439,(,0,0,1
9:36.267   207456,N,0,0,0
9:36.314   207473,),0,0,1
9:36.519   207547,(,0,0,0
9:36.600   207576,p,0,0,0
9:36.697   207611,),0,0,0
9:36.722   207620,(,0,0,1
9:36.811   207652,N,0,0,0
9:36.903   207685,),0,0,1
9:36.942   207699,(,0,0,2
9:37.022   207728,t,0,0,0
9:37.189   207788,),0,0,2
9:37.350   207846,(,0,0,1
9:37.461   207886,N,0,0,0
9:37.506   207902,),0,0,1
9:37.594   207934,(,0,0,2
9:37.667   207960,t,0,0,1
9:37.806   208010,),0,0,2
9:38.108   208119,(,0,0,0
9:38.164   208139,p,0,0,0
9:38.219   208159,),0,0,0
9:38.269   208177,(,0,0,1
9:38.317   208194,N,0,0,0
9:38.361   208210,),0,0,1
9:38.461   208246,(,0,0,2
9:38.481   208253,t,0,0,4
9:38.625   208305,t,0,0,4
9:38.700   208332,),0,0,2
9:38.736   208345,(,0,0,0
9:38.775   208359,p,0,0,0
9:38.797   208367,),0,0,0
9:38.828   208378,(,0,0,1
9:38.925   208413,N,0,0,0
9:39.033   208452,),0,0,1
9:39.067   208464,(,0,0,2
9:39.161   208498,t,0,0,0
9:39.322   208556,),0,0,2
9:39.647   208673,(,0,0,0
9:39.664   208679,p,0,0,0
9:39.692   208689,),0,0,0
9:39.728   208702,(,0,0,1
9:39.806   208730,N,0,0,0
9:39.867   208752,),0,0,1
9:39.919   208771,(,0,0,2
9:39.950   208782,t,0,0,1
9:40.114   208841,),0,0,2
9:40.125   208845,(,0,0,0
9:40.197   208871,p,0,0,0
9:40.272   208898,),0,0,0
9:40.294   208906,(,0,0,1
9:40.331   208919,N,0,0,0
9:40.419   208951,),0,0,1
9:40.464   208967,(,0,0,2
9:40.536   208993,t,0,0,0
9:40.681   209045,),0,0,2
9:40.936   209137,(,0,0,0
9:40.967   209148,p,0,0,0
9:40.986   209155,),0,0,0
9:41.078   209188,(,0,0,1
9:41.144   209212,N,0,0,0
9:41.181   209225,),0,0,1
9:41.464   209327,(,0,0,0
9:41.517   209346,p,0,0,0
9:41.578   209368,),0,0,0
9:41.597   209375,(,0,0,1
9:41.633   209388,N,0,0,0
9:41.744   209428,),0,0,1
9:41.783   209442,(,0,0,2
9:41.822   209456,t,0,0,0
9:41.997   209519,),0,0,2
9:42.142   209571,(,0,0,0
9:42.164   209579,p,0,0,0
9:42.189   209588,),0,0,0
9:42.303   209629,(,0,0,1
9:42.367   209652,N,0,0,0
9:42.486   209695,),0,0,1
9:42.517   209706,(,0,0,2
9:42.558   209721,t,0,0,5
9:42.589   209732,t,0,0,5
9:42.661   209758,),0,0,2
9:42.669   209761,(,0,0,0
9:42.708   209775,p,0,0,0
9:42.731   209783,),0,0,0
9:42.831   209819,(,0,0,1
9:42.889   209840,N,0,0,0
9:42.981   209873,),0,0,1
9:43.019   209887,(,0,0,2
9:43.086   209911,t,0,0,0
9:43.242   209967,),0,0,2
9:43.550   210078,(,0,0,0
9:43.572   210086,p,0,0,0
9:43.606   210098,),0,0,0
9:43.733   210144,(,0,0,1
9:43.781   210161,N,0,0,0
9:43.833   210180,),0,0,1
9:44.169   210301,(,0,0,0
9:44.244   210328,p,0,0,0
9:44.294   210346,),0,0,0
9:44.319   210355,(,0,0,1
9:44.358   210369,N,0,0,0
9:44.489   210416,),0,0,1
9:44.528   210430,(,0,0,2
9:44.606   210458,t,0,0,5
9:44.792   210525,t,0,0,5
9:44.825   210537,),0,0,2
9:45.133   210648,(,0,0,0
9:45.164   210659,p,0,0,0
9:45.197   210671,),0,0,0
9:45.244   210688,(,0,0,1
9:45.286   210703,N,0,0,0
9:45.333   210720,),0,0,1
9:45.469   210769,(,0,0,2
9:45.497   210779,t,0,0,1
9:45.533   210792,),0,0,2
9:45.617   210822,(,0,0,0
9:45.700   210852,p,0,0,0
9:45.742   210867,),0,0,0
9:45.761   210874,(,0,0,1
9:45.800   210888,N,0,0,0
9:45.839   210902,),0,0,1
9:45.864   210911,(,0,0,2
9:46.019   210967,t,0,0,0
9:46.167   211020,),0,0,2
9:46.386   211099,(,0,0,0
9:46.417   211110,p,0,0,0
9:46.447   211121,),0,0,0
9:46.553   211159,(,0,0,1
9:46.592   211173,N,0,0,0
9:46.639   211190,),0,0,1
9:46.794   211246,(,0,0,2
9:46.817   211254,t,0,0,1
9:46.886   211279,),0,0,2
9:47.017   211326,(,0,0,1
9:47.108   211359,N,0,0,0
9:47.164   211379,),0,0,1
9:47.186   211387,(,0,0,2
9:47.319   211435,t,0,0,0
9:47.475   211491,),0,0,2
9:47.731   211583,(,0,0,0
9:47.767   211596,p,0,0,0
9:47.822   211616,),0,0,0
9:47.917   211650,(,0,0,1
9:47.961   211666,N,0,0,0
9:47.992   211677,),0,0,1
9:48.167   211740,(,0,0,2
9:48.208   211755,t,0,0,1
9:48.269   211777,),0,0,2
9:48.283   211782,(,0,0,0
9:48.350   211806,p,0,0,0
9:48.422   211832,),0,0,0
9:48.444   211840,(,0,0,1
9:48.483   211854,N,0,0,0
9:48.575   211887,),0,0,1
9:48.619   211903,(,0,0,2
9:48.694   211930,t,0,0,0
9:48.856   211988,),0,0,2
9:49.094   212074,(,0,0,0
9:49.125   212085,p,0,0,0
9:49.144   212092,),0,0,0
9:49.317   212154,(,0,0,1
9:49.375   212175,N,0,0,0
9:49.425   212193,),0,0,1
9:49.619   212263,(,0,0,2
9:49.703   212293,t,0,0,0
9:49.761   212314,),0,0,2
9:49.803   212329,(,0,0,0
9:49.833   212340,p,0,0,0
9:49.886   212359,),0,0,0
9:49.917   212370,(,0,0,1
9:49.997   212399,N,0,0,0
9:50.067   212424,),0,0,1
9:50.092   212433,(,0,0,2
9:50.247   212489,t,0,0,0
9:50.372   212534,),0,0,2
9:50.508   212583,(,0,0,0
9:50.556   212600,p,0,0,0
9:50.592   212613,),0,0,0
9:50.653   212635,(,0,0,1
9:50.719   212659,N,0,0,0
9:50.831   212699,),0,0,1
9:50.900   212724,(,0,0,2
9:50.994   212758,t,0,0,0
9:51.078   212788,),0,0,2
9:51.119   212803,(,0,0,0
9:51.153   212815,p,0,0,0
9:51.178   212824,),0,0,0
9:51.222   212840,(,0,0,1
9:51.303   212869,N,0,0,0
9:51.353   212887,),0,0,1
9:51.414   212909,(,0,0,2
9:51.503   212941,t,0,0,0
9:51.644   212992,),0,0,2
9:51.983   213114,(,0,0,0
9:52.022   213128,p,0,0,0
9:52.100   213156,),0,0,0
9:52.181   213185,(,0,0,1
9:52.231   213203,N,0,0,0
9:52.317   213234,),0,0,1
9:52.381   213257,(,0,0,2
9:52.408   213267,t,0,0,1
9:52.439   213278,),0,0,2
9:52.525   213309,(,0,0,0
9:52.553   213319,p,0,0,0
9:52.578   213328,),0,0,0
9:52.706   213374,(,0,0,1
9:52.747   213389,N,0,0,0
9:52.817   213414,),0,0,1
9:52.883   213438,(,0,0,2
9:52.956   213464,t,0,0,0
9:53.106   213518,),0,0,2
9:53.456   213644,(,0,0,0
9:53.475   213651,p,0,0,0
9:53.508   213663,),0,0,0
9:53.614   213701,(,0,0,1
9:53.653   213715,N,0,0,0
9:53.683   213726,),0,0,1
9:53.864   213791,(,0,0,0
9:53.883   213798,p,0,0,0
9:53.942   213819,),0,0,0
9:54.067   213864,(,0,0,1
9:54.178   213904,N,0,0,0
9:54.211   213916,),0,0,1
9:54.242   213927,(,0,0,2
9:54.328   213958,t,0,0,0
9:54.506   214022,),0,0,2
9:54.764   214115,(,0,0,0
9:54.786   214123,p,0,0,0
9:54.814   214133,),0,0,0
9:54.928   214174,(,0,0,1
9:54.986   214195,N,0,0,0
9:55.014   214205,),0,0,1
9:55.150   214254,(,0,0,2
9:55.183   214266,t,0,0,1
9:55.317   214314,),0,0,2
9:55.469   214369,(,0,0,1
9:55.564   214403,N,0,0,0
9:55.628   214426,),0,0,1
9:55.664   214439,(,0,0,2
9:55.789   214484,t,0,0,0
9:55.972   214550,),0,0,2
9:56.317   214674,(,0,0,0
9:56.372   214694,p,0,0,0
9:56.397   214703,),0,0,0
9:56.553   214759,(,0,0,1
9:56.611   214780,N,0,0,0
9:56.664   214799,),0,0,1
9:56.861   214870,(,0,0,2
9:56.886   214879,t,0,0,4
9:56.986   214915,t,0,0,4
9:57.014   214925,),0,0,2
9:57.044   214936,(,0,0,0
9:57.100   214956,p,0,0,0
9:57.106   214958,),0,0,0
9:57.153   214975,(,0,0,1
9:57.292   215025,N,0,0,0
9:57.353   215047,),0,0,1
9:57.411   215068,(,0,0,2
9:57.528   215110,t,0,0,0
9:57.694   215170,),0,0,2
9:57.847   215225,(,0,0,0
9:57.878   215236,p,0,0,0
9:57.931   215255,),0,0,0
9:58.042   215295,(,0,0,1
9:58.119   215323,N,0,0,0
9:58.211   215356,),0,0,1
9:58.333   215400,(,0,0,2
9:58.350   215406,t,0,0,1
9:58.381   215417,),0,0,2
9:58.469   215449,(,0,0,0
9:58.489   215456,p,0,0,0
9:58.514   215465,),0,0,0
9:58.553   215479,(,0,0,1
9:58.644   215512,N,0,0,0
9:58.692   215529,),0,0,1
9:58.719   215539,(,0,0,2
9:58.822   215576,t,0,0,0
9:58.975   215631,),0,0,2
9:59.269   215737,(,0,0,0
9:59.306   215750,p,0,0,0
9:59.331   215759,),0,0,0
9:59.414   215789,(,0,0,1
9:59.458   215805,N,0,0,0
9:59.508   215823,),0,0,1
9:59.706   215894,(,0,0,2
9:59.739   215906,t,0,0,0
9:59.772   215918,),0,0,2
9:59.825   215937,(,0,0,0
9:59.856   215948,p,0,0,0
9:59.883   215958,),0,0,0
9:59.903   215965,(,0,0,1
9:59.939   215978,N,0,0,0
   10:00.031   216011,),0,0,1
   10:00.092   216033,(,0,0,2
   10:00.133   216048,t,0,0,5
   10:00.319   216115,t,0,0,5
   10:00.356   216128,),0,0,2
   10:00.650   216234,(,0,0,0
   10:00.689   216248,p,0,0,0
   10:00.733   216264,),0,0,0
   10:00.767   216276,(,0,0,1
   10:00.833   216300,N,0,0,0
   10:00.886   216319,),0,0,1
   10:01.025   216369,(,0,0,2
   10:01.047   216377,t,0,0,4
   10:01.206   216434,t,0,0,4
   10:01.256   216452,),0,0,2
   10:01.292   216465,(,0,0,0
   10:01.322   216476,p,0,0,0
   10:01.422   216512,),0,0,0
   10:01.447   216521,(,0,0,1
   10:01.572   216566,N,0,0,0
   10:01.633   216588,),0,0,1
   10:01.650   216594,(,0,0,2
   10:01.764   216635,t,0,0,0
   10:01.956   216704,),0,0,2
   10:01.989   216716,(,0,0,0
   10:02.014   216725,p,0,0,0
   10:02.036   216733,),0,0,0
   10:02.114   216761,(,0,0,1
   10:02.250   216810,N,0,0,0
   10:02.347   216845,),0,0,1
   10:02.417   216870,(,0,0,2
   10:02.467   216888,t,0,0,1
   10:02.678   216964,),0,0,2
   10:02.936   217057,(,0,0,0
   10:02.978   217072,p,0,0,0
   10:03.011   217084,),0,0,0
   10:03.050   217098,(,0,0,1
   10:03.114   217121,N,0,0,0
   10:03.272   217178,),0,0,1
   10:03.308   217191,(,0,0,2
   10:03.331   217199,t,0,0,4
   10:03.361   217210,t,0,0,4
   10:03.411   217228,),0,0,2
   10:03.478   217252,(,0,0,1
   10:03.608   217299,N,0,0,0
   10:03.644   217312,),0,0,1
   10:03.678   217324,(,0,0,2
   10:03.714   217337,t,0,0,1
   10:03.775   217359,),0,0,2
   10:03.808   217371,(,0,0,0
   10:03.833   217380,p,0,0,0
   10:03.942   217419,),0,0,0
   10:03.972   217430,(,0,0,1
   10:04.067   217464,N,0,0,0
   10:04.133   217488,),0,0,1
   10:04.153   217495,(,0,0,2
   10:04.256   217532,t,0,0,1
   10:04.458   217605,),0,0,2
   10:05.072   217826,(,0,0,0
   10:05.100   217836,p,0,0,0
   10:05.131   217847,),0,0,0
   10:05.197   217871,(,0,0,1
   10:05.264   217895,N,0,0,0
   10:05.378   217936,),0,0,1
   10:05.503   217981,(,0,0,2
   10:05.556   218000,t,0,0,0
   10:05.589   218012,),0,0,2
   10:05.689   218048,(,0,0,1
   10:05.811   218092,N,0,0,0
   10:05.906   218126,),0,0,1
   10:05.958   218145,(,0,0,2
   10:06.031   218171,t,0,0,0
   10:06.161   218218,),0,0,2
   10:06.303   218269,(,0,0,0
   10:06.364   218291,p,0,0,0
   10:06.389   218300,),0,0,0
   10:06.561   218362,(,0,0,1
   10:06.608   218379,N,0,0,0
   10:06.656   218396,),0,0,1
   10:06.819   218455,(,0,0,2
   10:06.872   218474,t,0,0,1
   10:06.922   218492,),0,0,2
   10:07.047   218537,(,0,0,0
   10:07.072   218546,p,0,0,0
   10:07.106   218558,),0,0,0
   10:07.261   218614,(,0,0,1
   10:07.303   218629,N,0,0,0
   10:07.353   218647,),0,0,1
   10:07.472   218690,(,0,0,2
   10:07.500   218700,t,0,0,0
   10:07.522   218708,),0,0,2
   10:07.767   218796,(,0,0,0
   10:07.828   218818,p,0,0,0
   10:07.881   218837,),0,0,0
   10:07.925   218853,(,0,0,1
   10:08.000   218880,N,0,0,0
   10:08.058   218901,),0,0,1
   10:08.111   218920,(,0,0,2
   10:08.153   218935,t,0,0,4
   10:08.319   218995,t,0,0,4
   10:08.358   219009,),0,0,2
   10:08.500   219060,(,0,0,0
   10:08.583   219090,p,0,0,0
   10:08.664   219119,),0,0,0
   10:08.717   219138,(,0,0,1
   10:08.769   219157,N,0,0,0
   10:08.822   219176,),0,0,1
   10:08.956   219224,(,0,0,2
   10:09.094   219274,t,0,0,0
   10:09.133   219288,),0,0,2
   10:09.200   219312,(,0,0,0
   10:09.239   219326,p,0,0,0
   10:09.297   219347,),0,0,0
   10:09.314   219353,(,0,0,1
   10:09.375   219375,N,0,0,0
   10:09.483   219414,),0,0,1
   10:09.522   219428,(,0,0,2
   10:09.592   219453,t,0,0,5
   10:09.744   219508,t,0,0,5
   10:09.767   219516,),0,0,2
   10:10.028   219610,(,0,0,0
   10:10.047   219617,p,0,0,0
   10:10.072   219626,),0,0,0
   10:10.117   219642,(,0,0,1
   10:10.228   219682,N,0,0,0
   10:10.256   219692,),0,0,1
   10:10.353   219727,(,0,0,2
   10:10.381   219737,t,0,0,1
   10:10.406   219746,),0,0,2
   10:10.486   219775,(,0,0,0
   10:10.503   219781,p,0,0,0
   10:10.528   219790,),0,0,0
   10:10.650   219834,(,0,0,1
   10:10.733   219864,N,0,0,0
   10:10.819   219895,),0,0,1
   10:10.872   219914,(,0,0,0
   10:10.925   219933,p,0,0,0
   10:11.008   219963,),0,0,0
   10:11.028   219970,(,0,0,1
   10:11.103   219997,N,0,0,0
   10:11.236   220045,(,0,0,0
   10:11.244   220048,),0,0,1
   10:11.286   220063,p,0,0,0
   10:11.356   220088,),0,0,0
   10:11.422   220112,(,0,0,1
   10:11.483   220134,N,0,0,0
   10:11.508   220143,),0,0,1
   10:11.617   220182,(,0,0,2
   10:11.658   220197,t,0,0,0
   10:11.703   220213,),0,0,2
   10:11.731   220223,(,0,0,0
   10:11.753   220231,p,0,0,0
   10:11.808   220251,),0,0,0
   10:11.844   220264,(,0,0,1
   10:11.969   220309,N,0,0,0
   10:12.072   220346,),0,0,1
   10:12.122   220364,(,0,0,2
   10:12.175   220383,t,0,0,0
   10:12.350   220446,),0,0,2
   10:12.653   220555,(,0,0,0
   10:12.678   220564,p,0,0,0
   10:12.703   220573,),0,0,0
   10:12.836   220621,(,0,0,1
   10:12.881   220637,N,0,0,0
   10:12.936   220657,),0,0,1
   10:13.103   220717,(,0,0,2
   10:13.128   220726,t,0,0,5
   10:13.161   220738,t,0,0,5
   10:13.247   220769,),0,0,2
   10:13.386   220819,(,0,0,1
   10:13.458   220845,N,0,0,0
   10:13.511   220864,),0,0,1
   10:13.533   220872,(,0,0,2
   10:13.622   220904,t,0,0,0
   10:13.803   220969,),0,0,2
   10:14.150   221094,(,0,0,0
