Elapsedtime,sample,Type,Sub,Chan,Num
0:00.200, 72,(,0,0,0
0:00.236, 85,p,0,0,0
0:00.269, 97,),0,0,0
0:00.383,138,(,0,0,1
0:00.439,158,N,0,0,0
0:00.469,169,),0,0,1
0:00.556,200,(,0,0,2
0:00.633,228,t,0,0,0
0:00.714,257,),0,0,2
0:00.989,356,(,0,0,0
0:01.014,365,p,0,0,0
0:01.047,377,),0,0,0
0:01.072,386,(,0,0,1
0:01.150,414,N,0,0,0
0:01.194,430,),0,0,1
0:01.256,452,(,0,0,2
0:01.381,497,t,0,0,0
0:01.450,522,),0,0,2
0:01.850,666,(,0,0,1
0:01.906,686,N,0,0,0
0:01.947,701,),0,0,1
0:02.100,756,(,0,0,2
0:02.147,773,t,0,0,5
0:02.267,816,t,0,0,5
0:02.303,829,),0,0,2
0:02.450,882,(,0,0,1
0:02.511,904,N,0,0,0
0:02.544,916,),0,0,1
0:02.764,995,(,0,0,2
0:02.819,1015,t,0,0,1
0:02.861,1030,),0,0,2
0:03.092,1113,(,0,0,0
0:03.136,1129,p,0,0,0
0:03.178,1144,),0,0,0
0:03.244,1168,(,0,0,1
0:03.300,1188,N,0,0,0
0:03.344,1204,),0,0,1
0:03.511,1264,(,0,0,2
0:03.556,1280,t,0,0,5
0:03.642,1311,t,0,0,5
0:03.678,1324,),0,0,2
0:03.900,1404,(,0,0,1
0:03.947,1421,N,0,0,0
0:03.978,1432,),0,0,1
0:04.275,1539,(,0,0,0
0:04.325,1557,p,0,0,0
0:04.428,1594,),0,0,0
0:04.447,1601,(,0,0,1
0:04.500,1620,N,0,0,0
0:04.533,1632,),0,0,1
0:04.631,1667,(,0,0,2
0:04.733,1704,t,0,0,0
0:04.800,1728,),0,0,2
0:05.200,1872,(,0,0,0
0:05.264,1895,p,0,0,0
0:05.378,1936,),0,0,0
0:05.394,1942,(,0,0,1
0:05.458,1965,N,0,0,0
0:05.497,1979,),0,0,1
0:05.583,2010,(,0,0,2
0:05.778,2080,t,0,0,0
0:05.889,2120,),0,0,2
0:06.003,2161,(,0,0,0
0:06.042,2175,p,0,0,0
0:06.097,2195,),0,0,0
0:06.158,2217,(,0,0,1
0:06.211,2236,N,0,0,0
0:06.253,2251,),0,0,1
0:06.361,2290,(,0,0,2
0:06.439,2318,t,0,0,0
0:06.533,2352,),0,0,2
0:06.775,2439,(,0,0,0
0:06.814,2453,p,0,0,0
0:06.856,2468,),0,0,0
0:06.869,2473,(,0,0,1
0:06.931,2495,N,0,0,0
0:06.961,2506,),0,0,1
0:07.083,2550,(,0,0,2
0:07.150,2574,t,0,0,5
0:07.236,2605,t,0,0,5
0:07.283,2622,),0,0,2
0:07.314,2633,(,0,0,0
0:07.414,2669,p,0,0,0
0:07.444,2680,),0,0,0
0:07.503,2701,(,0,0,1
0:07.556,2720,N,0,0,0
0:07.594,2734,),0,0,1
0:07.725,2781,(,0,0,2
0:07.781,2801,t,0,0,5
0:07.925,2853,t,0,0,5
0:07.964,2867,),0,0,2
0:08.128,2926,(,0,0,1
0:08.208,2955,N,0,0,0
0:08.250,2970,),0,0,1
0:08.367,3012,(,0,0,2
0:08.439,3038,t,0,0,5
0:08.497,3059,t,0,0,5
0:08.522,3068,),0,0,2
0:08.642,3111,(,0,0,0
0:08.678,3124,p,0,0,0
0:08.717,3138,),0,0,0
0:08.822,3176,(,0,0,1
0:08.878,3196,N,0,0,0
0:09.058,3261,),0,0,1
0:09.133,3288,(,0,0,2
0:09.261,3334,t,0,0,1
0:09.300,3348,),0,0,2
0:09.578,3448,(,0,0,1
0:09.639,3470,N,0,0,0
0:09.814,3533,),0,0,1
0:09.892,3561,(,0,0,2
0:10.036,3613,t,0,0,1
0:10.100,3636,),0,0,2
0:10.286,3703,(,0,0,0
0:10.353,3727,p,0,0,0
0:10.436,3757,),0,0,0
0:10.494,3778,(,0,0,1
0:10.550,3798,N,0,0,0
0:10.592,3813,),0,0,1
0:10.708,3855,(,0,0,2
0:10.811,3892,t,0,0,5
0:10.950,3942,t,0,0,5
0:10.997,3959,),0,0,2
0:11.081,3989,(,0,0,0
0:11.125,4005,p,0,0,0
0:11.156,4016,),0,0,0
0:11.358,4089,(,0,0,1
0:11.414,4109,N,0,0,0
0:11.442,4119,),0,0,1
0:11.608,4179,(,0,0,2
0:11.656,4196,t,0,0,5
0:11.825,4257,t,0,0,5
0:11.856,4268,),0,0,2
0:11.911,4288,(,0,0,0
0:11.936,4297,p,0,0,0
0:11.994,4318,),0,0,0
0:12.011,4324,(,0,0,1
0:12.089,4352,N,0,0,0
0:12.119,4363,),0,0,1
0:12.250,4410,(,0,0,2
0:12.322,4436,t,0,0,0
0:12.400,4464,),0,0,2
0:12.675,4563,(,0,0,1
0:12.750,4590,N,0,0,0
0:12.792,4605,),0,0,1
0:12.883,4638,(,0,0,2
0:12.975,4671,t,0,0,0
0:13.050,4698,),0,0,2
0:13.381,4817,(,0,0,1
0:13.461,4846,N,0,0,0
0:13.492,4857,),0,0,1
0:13.644,4912,(,0,0,2
0:13.689,4928,t,0,0,0
0:13.742,4947,),0,0,2
0:13.800,4968,(,0,0,1
0:13.856,4988,N,0,0,0
0:13.889,5000,),0,0,1
0:14.019,5047,(,0,0,2
0:14.106,5078,t,0,0,0
0:14.181,5105,),0,0,2
0:14.269,5137,(,0,0,0
0:14.297,5147,p,0,0,0
0:14.347,5165,),0,0,0
0:14.428,5194,(,0,0,1
0:14.500,5220,N,0,0,0
0:14.531,5231,),0,0,1
0:14.619,5263,(,0,0,2
0:14.708,5295,t,0,0,0
0:14.789,5324,),0,0,2
0:14.978,5392,(,0,0,0
0:15.008,5403,p,0,0,0
0:15.050,5418,),0,0,0
0:15.158,5457,(,0,0,1
0:15.214,5477,N,0,0,0
0:15.256,5492,),0,0,1
0:15.347,5525,(,0,0,2
0:15.453,5563,t,0,0,0
0:15.519,5587,),0,0,2
0:15.731,5663,(,0,0,1
0:15.797,5687,N,0,0,0
0:15.839,5702,),0,0,1
0:16.392,5901,(,0,0,1
0:16.439,5918,N,0,0,0
0:16.472,5930,),0,0,1
0:16.625,5985,(,0,0,2
0:16.694,6010,t,0,0,0
0:16.772,6038,),0,0,2
0:16.900,6084,(,0,0,1
0:16.950,6102,N,0,0,0
0:16.981,6113,),0,0,1
0:17.106,6158,(,0,0,2
0:17.189,6188,t,0,0,0
0:17.256,6212,),0,0,2
0:17.492,6297,(,0,0,0
0:17.544,6316,p,0,0,0
0:17.608,6339,),0,0,0
0:17.669,6361,(,0,0,1
0:17.750,6390,N,0,0,0
0:17.792,6405,),0,0,1
0:17.944,6460,(,0,0,2
0:18.003,6481,t,0,0,0
0:18.072,6506,),0,0,2
0:18.342,6603,(,0,0,1
0:18.433,6636,N,0,0,0
0:18.472,6650,),0,0,1
0:18.558,6681,(,0,0,2
0:18.653,6715,t,0,0,0
0:18.733,6744,),0,0,2
0:18.939,6818,(,0,0,1
0:18.989,6836,N,0,0,0
0:19.017,6846,),0,0,1
0:19.161,6898,(,0,0,2
0:19.208,6915,t,0,0,5
0:19.286,6943,t,0,0,5
0:19.336,6961,),0,0,2
0:19.581,7049,(,0,0,1
0:19.636,7069,N,0,0,0
0:19.667,7080,),0,0,1
0:19.806,7130,(,0,0,2
0:19.878,7156,t,0,0,5
0:19.969,7189,t,0,0,5
0:20.022,7208,),0,0,2
0:20.103,7237,(,0,0,0
0:20.150,7254,p,0,0,0
0:20.208,7275,),0,0,0
0:20.283,7302,(,0,0,1
0:20.342,7323,N,0,0,0
0:20.383,7338,),0,0,1
0:20.464,7367,(,0,0,2
0:20.594,7414,t,0,0,5
0:20.669,7441,t,0,0,5
0:20.703,7453,),0,0,2
0:21.092,7593,(,0,0,1
0:21.147,7613,N,0,0,0
0:21.178,7624,),0,0,1
0:21.364,7691,(,0,0,2
0:21.406,7706,t,0,0,0
0:21.500,7740,),0,0,2
0:21.503,7741,(,0,0,0
0:21.550,7758,p,0,0,0
0:21.606,7778,),0,0,0
0:21.664,7799,(,0,0,1
0:21.717,7818,N,0,0,0
0:21.750,7830,),0,0,1
0:21.897,7883,(,0,0,2
0:21.967,7908,t,0,0,5
0:22.061,7942,t,0,0,5
0:22.100,7956,),0,0,2
0:22.161,7978,(,0,0,0
0:22.258,8013,p,0,0,0
0:22.300,8028,),0,0,0
0:22.364,8051,(,0,0,1
0:22.417,8070,N,0,0,0
0:22.458,8085,),0,0,1
0:22.592,8133,(,0,0,2
0:22.675,8163,t,0,0,0
0:22.764,8195,),0,0,2
0:23.014,8285,(,0,0,1
0:23.064,8303,N,0,0,0
0:23.103,8317,),0,0,1
0:23.211,8356,(,0,0,2
0:23.292,8385,t,0,0,0
0:23.369,8413,),0,0,2
0:23.589,8492,(,0,0,1
0:23.650,8514,N,0,0,0
0:23.681,8525,),0,0,1
0:23.803,8569,(,0,0,2
0:23.867,8592,t,0,0,0
0:23.933,8616,),0,0,2
0:24.008,8643,(,0,0,1
0:24.072,8666,N,0,0,0
0:24.272,8738,),0,0,1
0:24.306,8750,(,0,0,2
0:24.406,8786,t,0,0,1
0:24.439,8798,),0,0,2
0:24.564,8843,(,0,0,0
0:24.583,8850,p,0,0,0
0:24.622,8864,),0,0,0
0:24.731,8903,(,0,0,1
0:24.781,8921,N,0,0,0
0:24.822,8936,),0,0,1
0:24.931,8975,(,0,0,2
0:25.011,9004,t,0,0,0
0:25.081,9029,),0,0,2
0:25.111,9040,(,0,0,0
0:25.147,9053,p,0,0,0
0:25.189,9068,),0,0,0
0:25.272,9098,(,0,0,1
0:25.322,9116,N,0,0,0
0:25.361,9130,),0,0,1
0:25.494,9178,(,0,0,2
0:25.544,9196,t,0,0,0
0:25.636,9229,),0,0,2
0:25.819,9295,(,0,0,0
0:25.844,9304,p,0,0,0
0:25.878,9316,),0,0,0
0:25.914,9329,(,0,0,1
0:25.967,9348,N,0,0,0
0:26.000,9360,),0,0,1
0:26.089,9392,(,0,0,2
0:26.125,9405,t,0,0,4
0:26.231,9443,t,0,0,4
0:26.319,9475,),0,0,2
0:26.558,9561,(,0,0,0
0:26.589,9572,p,0,0,0
0:26.656,9596,),0,0,0
0:26.725,9621,(,0,0,1
0:26.783,9642,N,0,0,0
0:26.814,9653,),0,0,1
0:26.881,9677,(,0,0,2
0:26.983,9714,t,0,0,0
0:27.150,9774,),0,0,2
0:27.725,9981,(,0,0,1
0:27.797,10007,N,0,0,0
0:27.844,10024,),0,0,1
0:27.986,10075,(,0,0,2
0:28.072,10106,t,0,0,0
0:28.172,10142,),0,0,2
0:28.306,10190,(,0,0,0
0:28.350,10206,p,0,0,0
0:28.383,10218,),0,0,0
0:28.458,10245,(,0,0,1
0:28.517,10266,N,0,0,0
0:28.675,10323,),0,0,1
0:28.725,10341,(,0,0,2
0:28.764,10355,t,0,0,0
0:28.864,10391,),0,0,2
0:28.975,10431,(,0,0,0
0:29.072,10466,p,0,0,0
0:29.125,10485,),0,0,0
0:29.167,10500,(,0,0,1
0:29.222,10520,N,0,0,0
0:29.319,10555,),0,0,1
0:29.381,10577,(,0,0,2
0:29.478,10612,t,0,0,5
0:29.606,10658,t,0,0,5
0:29.653,10675,),0,0,2
0:29.706,10694,(,0,0,0
0:29.744,10708,p,0,0,0
0:29.806,10730,),0,0,0
0:29.872,10754,(,0,0,1
0:29.917,10770,N,0,0,0
0:29.961,10786,),0,0,1
0:30.100,10836,(,0,0,2
0:30.153,10855,t,0,0,0
0:30.250,10890,),0,0,2
0:30.419,10951,(,0,0,0
0:30.458,10965,p,0,0,0
0:30.531,10991,),0,0,0
0:30.600,11016,(,0,0,1
0:30.672,11042,N,0,0,0
0:30.703,11053,),0,0,1
0:30.775,11079,(,0,0,2
0:30.897,11123,t,0,0,0
0:30.956,11144,),0,0,2
0:31.236,11245,(,0,0,0
0:31.269,11257,p,0,0,0
0:31.297,11267,),0,0,0
0:31.306,11270,(,0,0,1
0:31.386,11299,N,0,0,0
0:31.417,11310,),0,0,1
0:31.522,11348,(,0,0,2
0:31.606,11378,t,0,0,0
0:31.669,11401,),0,0,2
0:31.736,11425,(,0,0,0
0:31.761,11434,p,0,0,0
0:31.797,11447,),0,0,0
0:31.811,11452,(,0,0,1
0:31.872,11474,N,0,0,0
0:31.903,11485,),0,0,1
0:32.011,11524,(,0,0,2
0:32.103,11557,t,0,0,0
0:32.169,11581,),0,0,2
0:32.503,11701,(,0,0,0
0:32.536,11713,p,0,0,0
0:32.606,11738,),0,0,0
0:32.667,11760,(,0,0,1
0:32.778,11800,N,0,0,0
0:32.808,11811,),0,0,1
0:32.981,11873,(,0,0,2
0:33.047,11897,t,0,0,0
0:33.108,11919,),0,0,2
0:33.150,11934,(,0,0,0
0:33.189,11948,p,0,0,0
0:33.256,11972,),0,0,0
0:33.292,11985,(,0,0,1
0:33.353,12007,N,0,0,0
0:33.525,12069,),0,0,1
0:33.583,12090,(,0,0,2
0:33.692,12129,t,0,0,1
0:33.783,12162,),0,0,2
0:33.922,12212,(,0,0,1
0:34.033,12252,N,0,0,0
0:34.064,12263,),0,0,1
0:34.239,12326,(,0,0,2
0:34.297,12347,t,0,0,0
0:34.372,12374,),0,0,2
0:34.539,12434,(,0,0,1
0:34.594,12454,N,0,0,0
0:34.633,12468,),0,0,1
0:35.019,12607,(,0,0,0
0:35.050,12618,p,0,0,0
0:35.153,12655,),0,0,0
0:35.192,12669,(,0,0,1
0:35.247,12689,N,0,0,0
0:35.281,12701,),0,0,1
0:35.383,12738,(,0,0,2
0:35.464,12767,t,0,0,0
0:35.544,12796,),0,0,2
0:35.608,12819,(,0,0,0
0:35.722,12860,p,0,0,0
0:35.764,12875,),0,0,0
0:35.853,12907,(,0,0,1
0:35.911,12928,N,0,0,0
0:35.942,12939,),0,0,1
0:36.503,13141,(,0,0,0
0:36.589,13172,p,0,0,0
0:36.639,13190,),0,0,0
0:36.675,13203,(,0,0,1
0:36.725,13221,N,0,0,0
0:36.775,13239,),0,0,1
0:36.911,13288,(,0,0,2
0:36.978,13312,t,0,0,5
0:37.056,13340,t,0,0,5
0:37.106,13358,),0,0,2
0:37.464,13487,(,0,0,0
0:37.500,13500,p,0,0,0
0:37.544,13516,),0,0,0
0:37.572,13526,(,0,0,1
0:37.639,13550,N,0,0,0
0:37.678,13564,),0,0,1
0:37.817,13614,(,0,0,2
0:37.881,13637,t,0,0,5
0:37.953,13663,t,0,0,5
0:38.000,13680,),0,0,2
0:38.117,13722,(,0,0,0
0:38.156,13736,p,0,0,0
0:38.228,13762,),0,0,0
0:38.258,13773,(,0,0,1
0:38.333,13800,N,0,0,0
0:38.364,13811,),0,0,1
0:38.444,13840,(,0,0,2
0:38.578,13888,t,0,0,0
0:38.728,13942,),0,0,2
0:38.756,13952,(,0,0,0
0:38.814,13973,p,0,0,0
0:38.861,13990,),0,0,0
0:38.878,13996,(,0,0,1
0:38.947,14021,N,0,0,0
0:38.975,14031,),0,0,1
0:39.117,14082,(,0,0,2
0:39.178,14104,t,0,0,5
0:39.281,14141,t,0,0,5
0:39.336,14161,),0,0,2
0:39.556,14240,(,0,0,0
0:39.631,14267,p,0,0,0
0:39.711,14296,),0,0,0
0:39.792,14325,(,0,0,1
0:39.856,14348,N,0,0,0
0:39.886,14359,),0,0,1
0:39.953,14383,(,0,0,2
0:40.139,14450,t,0,0,0
0:40.214,14477,),0,0,2
0:40.356,14528,(,0,0,0
0:40.486,14575,p,0,0,0
0:40.522,14588,),0,0,0
0:40.542,14595,(,0,0,1
0:40.597,14615,N,0,0,0
0:40.628,14626,),0,0,1
0:40.761,14674,(,0,0,2
0:40.842,14703,t,0,0,0
0:40.919,14731,),0,0,2
0:41.128,14806,(,0,0,0
0:41.178,14824,p,0,0,0
0:41.217,14838,),0,0,0
0:41.239,14846,(,0,0,1
0:41.292,14865,N,0,0,0
0:41.422,14912,),0,0,1
0:41.450,14922,(,0,0,2
0:41.525,14949,t,0,0,0
0:41.600,14976,),0,0,2
0:41.658,14997,(,0,0,1
0:41.703,15013,N,0,0,0
0:41.733,15024,),0,0,1
0:41.864,15071,(,0,0,2
0:41.931,15095,t,0,0,0
0:42.003,15121,),0,0,2
0:42.139,15170,(,0,0,0
0:42.194,15190,p,0,0,0
0:42.239,15206,),0,0,0
0:42.286,15223,(,0,0,1
0:42.336,15241,N,0,0,0
0:42.417,15270,),0,0,1
0:42.542,15315,(,0,0,2
0:42.594,15334,t,0,0,0
0:42.675,15363,),0,0,2
0:42.700,15372,(,0,0,0
0:42.756,15392,p,0,0,0
0:42.828,15418,),0,0,0
0:42.897,15443,(,0,0,1
0:42.969,15469,N,0,0,0
0:43.081,15509,),0,0,1
0:43.114,15521,(,0,0,2
0:43.211,15556,t,0,0,5
0:43.331,15599,t,0,0,5
0:43.364,15611,),0,0,2
0:43.539,15674,(,0,0,1
0:43.586,15691,N,0,0,0
0:43.628,15706,),0,0,1
0:43.733,15744,(,0,0,2
0:43.819,15775,t,0,0,5
0:43.894,15802,t,0,0,5
0:43.944,15820,),0,0,2
0:44.061,15862,(,0,0,1
0:44.150,15894,N,0,0,0
0:44.189,15908,),0,0,1
0:44.333,15960,(,0,0,2
0:44.400,15984,t,0,0,0
0:44.478,16012,),0,0,2
0:44.800,16128,(,0,0,1
0:44.861,16150,N,0,0,0
0:44.894,16162,),0,0,1
0:44.961,16186,(,0,0,2
0:45.108,16239,t,0,0,0
0:45.175,16263,),0,0,2
0:45.261,16294,(,0,0,0
0:45.289,16304,p,0,0,0
0:45.400,16344,),0,0,0
0:45.517,16386,(,0,0,1
0:45.575,16407,N,0,0,0
0:45.606,16418,),0,0,1
0:45.775,16479,(,0,0,2
0:45.814,16493,t,0,0,0
0:45.892,16521,),0,0,2
0:45.950,16542,(,0,0,1
0:46.022,16568,N,0,0,0
0:46.056,16580,),0,0,1
0:46.197,16631,(,0,0,2
0:46.283,16662,t,0,0,0
0:46.369,16693,),0,0,2
0:46.469,16729,(,0,0,0
0:46.544,16756,p,0,0,0
0:46.625,16785,),0,0,0
0:46.633,16788,(,0,0,1
0:46.700,16812,N,0,0,0
0:46.806,16850,),0,0,1
0:46.886,16879,(,0,0,2
0:46.917,16890,t,0,0,4
0:46.972,16910,t,0,0,4
0:47.106,16958,),0,0,2
0:47.125,16965,(,0,0,0
0:47.167,16980,p,0,0,0
0:47.239,17006,),0,0,0
0:47.261,17014,(,0,0,1
0:47.336,17041,N,0,0,0
0:47.369,17053,),0,0,1
0:47.453,17083,(,0,0,2
0:47.531,17111,t,0,0,0
0:47.619,17143,),0,0,2
0:47.644,17152,(,0,0,0
0:47.675,17163,p,0,0,0
0:47.758,17193,),0,0,0
0:47.914,17249,(,0,0,1
0:47.975,17271,N,0,0,0
0:48.003,17281,),0,0,1
0:48.147,17333,(,0,0,0
0:48.214,17357,p,0,0,0
0:48.258,17373,),0,0,0
0:48.350,17406,(,0,0,1
0:48.400,17424,N,0,0,0
0:48.431,17435,),0,0,1
0:48.625,17505,(,0,0,2
0:48.661,17518,t,0,0,4
0:48.733,17544,t,0,0,4
0:48.817,17574,),0,0,2
0:49.164,17699,(,0,0,0
0:49.200,17712,p,0,0,0
0:49.258,17733,),0,0,0
0:49.286,17743,(,0,0,1
0:49.372,17774,N,0,0,0
0:49.403,17785,),0,0,1
0:49.508,17823,(,0,0,2
0:49.611,17860,t,0,0,0
0:49.661,17878,),0,0,2
0:49.681,17885,(,0,0,0
0:49.742,17907,p,0,0,0
0:49.811,17932,),0,0,0
0:49.828,17938,(,0,0,1
0:49.881,17957,N,0,0,0
0:50.056,18020,),0,0,1
0:50.119,18043,(,0,0,2
0:50.178,18064,t,0,0,4
0:50.222,18080,t,0,0,4
0:50.289,18104,),0,0,2
0:50.664,18239,(,0,0,1
0:50.722,18260,N,0,0,0
0:50.772,18278,),0,0,1
0:50.892,18321,t,0,0,2
0:50.983,18354,),0,0,2
0:51.089,18392,(,0,0,1
0:51.189,18428,N,0,0,0
0:51.222,18440,),0,0,1
0:51.394,18502,(,0,0,2
0:51.439,18518,t,0,0,5
0:51.511,18544,t,0,0,5
0:51.589,18572,),0,0,2
0:51.622,18584,(,0,0,0
0:51.708,18615,p,0,0,0
0:51.772,18638,),0,0,0
0:51.833,18660,(,0,0,1
0:51.889,18680,N,0,0,0
0:51.922,18692,),0,0,1
0:52.100,18756,(,0,0,2
0:52.167,18780,t,0,0,0
0:52.244,18808,),0,0,2
0:52.344,18844,(,0,0,0
0:52.414,18869,p,0,0,0
0:52.461,18886,),0,0,0
0:52.514,18905,(,0,0,1
0:52.567,18924,N,0,0,0
0:52.594,18934,),0,0,1
0:52.669,18961,(,0,0,2
0:52.708,18975,t,0,0,1
0:52.800,19008,),0,0,2
0:52.911,19048,(,0,0,1
0:52.983,19074,N,0,0,0
0:53.017,19086,),0,0,1
0:53.544,19276,(,0,0,1
0:53.608,19299,N,0,0,0
0:53.639,19310,),0,0,1
0:53.739,19346,(,0,0,2
0:53.844,19384,t,0,0,5
0:53.911,19408,t,0,0,5
0:53.967,19428,),0,0,2
0:54.183,19506,(,0,0,0
0:54.244,19528,p,0,0,0
0:54.319,19555,),0,0,0
0:54.369,19573,(,0,0,1
0:54.419,19591,N,0,0,0
0:54.450,19602,),0,0,1
0:54.611,19660,(,0,0,2
0:54.669,19681,t,0,0,0
0:54.742,19707,),0,0,2
0:55.019,19807,(,0,0,1
0:55.067,19824,N,0,0,0
0:55.106,19838,),0,0,1
0:55.200,19872,(,0,0,2
0:55.292,19905,t,0,0,5
0:55.367,19932,t,0,0,5
0:55.436,19957,),0,0,2
0:55.453,19963,(,0,0,0
0:55.533,19992,p,0,0,0
0:55.583,20010,),0,0,0
0:55.642,20031,(,0,0,1
0:55.694,20050,N,0,0,0
0:55.722,20060,),0,0,1
0:55.819,20095,(,0,0,2
0:55.925,20133,t,0,0,0
0:55.986,20155,),0,0,2
0:56.242,20247,(,0,0,1
0:56.308,20271,N,0,0,0
0:56.339,20282,),0,0,1
0:56.444,20320,(,0,0,2
0:56.539,20354,t,0,0,0
0:56.611,20380,),0,0,2
0:57.006,20522,(,0,0,0
0:57.036,20533,p,0,0,0
0:57.069,20545,),0,0,0
0:57.114,20561,(,0,0,1
0:57.175,20583,N,0,0,0
0:57.219,20599,),0,0,1
0:57.358,20649,(,0,0,2
0:57.425,20673,t,0,0,0
0:57.517,20706,),0,0,2
0:57.836,20821,(,0,0,0
0:57.906,20846,p,0,0,0
0:58.000,20880,),0,0,0
0:58.019,20887,(,0,0,1
0:58.072,20906,N,0,0,0
0:58.117,20922,),0,0,1
0:58.203,20953,(,0,0,2
0:58.308,20991,t,0,0,0
0:58.386,21019,),0,0,2
0:58.586,21091,(,0,0,0
0:58.619,21103,p,0,0,0
0:58.689,21128,),0,0,0
0:58.725,21141,(,0,0,1
0:58.794,21166,N,0,0,0
0:58.947,21221,),0,0,1
0:59.039,21254,(,0,0,2
0:59.125,21285,t,0,0,1
0:59.167,21300,),0,0,2
0:59.186,21307,(,0,0,0
0:59.261,21334,p,0,0,0
0:59.325,21357,),0,0,0
0:59.397,21383,(,0,0,1
0:59.461,21406,N,0,0,0
0:59.500,21420,),0,0,1
0:59.642,21471,(,0,0,2
0:59.667,21480,t,0,0,0
0:59.694,21490,),0,0,2
0:59.831,21539,(,0,0,1
0:59.892,21561,N,0,0,0
0:59.922,21572,),0,0,1
0:59.992,21597,(,0,0,2
1:00.111,21640,t,0,0,0
1:00.164,21659,),0,0,2
1:00.172,21662,(,0,0,0
1:00.192,21669,p,0,0,0
1:00.233,21684,),0,0,0
1:00.328,21718,(,0,0,1
1:00.400,21744,N,0,0,0
1:00.514,21785,),0,0,1
1:00.544,21796,(,0,0,2
1:00.669,21841,t,0,0,0
1:00.800,21888,),0,0,2
1:00.822,21896,(,0,0,0
1:00.869,21913,p,0,0,0
1:00.939,21938,),0,0,0
1:00.961,21946,(,0,0,1
1:01.008,21963,N,0,0,0
1:01.036,21973,),0,0,1
1:01.139,22010,(,0,0,2
1:01.225,22041,t,0,0,5
1:01.308,22071,t,0,0,5
1:01.364,22091,),0,0,2
1:01.572,22166,(,0,0,0
1:01.611,22180,p,0,0,0
1:01.669,22201,),0,0,0
1:01.853,22267,(,0,0,1
1:01.931,22295,N,0,0,0
1:01.969,22309,),0,0,1
1:02.111,22360,(,0,0,2
1:02.181,22385,t,0,0,5
1:02.272,22418,t,0,0,5
1:02.325,22437,),0,0,2
1:02.356,22448,(,0,0,0
1:02.394,22462,p,0,0,0
1:02.419,22471,),0,0,0
1:02.669,22561,(,0,0,1
1:02.767,22596,N,0,0,0
1:02.797,22607,),0,0,1
1:02.861,22630,t,0,0,2
1:03.008,22683,),0,0,2
1:03.117,22722,(,0,0,1
1:03.203,22753,N,0,0,0
1:03.239,22766,),0,0,1
1:03.361,22810,t,0,0,2
1:03.444,22840,),0,0,2
1:03.472,22850,(,0,0,0
1:03.539,22874,p,0,0,0
1:03.578,22888,),0,0,0
1:03.597,22895,(,0,0,1
1:03.650,22914,N,0,0,0
1:03.797,22967,),0,0,1
1:04.256,23132,(,0,0,1
1:04.311,23152,N,0,0,0
1:04.353,23167,),0,0,1
1:04.433,23196,(,0,0,2
1:04.569,23245,t,0,0,0
1:04.622,23264,),0,0,2
1:05.147,23453,(,0,0,0
1:05.181,23465,p,0,0,0
1:05.219,23479,),0,0,0
1:05.236,23485,(,0,0,1
1:05.283,23502,N,0,0,0
1:05.311,23512,),0,0,1
1:05.403,23545,(,0,0,2
1:05.436,23557,t,0,0,1
1:05.528,23590,),0,0,2
1:05.636,23629,(,0,0,1
1:05.714,23657,N,0,0,0
1:05.836,23701,),0,0,1
1:05.875,23715,(,0,0,2
1:05.947,23741,t,0,0,0
1:06.006,23762,),0,0,2
1:06.050,23778,(,0,0,0
1:06.133,23808,p,0,0,0
1:06.197,23831,),0,0,0
1:06.233,23844,(,0,0,1
1:06.308,23871,N,0,0,0
1:06.339,23882,),0,0,1
1:06.508,23943,(,0,0,2
1:06.558,23961,t,0,0,0
1:06.653,23995,),0,0,2
1:06.844,24064,(,0,0,0
1:06.903,24085,p,0,0,0
1:06.964,24107,),0,0,0
1:07.142,24171,(,0,0,1
1:07.197,24191,N,0,0,0
1:07.236,24205,),0,0,1
1:07.369,24253,(,0,0,2
1:07.439,24278,t,0,0,0
1:07.517,24306,),0,0,2
1:07.558,24321,(,0,0,0
1:07.628,24346,p,0,0,0
1:07.692,24369,),0,0,0
1:07.706,24374,(,0,0,1
1:07.767,24396,N,0,0,0
1:07.797,24407,),0,0,1
1:07.861,24430,(,0,0,2
1:07.967,24468,t,0,0,0
1:08.119,24523,),0,0,2
1:08.178,24544,(,0,0,0
1:08.217,24558,p,0,0,0
1:08.289,24584,),0,0,0
1:08.361,24610,(,0,0,1
1:08.444,24640,N,0,0,0
1:08.475,24651,),0,0,1
1:08.600,24696,(,0,0,2
1:08.675,24723,t,0,0,0
1:08.753,24751,),0,0,2
1:08.897,24803,(,0,0,0
1:08.936,24817,p,0,0,0
1:09.008,24843,),0,0,0
1:09.025,24849,(,0,0,1
1:09.086,24871,N,0,0,0
1:09.131,24887,),0,0,1
1:09.308,24951,(,0,0,2
1:09.350,24966,t,0,0,0
1:09.489,25016,),0,0,2
1:09.506,25022,(,0,0,0
1:09.558,25041,p,0,0,0
1:09.644,25072,),0,0,0
1:09.678,25084,(,0,0,1
1:09.772,25118,N,0,0,0
1:09.803,25129,),0,0,1
1:09.969,25189,(,0,0,2
1:10.019,25207,t,0,0,0
1:10.072,25226,),0,0,2
1:10.197,25271,(,0,0,0
1:10.256,25292,p,0,0,0
1:10.292,25305,),0,0,0
1:10.389,25340,(,0,0,1
1:10.442,25359,N,0,0,0
1:10.472,25370,),0,0,1
1:10.583,25410,(,0,0,2
1:10.672,25442,t,0,0,0
1:10.750,25470,),0,0,2
1:10.897,25523,(,0,0,0
1:10.942,25539,p,0,0,0
1:10.983,25554,),0,0,0
1:11.125,25605,(,0,0,1
1:11.175,25623,N,0,0,0
1:11.217,25638,),0,0,1
1:11.303,25669,(,0,0,2
1:11.417,25710,t,0,0,0
1:11.467,25728,),0,0,2
1:11.592,25773,(,0,0,0
1:11.642,25791,p,0,0,0
1:11.694,25810,),0,0,0
1:11.775,25839,(,0,0,1
1:11.825,25857,N,0,0,0
1:11.864,25871,),0,0,1
1:11.953,25903,(,0,0,2
1:12.053,25939,t,0,0,5
1:12.122,25964,t,0,0,5
1:12.158,25977,),0,0,2
1:12.333,26040,(,0,0,0
1:12.411,26068,p,0,0,0
1:12.444,26080,),0,0,0
1:12.544,26116,(,0,0,1
1:12.603,26137,N,0,0,0
1:12.633,26148,),0,0,1
1:12.758,26193,(,0,0,2
1:12.831,26219,t,0,0,0
1:12.894,26242,),0,0,2
1:12.969,26269,(,0,0,0
1:13.056,26300,p,0,0,0
1:13.103,26317,),0,0,0
1:13.175,26343,(,0,0,1
1:13.228,26362,N,0,0,0
1:13.256,26372,),0,0,1
1:13.392,26421,(,0,0,2
1:13.461,26446,t,0,0,5
1:13.603,26497,t,0,0,5
1:13.647,26513,),0,0,2
1:13.861,26590,(,0,0,1
1:13.917,26610,N,0,0,0
1:13.961,26626,),0,0,1
1:14.061,26662,(,0,0,2
1:14.158,26697,t,0,0,0
1:14.228,26722,),0,0,2
1:14.367,26772,(,0,0,1
1:14.453,26803,N,0,0,0
1:14.483,26814,),0,0,1
1:14.614,26861,(,0,0,2
1:14.686,26887,t,0,0,0
1:14.744,26908,),0,0,2
1:14.861,26950,(,0,0,0
1:14.928,26974,p,0,0,0
1:15.011,27004,),0,0,0
1:15.025,27009,(,0,0,1
1:15.114,27041,N,0,0,0
1:15.225,27081,),0,0,1
1:15.333,27120,(,0,0,2
1:15.381,27137,t,0,0,0
1:15.478,27172,),0,0,2
1:15.522,27188,(,0,0,0
1:15.542,27195,p,0,0,0
1:15.569,27205,),0,0,0
1:15.631,27227,(,0,0,1
1:15.711,27256,N,0,0,0
1:15.742,27267,),0,0,1
1:15.842,27303,t,0,0,2
1:15.919,27331,),0,0,2
1:15.986,27355,(,0,0,0
1:16.044,27376,p,0,0,0
1:16.108,27399,),0,0,0
1:16.178,27424,(,0,0,1
1:16.231,27443,N,0,0,0
1:16.308,27471,),0,0,1
1:16.397,27503,(,0,0,2
1:16.461,27526,t,0,0,0
1:16.544,27556,),0,0,2
1:16.606,27578,(,0,0,1
1:16.661,27598,N,0,0,0
1:16.694,27610,),0,0,1
1:16.831,27659,(,0,0,2
1:16.900,27684,t,0,0,5
1:16.972,27710,t,0,0,5
1:17.017,27726,),0,0,2
1:17.211,27796,(,0,0,0
1:17.272,27818,p,0,0,0
1:17.342,27843,),0,0,0
1:17.386,27859,(,0,0,1
1:17.439,27878,N,0,0,0
1:17.469,27889,),0,0,1
1:17.619,27943,(,0,0,2
1:17.700,27972,t,0,0,0
1:17.772,27998,),0,0,2
1:17.878,28036,(,0,0,0
1:17.958,28065,p,0,0,0
1:17.994,28078,),0,0,0
1:18.078,28108,(,0,0,1
1:18.131,28127,N,0,0,0
1:18.158,28137,),0,0,1
1:18.303,28189,(,0,0,2
1:18.364,28211,t,0,0,5
1:18.450,28242,t,0,0,5
1:18.500,28260,),0,0,2
1:18.625,28305,(,0,0,0
1:18.669,28321,p,0,0,0
1:18.733,28344,),0,0,0
1:18.758,28353,(,0,0,1
1:18.825,28377,N,0,0,0
1:18.853,28387,),0,0,1
1:18.908,28407,(,0,0,2
1:19.014,28445,t,0,0,0
1:19.083,28470,),0,0,2
1:19.286,28543,(,0,0,0
1:19.361,28570,p,0,0,0
1:19.408,28587,),0,0,0
1:19.436,28597,(,0,0,1
1:19.492,28617,N,0,0,0
1:19.581,28649,),0,0,1
1:19.669,28681,(,0,0,2
1:19.744,28708,t,0,0,5
1:19.844,28744,t,0,0,5
1:19.906,28766,),0,0,2
1:20.050,28818,(,0,0,0
1:20.092,28833,p,0,0,0
1:20.183,28866,),0,0,0
1:20.258,28893,(,0,0,1
1:20.319,28915,N,0,0,0
1:20.347,28925,),0,0,1
1:20.536,28993,(,0,0,2
1:20.578,29008,t,0,0,5
1:20.675,29043,t,0,0,5
1:20.742,29067,),0,0,2
1:20.756,29072,(,0,0,0
1:20.842,29103,p,0,0,0
1:20.906,29126,),0,0,0
1:20.925,29133,(,0,0,1
1:20.981,29153,N,0,0,0
1:21.022,29168,),0,0,1
1:21.169,29221,(,0,0,2
1:21.236,29245,t,0,0,0
1:21.328,29278,),0,0,2
1:21.719,29419,(,0,0,1
1:21.783,29442,N,0,0,0
1:21.817,29454,),0,0,1
1:21.997,29519,(,0,0,2
1:22.044,29536,t,0,0,5
1:22.164,29579,t,0,0,5
1:22.233,29604,),0,0,2
1:22.264,29615,(,0,0,0
1:22.322,29636,p,0,0,0
1:22.364,29651,),0,0,0
1:22.472,29690,(,0,0,1
1:22.531,29711,N,0,0,0
1:22.561,29722,),0,0,1
1:22.639,29750,(,0,0,2
1:22.775,29799,t,0,0,5
1:22.878,29836,t,0,0,5
1:22.922,29852,),0,0,2
1:22.939,29858,(,0,0,0
1:23.000,29880,p,0,0,0
1:23.050,29898,),0,0,0
1:23.108,29919,(,0,0,1
1:23.164,29939,N,0,0,0
1:23.203,29953,),0,0,1
1:23.283,29982,(,0,0,2
1:23.383,30018,t,0,0,5
1:23.486,30055,t,0,0,5
1:23.533,30072,),0,0,2
1:23.564,30083,(,0,0,0
1:23.600,30096,p,0,0,0
1:23.661,30118,),0,0,0
1:23.711,30136,(,0,0,1
1:23.806,30170,N,0,0,0
1:23.836,30181,),0,0,1
1:23.975,30231,(,0,0,2
1:24.028,30250,t,0,0,0
1:24.100,30276,),0,0,2
1:24.125,30285,(,0,0,1
1:24.206,30314,N,0,0,0
1:24.239,30326,),0,0,1
1:24.311,30352,(,0,0,2
1:24.439,30398,t,0,0,0
1:24.567,30444,),0,0,2
1:24.714,30497,(,0,0,0
1:24.742,30507,p,0,0,0
1:24.769,30517,),0,0,0
1:24.847,30545,(,0,0,1
1:24.933,30576,N,0,0,0
1:24.964,30587,),0,0,1
1:25.094,30634,(,0,0,2
1:25.175,30663,t,0,0,0
1:25.247,30689,),0,0,2
1:25.297,30707,(,0,0,0
1:25.331,30719,p,0,0,0
1:25.383,30738,),0,0,0
1:25.428,30754,(,0,0,1
1:25.500,30780,N,0,0,0
1:25.539,30794,),0,0,1
1:25.967,30948,(,0,0,0
1:26.028,30970,p,0,0,0
1:26.064,30983,),0,0,0
1:26.106,30998,(,0,0,1
1:26.172,31022,N,0,0,0
1:26.203,31033,),0,0,1
1:26.356,31088,(,0,0,2
1:26.417,31110,t,0,0,5
1:26.511,31144,t,0,0,5
1:26.567,31164,),0,0,2
1:26.717,31218,(,0,0,0
1:26.764,31235,p,0,0,0
1:26.861,31270,),0,0,0
1:26.903,31285,(,0,0,1
1:26.956,31304,N,0,0,0
1:26.986,31315,),0,0,1
1:27.092,31353,(,0,0,2
1:27.206,31394,t,0,0,0
1:27.272,31418,),0,0,2
1:28.050,31698,(,0,0,1
1:28.111,31720,N,0,0,0
1:28.153,31735,),0,0,1
1:28.319,31795,(,0,0,2
1:28.383,31818,t,0,0,5
1:28.456,31844,t,0,0,5
1:28.492,31857,),0,0,2
1:28.708,31935,(,0,0,0
1:28.747,31949,p,0,0,0
1:28.806,31970,),0,0,0
1:28.911,32008,(,0,0,1
1:28.969,32029,N,0,0,0
1:29.114,32081,),0,0,1
1:29.133,32088,(,0,0,2
1:29.211,32116,t,0,0,0
1:29.294,32146,),0,0,2
1:29.519,32227,(,0,0,1
1:29.603,32257,N,0,0,0
1:29.631,32267,),0,0,1
1:29.717,32298,(,0,0,2
1:29.811,32332,t,0,0,0
1:29.883,32358,),0,0,2
1:30.011,32404,(,0,0,1
1:30.078,32428,N,0,0,0
1:30.236,32485,),0,0,1
1:30.278,32500,(,0,0,2
1:30.308,32511,t,0,0,0
1:30.408,32547,),0,0,2
1:30.469,32569,(,0,0,0
1:30.514,32585,p,0,0,0
1:30.561,32602,),0,0,0
1:30.581,32609,(,0,0,1
1:30.631,32627,N,0,0,0
1:30.658,32637,),0,0,1
1:30.750,32670,(,0,0,2
1:30.839,32702,t,0,0,5
1:30.900,32724,t,0,0,5
1:30.950,32742,),0,0,2
1:30.989,32756,(,0,0,0
1:31.042,32775,p,0,0,0
1:31.083,32790,),0,0,0
1:31.206,32834,(,0,0,1
1:31.278,32860,N,0,0,0
1:31.378,32896,),0,0,1
1:31.458,32925,(,0,0,2
1:31.511,32944,t,0,0,5
1:31.586,32971,t,0,0,5
1:31.633,32988,),0,0,2
1:32.075,33147,(,0,0,1
1:32.156,33176,N,0,0,0
1:32.194,33190,),0,0,1
1:32.286,33223,(,0,0,2
1:32.394,33262,t,0,0,0
1:32.469,33289,),0,0,2
1:32.617,33342,(,0,0,1
1:32.672,33362,N,0,0,0
1:32.703,33373,),0,0,1
1:32.839,33422,(,0,0,2
1:32.919,33451,t,0,0,5
1:33.011,33484,t,0,0,5
1:33.061,33502,),0,0,2
1:33.300,33588,(,0,0,0
1:33.342,33603,p,0,0,0
1:33.392,33621,),0,0,0
1:33.406,33626,(,0,0,1
1:33.467,33648,N,0,0,0
1:33.597,33695,),0,0,1
1:33.697,33731,(,0,0,2
1:33.742,33747,t,0,0,5
1:33.853,33787,t,0,0,5
1:33.911,33808,),0,0,2
1:33.925,33813,(,0,0,0
1:34.028,33850,p,0,0,0
1:34.061,33862,),0,0,0
1:34.092,33873,(,0,0,1
1:34.147,33893,N,0,0,0
1:34.253,33931,),0,0,1
1:34.303,33949,(,0,0,2
1:34.392,33981,t,0,0,5
1:34.494,34018,t,0,0,5
1:34.556,34040,),0,0,2
1:34.944,34180,(,0,0,1
1:35.006,34202,N,0,0,0
1:35.047,34217,),0,0,1
1:35.136,34249,(,0,0,2
1:35.242,34287,t,0,0,0
1:35.314,34313,),0,0,2
1:35.367,34332,(,0,0,1
1:35.419,34351,N,0,0,0
1:35.450,34362,),0,0,1
1:35.567,34404,(,0,0,2
1:35.650,34434,t,0,0,5
1:35.764,34475,t,0,0,5
1:35.808,34491,),0,0,2
1:35.828,34498,(,0,0,0
1:35.900,34524,p,0,0,0
1:35.994,34558,),0,0,0
1:36.119,34603,(,0,0,1
1:36.178,34624,N,0,0,0
1:36.206,34634,),0,0,1
1:36.394,34702,(,0,0,2
1:36.436,34717,t,0,0,0
1:36.500,34740,),0,0,2
1:36.628,34786,(,0,0,0
1:36.722,34820,p,0,0,0
1:36.775,34839,),0,0,0
1:36.806,34850,(,0,0,1
1:36.861,34870,N,0,0,0
1:36.900,34884,),0,0,1
1:37.064,34943,(,0,0,0
1:37.108,34959,p,0,0,0
1:37.161,34978,),0,0,0
1:37.219,34999,(,0,0,1
1:37.272,35018,N,0,0,0
1:37.306,35030,),0,0,1
1:37.469,35089,(,0,0,2
1:37.508,35103,t,0,0,0
1:37.611,35140,),0,0,2
1:37.653,35155,(,0,0,0
1:37.694,35170,p,0,0,0
1:37.761,35194,),0,0,0
1:37.778,35200,(,0,0,1
1:37.836,35221,N,0,0,0
1:37.867,35232,),0,0,1
1:37.964,35267,(,0,0,2
1:38.092,35313,t,0,0,0
1:38.128,35326,),0,0,2
1:38.211,35356,(,0,0,1
1:38.264,35375,N,0,0,0
1:38.394,35422,),0,0,1
1:38.464,35447,(,0,0,2
1:38.497,35459,t,0,0,5
1:38.617,35502,t,0,0,5
1:38.647,35513,),0,0,2
1:38.867,35592,(,0,0,1
1:38.947,35621,N,0,0,0
1:39.053,35659,),0,0,1
1:39.158,35697,(,0,0,2
1:39.208,35715,t,0,0,0
1:39.311,35752,),0,0,2
1:39.433,35796,(,0,0,0
1:39.494,35818,p,0,0,0
1:39.539,35834,),0,0,0
1:39.703,35893,(,0,0,1
1:39.781,35921,N,0,0,0
1:39.822,35936,),0,0,1
1:39.983,35994,(,0,0,2
1:40.044,36016,t,0,0,0
1:40.111,36040,),0,0,2
1:40.497,36179,(,0,0,0
1:40.533,36192,p,0,0,0
1:40.575,36207,),0,0,0
1:40.644,36232,(,0,0,1
1:40.706,36254,N,0,0,0
1:40.739,36266,),0,0,1
1:40.883,36318,(,0,0,2
1:40.953,36343,t,0,0,5
1:41.028,36370,t,0,0,5
1:41.064,36383,),0,0,2
1:41.086,36391,(,0,0,0
1:41.114,36401,p,0,0,0
1:41.161,36418,),0,0,0
1:41.303,36469,(,0,0,1
1:41.358,36489,N,0,0,0
1:41.397,36503,),0,0,1
1:41.503,36541,(,0,0,2
1:41.578,36568,t,0,0,0
1:41.664,36599,),0,0,2
1:41.711,36616,(,0,0,0
1:41.764,36635,p,0,0,0
1:41.811,36652,),0,0,0
1:41.842,36663,(,0,0,1
1:41.897,36683,N,0,0,0
1:41.942,36699,),0,0,1
1:42.089,36752,(,0,0,2
1:42.131,36767,t,0,0,5
1:42.250,36810,t,0,0,5
1:42.303,36829,),0,0,2
1:42.631,36947,(,0,0,0
1:42.669,36961,p,0,0,0
1:42.714,36977,),0,0,0
1:42.803,37009,(,0,0,1
1:42.869,37033,N,0,0,0
1:42.900,37044,),0,0,1
1:43.067,37104,(,0,0,2
1:43.114,37121,t,0,0,0
1:43.183,37146,),0,0,2
1:43.250,37170,(,0,0,1
1:43.328,37198,N,0,0,0
1:43.358,37209,),0,0,1
1:43.461,37246,(,0,0,2
1:43.547,37277,t,0,0,0
1:43.614,37301,),0,0,2
1:43.664,37319,(,0,0,1
1:43.722,37340,N,0,0,0
1:43.753,37351,),0,0,1
1:43.878,37396,(,0,0,2
1:43.950,37422,t,0,0,5
1:44.033,37452,t,0,0,5
1:44.089,37472,),0,0,2
1:44.217,37518,(,0,0,0
1:44.250,37530,p,0,0,0
1:44.308,37551,),0,0,0
1:44.342,37563,(,0,0,1
1:44.400,37584,N,0,0,0
1:44.444,37600,),0,0,1
1:44.553,37639,(,0,0,2
1:44.592,37653,t,0,0,4
1:44.675,37683,t,0,0,4
1:44.747,37709,),0,0,2
1:44.856,37748,(,0,0,0
1:44.903,37765,p,0,0,0
1:44.964,37787,),0,0,0
1:45.008,37803,(,0,0,1
1:45.067,37824,N,0,0,0
1:45.097,37835,),0,0,1
1:45.289,37904,(,0,0,2
1:45.333,37920,t,0,0,0
1:45.386,37939,),0,0,2
1:45.506,37982,(,0,0,0
1:45.544,37996,p,0,0,0
1:45.600,38016,),0,0,0
1:45.700,38052,(,0,0,1
1:45.758,38073,N,0,0,0
1:45.789,38084,),0,0,1
1:45.942,38139,(,0,0,2
1:46.000,38160,t,0,0,0
1:46.081,38189,),0,0,2
1:46.386,38299,(,0,0,1
1:46.439,38318,N,0,0,0
1:46.478,38332,),0,0,1
1:46.592,38373,(,0,0,2
1:46.678,38404,t,0,0,5
1:46.783,38442,t,0,0,5
1:46.864,38471,),0,0,2
1:47.106,38558,(,0,0,1
1:47.175,38583,N,0,0,0
1:47.206,38594,),0,0,1
1:47.211,38596,(,0,0,2
1:47.314,38633,t,0,0,4
1:47.408,38667,t,0,0,4
1:47.478,38692,),0,0,2
1:47.703,38773,(,0,0,0
1:47.731,38783,p,0,0,0
1:47.756,38792,),0,0,0
1:47.900,38844,(,0,0,1
1:47.956,38864,N,0,0,0
1:47.986,38875,),0,0,1
1:48.072,38906,(,0,0,2
1:48.189,38948,t,0,0,0
1:48.256,38972,),0,0,2
1:48.617,39102,(,0,0,0
1:48.650,39114,p,0,0,0
1:48.706,39134,),0,0,0
1:48.725,39141,(,0,0,1
1:48.781,39161,N,0,0,0
1:48.825,39177,),0,0,1
1:48.944,39220,(,0,0,2
1:49.022,39248,t,0,0,5
1:49.108,39279,t,0,0,5
1:49.161,39298,),0,0,2
1:49.211,39316,(,0,0,0
1:49.275,39339,p,0,0,0
1:49.353,39367,),0,0,0
1:49.517,39426,(,0,0,1
1:49.581,39449,N,0,0,0
1:49.611,39460,),0,0,1
1:49.775,39519,(,0,0,2
1:49.828,39538,t,0,0,5
1:49.928,39574,t,0,0,5
1:49.986,39595,),0,0,2
1:50.297,39707,(,0,0,0
1:50.364,39731,p,0,0,0
1:50.403,39745,),0,0,0
1:50.447,39761,(,0,0,1
1:50.506,39782,N,0,0,0
1:50.544,39796,),0,0,1
1:50.617,39822,(,0,0,2
1:50.731,39863,t,0,0,0
1:50.803,39889,),0,0,2
1:51.067,39984,(,0,0,0
1:51.169,40021,p,0,0,0
1:51.231,40043,),0,0,0
1:51.250,40050,(,0,0,1
1:51.333,40080,N,0,0,0
1:51.375,40095,),0,0,1
1:51.525,40149,(,0,0,2
1:51.583,40170,t,0,0,0
1:51.694,40210,),0,0,2
1:51.711,40216,(,0,0,0
1:51.781,40241,p,0,0,0
1:51.861,40270,),0,0,0
1:51.878,40276,(,0,0,1
1:51.958,40305,N,0,0,0
1:51.989,40316,),0,0,1
1:52.111,40360,(,0,0,2
1:52.200,40392,t,0,0,0
1:52.269,40417,),0,0,2
1:52.514,40505,(,0,0,0
1:52.589,40532,p,0,0,0
1:52.678,40564,),0,0,0
1:52.739,40586,(,0,0,1
1:52.794,40606,N,0,0,0
1:52.842,40623,),0,0,1
1:52.994,40678,(,0,0,2
1:53.044,40696,t,0,0,0
1:53.136,40729,),0,0,2
1:53.153,40735,(,0,0,0
1:53.242,40767,p,0,0,0
1:53.275,40779,),0,0,0
1:53.303,40789,(,0,0,1
1:53.364,40811,N,0,0,0
1:53.408,40827,),0,0,1
1:53.517,40866,(,0,0,2
1:53.589,40892,t,0,0,5
1:53.719,40939,t,0,0,5
1:53.772,40958,),0,0,2
1:53.928,41014,(,0,0,1
1:53.997,41039,N,0,0,0
1:54.119,41083,),0,0,1
1:54.158,41097,(,0,0,2
1:54.219,41119,t,0,0,0
1:54.272,41138,),0,0,2
1:54.389,41180,(,0,0,0
1:54.422,41192,p,0,0,0
1:54.456,41204,),0,0,0
1:54.561,41242,(,0,0,1
1:54.608,41259,N,0,0,0
1:54.639,41270,),0,0,1
1:54.764,41315,(,0,0,2
1:54.836,41341,t,0,0,0
1:54.914,41369,),0,0,2
1:55.064,41423,(,0,0,0
1:55.092,41433,p,0,0,0
1:55.128,41446,),0,0,0
1:55.264,41495,(,0,0,1
1:55.336,41521,N,0,0,0
1:55.375,41535,),0,0,1
1:55.472,41570,(,0,0,2
1:55.583,41610,t,0,0,0
1:55.642,41631,),0,0,2
1:55.775,41679,(,0,0,1
1:55.819,41695,N,0,0,0
1:55.847,41705,),0,0,1
1:55.944,41740,(,0,0,2
1:56.050,41778,t,0,0,0
1:56.094,41794,),0,0,2
1:56.378,41896,(,0,0,1
1:56.456,41924,N,0,0,0
1:56.489,41936,),0,0,1
1:56.622,41984,(,0,0,2
1:56.733,42024,t,0,0,0
1:56.786,42043,),0,0,2
1:56.842,42063,(,0,0,0
1:56.881,42077,p,0,0,0
1:56.897,42083,),0,0,0
1:57.072,42146,(,0,0,1
1:57.131,42167,N,0,0,0
1:57.161,42178,),0,0,1
1:57.294,42226,(,0,0,2
1:57.381,42257,t,0,0,0
1:57.467,42288,),0,0,2
1:57.536,42313,(,0,0,0
1:57.581,42329,p,0,0,0
1:57.647,42353,),0,0,0
1:57.742,42387,(,0,0,1
1:57.819,42415,N,0,0,0
1:57.858,42429,),0,0,1
1:57.944,42460,(,0,0,2
1:58.067,42504,t,0,0,0
1:58.131,42527,),0,0,2
1:58.139,42530,(,0,0,1
1:58.231,42563,N,0,0,0
1:58.267,42576,),0,0,1
1:58.422,42632,(,0,0,0
1:58.472,42650,p,0,0,0
1:58.514,42665,),0,0,0
1:58.558,42681,(,0,0,1
1:58.608,42699,N,0,0,0
1:58.644,42712,),0,0,1
1:58.739,42746,(,0,0,2
1:58.847,42785,t,0,0,0
1:58.911,42808,),0,0,2
1:59.253,42931,(,0,0,0
1:59.328,42958,p,0,0,0
1:59.381,42977,),0,0,0
1:59.444,43000,(,0,0,1
1:59.503,43021,N,0,0,0
1:59.544,43036,),0,0,1
1:59.658,43077,(,0,0,2
1:59.764,43115,t,0,0,0
1:59.828,43138,),0,0,2
2:00.061,43222,(,0,0,1
2:00.114,43241,N,0,0,0
2:00.153,43255,),0,0,1
2:00.275,43299,(,0,0,2
2:00.350,43326,t,0,0,5
2:00.419,43351,t,0,0,5
2:00.503,43381,),0,0,2
2:00.519,43387,(,0,0,0
2:00.606,43418,p,0,0,0
2:00.658,43437,),0,0,0
2:00.700,43452,(,0,0,1
2:00.756,43472,N,0,0,0
2:00.786,43483,),0,0,1
2:00.872,43514,(,0,0,2
2:00.983,43554,t,0,0,0
2:01.031,43571,),0,0,2
2:01.108,43599,(,0,0,1
2:01.156,43616,N,0,0,0
2:01.186,43627,),0,0,1
2:01.319,43675,(,0,0,2
2:01.383,43698,t,0,0,0
2:01.439,43718,),0,0,2
2:01.814,43853,(,0,0,0
2:01.886,43879,p,0,0,0
2:01.964,43907,),0,0,0
2:01.981,43913,(,0,0,1
2:02.036,43933,N,0,0,0
2:02.067,43944,),0,0,1
2:02.181,43985,(,0,0,2
2:02.297,44027,t,0,0,0
2:02.364,44051,),0,0,2
2:02.828,44218,(,0,0,0
2:02.869,44233,p,0,0,0
2:02.917,44250,),0,0,0
2:03.083,44310,(,0,0,1
2:03.144,44332,N,0,0,0
2:03.175,44343,),0,0,1
2:03.333,44400,(,0,0,2
2:03.425,44433,t,0,0,0
2:03.525,44469,),0,0,2
2:03.742,44547,(,0,0,0
2:03.781,44561,p,0,0,0
2:03.828,44578,),0,0,0
2:03.939,44618,(,0,0,1
2:04.025,44649,N,0,0,0
2:04.164,44699,),0,0,1
2:04.217,44718,(,0,0,2
2:04.278,44740,t,0,0,5
2:04.383,44778,t,0,0,5
2:04.422,44792,),0,0,2
2:04.469,44809,(,0,0,0
2:04.506,44822,p,0,0,0
2:04.542,44835,),0,0,0
2:04.692,44889,(,0,0,1
2:04.778,44920,N,0,0,0
2:04.806,44930,),0,0,1
2:04.978,44992,(,0,0,2
2:05.014,45005,t,0,0,0
2:05.058,45021,),0,0,2
2:05.492,45177,(,0,0,1
2:05.556,45200,N,0,0,0
2:05.592,45213,),0,0,1
2:05.703,45253,(,0,0,2
2:05.778,45280,t,0,0,5
2:05.861,45310,t,0,0,5
2:05.914,45329,),0,0,2
2:06.078,45388,(,0,0,1
2:06.131,45407,N,0,0,0
2:06.325,45477,),0,0,1
2:06.356,45488,(,0,0,2
2:06.419,45511,t,0,0,1
2:06.453,45523,),0,0,2
2:06.556,45560,(,0,0,1
2:06.647,45593,N,0,0,0
2:06.689,45608,),0,0,1
2:06.764,45635,(,0,0,2
2:06.881,45677,t,0,0,0
2:06.939,45698,),0,0,2
2:07.081,45749,(,0,0,1
2:07.136,45769,N,0,0,0
2:07.167,45780,),0,0,1
2:07.294,45826,(,0,0,2
2:07.361,45850,t,0,0,0
2:07.436,45877,),0,0,2
2:07.661,45958,(,0,0,1
2:07.739,45986,N,0,0,0
2:07.769,45997,),0,0,1
2:07.869,46033,(,0,0,2
2:08.003,46081,t,0,0,0
2:08.075,46107,),0,0,2
2:08.147,46133,(,0,0,0
2:08.197,46151,p,0,0,0
2:08.261,46174,),0,0,0
2:08.278,46180,(,0,0,1
2:08.325,46197,N,0,0,0
2:08.467,46248,),0,0,1
2:08.758,46353,(,0,0,0
2:08.806,46370,p,0,0,0
2:08.881,46397,),0,0,0
2:08.956,46424,(,0,0,1
2:09.056,46460,N,0,0,0
2:09.083,46470,),0,0,1
2:09.169,46501,(,0,0,2
2:09.292,46545,t,0,0,5
2:09.353,46567,t,0,0,5
2:09.392,46581,),0,0,2
2:09.608,46659,(,0,0,0
2:09.664,46679,p,0,0,0
2:09.719,46699,),0,0,0
2:09.806,46730,(,0,0,1
2:09.864,46751,N,0,0,0
2:09.906,46766,),0,0,1
2:10.072,46826,(,0,0,2
2:10.131,46847,t,0,0,0
2:10.250,46890,),0,0,2
2:10.356,46928,(,0,0,0
2:10.408,46947,p,0,0,0
2:10.453,46963,),0,0,0
2:10.506,46982,(,0,0,1
2:10.558,47001,N,0,0,0
2:10.589,47012,),0,0,1
2:10.719,47059,(,0,0,2
2:10.800,47088,t,0,0,5
2:10.881,47117,t,0,0,5
2:10.939,47138,),0,0,2
2:10.964,47147,(,0,0,0
2:11.031,47171,p,0,0,0
2:11.083,47190,),0,0,0
2:11.261,47254,(,0,0,1
2:11.342,47283,N,0,0,0
2:11.372,47294,),0,0,1
2:11.506,47342,(,0,0,2
2:11.581,47369,t,0,0,0
2:11.667,47400,),0,0,2
2:11.781,47441,(,0,0,0
2:11.822,47456,p,0,0,0
2:11.864,47471,),0,0,0
2:11.897,47483,(,0,0,1
2:11.944,47500,N,0,0,0
2:11.986,47515,),0,0,1
2:12.078,47548,(,0,0,2
2:12.161,47578,t,0,0,5
2:12.267,47616,t,0,0,5
2:12.322,47636,),0,0,2
2:12.383,47658,(,0,0,0
2:12.417,47670,p,0,0,0
2:12.458,47685,),0,0,0
2:12.575,47727,(,0,0,1
2:12.636,47749,N,0,0,0
2:12.664,47759,),0,0,1
2:12.822,47816,(,0,0,2
2:12.872,47834,t,0,0,0
2:12.950,47862,),0,0,2
2:13.031,47891,(,0,0,0
2:13.061,47902,p,0,0,0
2:13.089,47912,),0,0,0
2:13.153,47935,(,0,0,1
2:13.200,47952,N,0,0,0
2:13.231,47963,),0,0,1
2:13.311,47992,(,0,0,2
2:13.431,48035,t,0,0,5
2:13.506,48062,t,0,0,5
2:13.531,48071,),0,0,2
2:13.564,48083,(,0,0,0
2:13.628,48106,p,0,0,0
2:13.739,48146,),0,0,0
2:13.819,48175,(,0,0,1
2:13.878,48196,N,0,0,0
2:13.919,48211,),0,0,1
2:14.033,48252,(,0,0,2
2:14.131,48287,t,0,0,0
2:14.228,48322,),0,0,2
2:14.433,48396,(,0,0,1
2:14.489,48416,N,0,0,0
2:14.533,48432,),0,0,1
2:14.608,48459,(,0,0,2
2:14.731,48503,t,0,0,0
2:14.794,48526,),0,0,2
2:14.936,48577,(,0,0,0
2:15.017,48606,p,0,0,0
2:15.064,48623,),0,0,0
2:15.100,48636,(,0,0,1
2:15.181,48665,N,0,0,0
2:15.214,48677,),0,0,1
2:15.267,48696,(,0,0,2
2:15.408,48747,t,0,0,0
2:15.483,48774,),0,0,2
2:15.736,48865,(,0,0,0
2:15.764,48875,p,0,0,0
2:15.800,48888,),0,0,0
2:15.819,48895,(,0,0,1
2:15.881,48917,N,0,0,0
2:16.022,48968,),0,0,1
2:16.097,48995,(,0,0,2
2:16.128,49006,t,0,0,5
2:16.244,49048,t,0,0,5
2:16.286,49063,),0,0,2
2:16.400,49104,(,0,0,1
2:16.492,49137,N,0,0,0
2:16.533,49152,),0,0,1
2:16.575,49167,(,0,0,2
2:16.733,49224,t,0,0,5
2:16.853,49267,t,0,0,5
2:16.917,49290,),0,0,2
2:17.097,49355,(,0,0,1
2:17.153,49375,N,0,0,0
2:17.194,49390,),0,0,1
2:17.297,49427,(,0,0,2
2:17.392,49461,t,0,0,5
2:17.464,49487,t,0,0,5
2:17.517,49506,),0,0,2
2:17.758,49593,(,0,0,0
2:17.856,49628,p,0,0,0
2:17.919,49651,),0,0,0
2:18.019,49687,(,0,0,1
2:18.067,49704,N,0,0,0
2:18.094,49714,),0,0,1
2:18.231,49763,(,0,0,2
2:18.306,49790,t,0,0,5
2:18.372,49814,t,0,0,5
2:18.458,49845,),0,0,2
2:18.953,50023,(,0,0,0
2:18.997,50039,p,0,0,0
2:19.036,50053,),0,0,0
2:19.056,50060,(,0,0,1
2:19.111,50080,N,0,0,0
2:19.156,50096,),0,0,1
2:19.286,50143,(,0,0,2
2:19.375,50175,t,0,0,5
2:19.453,50203,t,0,0,5
2:19.508,50223,),0,0,2
2:19.531,50231,(,0,0,0
2:19.625,50265,p,0,0,0
2:19.672,50282,),0,0,0
2:19.747,50309,(,0,0,1
2:19.808,50331,N,0,0,0
2:19.839,50342,),0,0,1
2:19.958,50385,(,0,0,2
2:19.983,50394,t,0,0,4
2:20.072,50426,t,0,0,4
2:20.139,50450,),0,0,2
2:20.403,50545,(,0,0,0
2:20.433,50556,p,0,0,0
2:20.472,50570,),0,0,0
2:20.578,50608,(,0,0,1
2:20.667,50640,N,0,0,0
2:20.694,50650,),0,0,1
2:20.753,50671,(,0,0,2
2:20.919,50731,t,0,0,0
2:21.047,50777,),0,0,2
2:21.311,50872,(,0,0,0
2:21.350,50886,p,0,0,0
2:21.392,50901,),0,0,0
2:21.414,50909,(,0,0,1
2:21.467,50928,N,0,0,0
2:21.508,50943,),0,0,1
2:21.600,50976,(,0,0,2
2:21.728,51022,t,0,0,0
2:21.792,51045,),0,0,2
2:22.092,51153,(,0,0,0
2:22.133,51168,p,0,0,0
2:22.250,51210,),0,0,0
2:22.283,51222,(,0,0,1
2:22.358,51249,N,0,0,0
2:22.389,51260,),0,0,1
2:22.467,51288,(,0,0,2
2:22.619,51343,t,0,0,5
2:22.750,51390,t,0,0,5
2:22.783,51402,),0,0,2
2:23.000,51480,(,0,0,1
2:23.056,51500,N,0,0,0
2:23.203,51553,),0,0,1
2:23.292,51585,(,0,0,0
2:23.314,51593,p,0,0,0
2:23.414,51629,),0,0,0
2:23.481,51653,(,0,0,1
2:23.567,51684,N,0,0,0
2:23.611,51700,),0,0,1
2:23.706,51734,(,0,0,2
2:23.778,51760,t,0,0,0
2:23.839,51782,),0,0,2
2:23.967,51828,(,0,0,0
2:24.006,51842,p,0,0,0
2:24.061,51862,),0,0,0
2:24.139,51890,(,0,0,1
2:24.200,51912,N,0,0,0
2:24.231,51923,),0,0,1
2:24.364,51971,(,0,0,2
2:24.431,51995,t,0,0,0
2:24.511,52024,),0,0,2
2:24.597,52055,(,0,0,0
2:24.678,52084,p,0,0,0
2:24.731,52103,),0,0,0
2:24.778,52120,(,0,0,1
2:24.836,52141,N,0,0,0
2:24.864,52151,),0,0,1
2:25.039,52214,(,0,0,2
2:25.081,52229,t,0,0,0
2:25.128,52246,),0,0,2
2:25.381,52337,(,0,0,0
2:25.411,52348,p,0,0,0
2:25.447,52361,),0,0,0
2:25.514,52385,(,0,0,1
2:25.569,52405,N,0,0,0
2:25.597,52415,),0,0,1
2:25.700,52452,(,0,0,2
2:25.792,52485,t,0,0,0
2:25.872,52514,),0,0,2
2:26.097,52595,(,0,0,0
2:26.150,52614,p,0,0,0
2:26.189,52628,),0,0,0
2:26.236,52645,(,0,0,1
2:26.294,52666,N,0,0,0
2:26.336,52681,),0,0,1
2:26.467,52728,(,0,0,2
2:26.533,52752,t,0,0,5
2:26.664,52799,t,0,0,5
2:26.725,52821,),0,0,2
2:26.908,52887,(,0,0,1
2:26.972,52910,N,0,0,0
2:27.003,52921,),0,0,1
2:27.136,52969,(,0,0,2
2:27.206,52994,t,0,0,0
2:27.289,53024,),0,0,2
2:27.664,53159,(,0,0,0
2:27.731,53183,p,0,0,0
2:27.811,53212,),0,0,0
2:27.828,53218,(,0,0,1
2:27.878,53236,N,0,0,0
2:27.908,53247,),0,0,1
2:28.036,53293,(,0,0,2
2:28.125,53325,t,0,0,0
2:28.183,53346,),0,0,2
2:28.417,53430,(,0,0,1
2:28.472,53450,N,0,0,0
2:28.511,53464,),0,0,1
2:28.592,53493,(,0,0,2
2:28.694,53530,t,0,0,0
2:28.797,53567,),0,0,2
2:28.875,53595,(,0,0,1
2:28.942,53619,N,0,0,0
2:29.103,53677,),0,0,1
2:29.117,53682,(,0,0,2
2:29.175,53703,t,0,0,5
2:29.244,53728,t,0,0,5
2:29.292,53745,),0,0,2
2:29.344,53764,(,0,0,0
2:29.394,53782,p,0,0,0
2:29.433,53796,),0,0,0
2:29.511,53824,(,0,0,1
2:29.572,53846,N,0,0,0
2:29.603,53857,),0,0,1
2:29.731,53903,(,0,0,2
2:29.800,53928,t,0,0,0
2:29.872,53954,),0,0,2
2:29.969,53989,(,0,0,0
2:30.028,54010,p,0,0,0
2:30.069,54025,),0,0,0
2:30.181,54065,(,0,0,1
2:30.233,54084,N,0,0,0
2:30.267,54096,),0,0,1
2:30.361,54130,(,0,0,2
2:30.447,54161,t,0,0,0
2:30.519,54187,),0,0,2
2:30.881,54317,(,0,0,0
2:30.925,54333,p,0,0,0
2:30.956,54344,),0,0,0
2:31.083,54390,(,0,0,1
2:31.133,54408,N,0,0,0
2:31.172,54422,),0,0,1
2:31.261,54454,(,0,0,2
2:31.356,54488,t,0,0,0
2:31.417,54510,),0,0,2
2:31.581,54569,(,0,0,0
2:31.611,54580,p,0,0,0
2:31.642,54591,),0,0,0
2:31.778,54640,(,0,0,1
2:31.828,54658,N,0,0,0
2:31.856,54668,),0,0,1
2:31.969,54709,(,0,0,2
2:32.050,54738,t,0,0,0
2:32.156,54776,),0,0,2
2:32.178,54784,(,0,0,0
2:32.233,54804,p,0,0,0
2:32.294,54826,),0,0,0
2:32.372,54854,(,0,0,1
2:32.458,54885,N,0,0,0
2:32.492,54897,),0,0,1
2:32.575,54927,(,0,0,2
2:32.708,54975,t,0,0,0
2:32.758,54993,),0,0,2
2:32.875,55035,(,0,0,0
2:32.919,55051,p,0,0,0
2:32.956,55064,),0,0,0
2:33.031,55091,(,0,0,1
2:33.086,55111,N,0,0,0
2:33.131,55127,),0,0,1
2:33.211,55156,t,0,0,2
2:33.314,55193,),0,0,2
2:33.425,55233,(,0,0,1
2:33.500,55260,N,0,0,0
2:33.539,55274,),0,0,1
2:33.681,55325,(,0,0,2
2:33.747,55349,t,0,0,5
2:33.822,55376,t,0,0,5
2:33.858,55389,),0,0,2
2:33.944,55420,(,0,0,0
2:33.992,55437,p,0,0,0
2:34.039,55454,),0,0,0
2:34.164,55499,(,0,0,1
2:34.219,55519,N,0,0,0
2:34.250,55530,),0,0,1
2:34.347,55565,t,0,0,2
2:34.436,55597,),0,0,2
2:34.589,55652,(,0,0,1
2:34.664,55679,N,0,0,0
2:34.694,55690,),0,0,1
2:35.442,55959,(,0,0,0
2:35.481,55973,p,0,0,0
2:35.519,55987,),0,0,0
2:35.619,56023,(,0,0,1
2:35.678,56044,N,0,0,0
2:35.717,56058,),0,0,1
2:35.872,56114,(,0,0,2
2:35.936,56137,t,0,0,0
2:36.047,56177,),0,0,2
2:36.092,56193,(,0,0,0
2:36.125,56205,p,0,0,0
2:36.169,56221,),0,0,0
2:36.186,56227,(,0,0,1
2:36.239,56246,N,0,0,0
2:36.275,56259,),0,0,1
2:36.350,56286,(,0,0,2
2:36.456,56324,t,0,0,5
2:36.531,56351,t,0,0,5
2:36.586,56371,),0,0,2
2:36.603,56377,(,0,0,0
2:36.650,56394,p,0,0,0
2:36.689,56408,),0,0,0
2:36.731,56423,(,0,0,1
2:36.797,56447,N,0,0,0
2:36.825,56457,),0,0,1
2:36.894,56482,(,0,0,2
2:36.933,56496,t,0,0,4
2:37.050,56538,t,0,0,4
2:37.094,56554,),0,0,2
2:37.214,56597,(,0,0,0
2:37.289,56624,p,0,0,0
2:37.378,56656,),0,0,0
2:37.392,56661,(,0,0,1
2:37.472,56690,N,0,0,0
2:37.503,56701,),0,0,1
2:37.581,56729,(,0,0,2
2:37.669,56761,t,0,0,0
2:37.764,56795,),0,0,2
2:37.964,56867,(,0,0,0
2:37.994,56878,p,0,0,0
2:38.033,56892,),0,0,0
2:38.136,56929,(,0,0,1
2:38.200,56952,N,0,0,0
2:38.244,56968,),0,0,1
2:38.317,56994,(,0,0,2
2:38.461,57046,t,0,0,0
2:38.514,57065,),0,0,2
2:38.578,57088,(,0,0,0
2:38.644,57112,p,0,0,0
2:38.686,57127,),0,0,0
2:38.731,57143,(,0,0,1
2:38.786,57163,N,0,0,0
2:38.822,57176,),0,0,1
2:38.936,57217,(,0,0,2
2:38.997,57239,t,0,0,0
2:39.075,57267,),0,0,2
2:39.169,57301,(,0,0,1
2:39.222,57320,N,0,0,0
2:39.258,57333,),0,0,1
2:39.403,57385,(,0,0,2
2:39.464,57407,t,0,0,0
2:39.525,57429,),0,0,2
2:40.089,57632,(,0,0,0
2:40.114,57641,p,0,0,0
2:40.156,57656,),0,0,0
2:40.292,57705,(,0,0,1
2:40.364,57731,N,0,0,0
2:40.406,57746,),0,0,1
2:40.567,57804,(,0,0,2
2:40.633,57828,t,0,0,0
2:40.708,57855,),0,0,2
2:41.000,57960,(,0,0,0
2:41.031,57971,p,0,0,0
2:41.117,58002,),0,0,0
2:41.147,58013,(,0,0,1
2:41.203,58033,N,0,0,0
2:41.244,58048,),0,0,1
2:41.419,58111,(,0,0,2
2:41.469,58129,t,0,0,0
2:41.525,58149,),0,0,2
2:41.594,58174,(,0,0,0
2:41.622,58184,p,0,0,0
2:41.761,58234,),0,0,0
2:41.775,58239,(,0,0,1
2:41.836,58261,N,0,0,0
2:41.950,58302,),0,0,1
2:41.975,58311,(,0,0,2
2:42.047,58337,t,0,0,0
2:42.119,58363,),0,0,2
2:42.144,58372,(,0,0,0
2:42.183,58386,p,0,0,0
2:42.278,58420,),0,0,0
2:42.300,58428,(,0,0,1
2:42.353,58447,N,0,0,0
2:42.489,58496,(,0,0,0
2:42.544,58516,),0,0,1
2:42.556,58520,p,0,0,0
2:42.617,58542,),0,0,0
2:42.647,58553,(,0,0,1
2:42.714,58577,N,0,0,0
2:42.747,58589,),0,0,1
2:42.864,58631,(,0,0,2
2:42.939,58658,t,0,0,0
2:43.011,58684,),0,0,2
2:43.017,58686,(,0,0,0
2:43.031,58691,p,0,0,0
2:43.078,58708,),0,0,0
2:43.308,58791,(,0,0,1
2:43.358,58809,N,0,0,0
2:43.397,58823,),0,0,1
2:43.517,58866,(,0,0,2
2:43.600,58896,t,0,0,5
2:43.667,58920,t,0,0,5
2:43.697,58931,),0,0,2
2:44.061,59062,(,0,0,1
2:44.117,59082,N,0,0,0
2:44.147,59093,),0,0,1
2:44.281,59141,(,0,0,2
2:44.356,59168,t,0,0,0
2:44.431,59195,),0,0,2
2:44.611,59260,(,0,0,0
2:44.644,59272,p,0,0,0
2:44.675,59283,),0,0,0
2:44.758,59313,(,0,0,1
2:44.808,59331,N,0,0,0
2:44.839,59342,),0,0,1
2:44.958,59385,(,0,0,2
2:45.058,59421,t,0,0,0
2:45.156,59456,),0,0,2
2:45.283,59502,(,0,0,0
2:45.319,59515,p,0,0,0
2:45.353,59527,),0,0,0
2:45.453,59563,(,0,0,1
2:45.533,59592,N,0,0,0
2:45.575,59607,),0,0,1
2:45.742,59667,(,0,0,2
2:45.792,59685,t,0,0,5
2:45.886,59719,t,0,0,5
2:45.942,59739,),0,0,2
2:46.186,59827,(,0,0,1
2:46.244,59848,N,0,0,0
2:46.275,59859,),0,0,1
2:46.339,59882,(,0,0,2
2:46.439,59918,t,0,0,0
2:46.603,59977,),0,0,2
2:46.653,59995,(,0,0,0
2:46.703,60013,p,0,0,0
2:46.781,60041,),0,0,0
2:46.800,60048,(,0,0,1
2:46.886,60079,N,0,0,0
2:47.019,60127,),0,0,1
2:47.075,60147,(,0,0,2
2:47.128,60166,t,0,0,5
2:47.219,60199,t,0,0,5
2:47.253,60211,),0,0,2
2:47.550,60318,(,0,0,1
2:47.603,60337,N,0,0,0
2:47.644,60352,),0,0,1
2:48.136,60529,(,0,0,0
2:48.178,60544,p,0,0,0
2:48.225,60561,),0,0,0
2:48.242,60567,(,0,0,1
2:48.294,60586,N,0,0,0
2:48.325,60597,),0,0,1
2:48.414,60629,(,0,0,2
2:48.517,60666,t,0,0,0
2:48.578,60688,),0,0,2
2:48.911,60808,(,0,0,0
2:48.989,60836,p,0,0,0
2:49.050,60858,),0,0,0
2:49.103,60877,(,0,0,1
2:49.153,60895,N,0,0,0
2:49.200,60912,),0,0,1
2:49.331,60959,(,0,0,2
2:49.389,60980,t,0,0,0
2:49.456,61004,),0,0,2
2:49.539,61034,(,0,0,0
2:49.614,61061,p,0,0,0
2:49.656,61076,),0,0,0
2:49.772,61118,(,0,0,1
2:49.844,61144,N,0,0,0
2:49.883,61158,),0,0,1
2:49.989,61196,(,0,0,2
2:50.067,61224,t,0,0,5
2:50.169,61261,t,0,0,5
2:50.236,61285,),0,0,2
2:50.292,61305,(,0,0,0
2:50.361,61330,p,0,0,0
2:50.411,61348,),0,0,0
2:50.483,61374,(,0,0,1
2:50.539,61394,N,0,0,0
2:50.569,61405,),0,0,1
2:50.650,61434,(,0,0,2
2:50.794,61486,t,0,0,0
2:50.836,61501,),0,0,2
2:51.025,61569,(,0,0,0
2:51.047,61577,p,0,0,0
2:51.086,61591,),0,0,0
2:51.122,61604,(,0,0,1
2:51.186,61627,N,0,0,0
2:51.219,61639,),0,0,1
2:51.358,61689,(,0,0,2
2:51.422,61712,t,0,0,5
2:51.564,61763,t,0,0,5
2:51.606,61778,),0,0,2
2:51.775,61839,(,0,0,1
2:51.828,61858,N,0,0,0
2:51.856,61868,),0,0,1
2:51.986,61915,(,0,0,2
2:52.075,61947,t,0,0,5
2:52.156,61976,t,0,0,5
2:52.189,61988,),0,0,2
2:52.264,62015,(,0,0,0
2:52.308,62031,p,0,0,0
2:52.350,62046,),0,0,0
2:52.364,62051,(,0,0,1
2:52.425,62073,N,0,0,0
2:52.467,62088,),0,0,1
2:52.533,62112,(,0,0,2
2:52.669,62161,t,0,0,0
2:52.756,62192,),0,0,2
2:52.800,62208,(,0,0,0
2:52.853,62227,p,0,0,0
2:52.886,62239,),0,0,0
2:53.028,62290,(,0,0,1
2:53.094,62314,N,0,0,0
2:53.122,62324,),0,0,1
2:53.197,62351,(,0,0,2
2:53.275,62379,t,0,0,0
2:53.294,62386,),0,0,2
2:53.464,62447,(,0,0,1
2:53.514,62465,N,0,0,0
2:53.544,62476,),0,0,1
2:53.644,62512,(,0,0,2
2:53.744,62548,t,0,0,0
2:53.808,62571,),0,0,2
2:53.869,62593,(,0,0,0
2:53.967,62628,p,0,0,0
2:53.994,62638,),0,0,0
2:54.117,62682,(,0,0,1
2:54.169,62701,N,0,0,0
2:54.200,62712,),0,0,1
2:54.344,62764,(,0,0,2
2:54.417,62790,t,0,0,0
2:54.467,62808,),0,0,2
2:54.614,62861,(,0,0,0
2:54.667,62880,p,0,0,0
2:54.711,62896,),0,0,0
2:54.733,62904,(,0,0,1
2:54.783,62922,N,0,0,0
2:54.811,62932,),0,0,1
2:54.892,62961,(,0,0,2
2:54.992,62997,t,0,0,5
2:55.064,63023,t,0,0,5
2:55.114,63041,),0,0,2
2:55.242,63087,(,0,0,0
2:55.297,63107,p,0,0,0
2:55.358,63129,),0,0,0
2:55.392,63141,(,0,0,1
2:55.461,63166,N,0,0,0
2:55.492,63177,),0,0,1
2:55.650,63234,(,0,0,2
2:55.697,63251,t,0,0,0
2:55.769,63277,),0,0,2
2:55.792,63285,(,0,0,0
2:55.842,63303,p,0,0,0
2:55.892,63321,),0,0,0
2:55.906,63326,(,0,0,1
2:55.958,63345,N,0,0,0
2:55.989,63356,),0,0,1
2:56.089,63392,(,0,0,2
2:56.181,63425,t,0,0,0
2:56.242,63447,),0,0,2
2:56.508,63543,(,0,0,0
2:56.544,63556,p,0,0,0
2:56.600,63576,),0,0,0
2:56.658,63597,(,0,0,1
2:56.711,63616,N,0,0,0
2:56.750,63630,),0,0,1
2:56.886,63679,(,0,0,2
2:56.972,63710,t,0,0,0
2:57.047,63737,),0,0,2
2:57.128,63766,(,0,0,0
2:57.164,63779,p,0,0,0
2:57.206,63794,),0,0,0
2:57.236,63805,(,0,0,1
2:57.300,63828,N,0,0,0
2:57.353,63847,),0,0,1
2:57.450,63882,(,0,0,2
2:57.539,63914,t,0,0,5
2:57.631,63947,t,0,0,5
2:57.678,63964,),0,0,2
2:57.819,64015,(,0,0,0
2:57.853,64027,p,0,0,0
2:57.889,64040,),0,0,0
2:57.947,64061,(,0,0,1
2:58.008,64083,N,0,0,0
2:58.039,64094,),0,0,1
2:58.169,64141,(,0,0,2
2:58.267,64176,t,0,0,5
2:58.336,64201,t,0,0,5
2:58.392,64221,),0,0,2
2:58.411,64228,(,0,0,0
2:58.500,64260,p,0,0,0
2:58.553,64279,),0,0,0
2:58.581,64289,(,0,0,1
2:58.631,64307,N,0,0,0
2:58.714,64337,),0,0,1
2:58.797,64367,(,0,0,2
2:58.861,64390,t,0,0,5
2:58.956,64424,t,0,0,5
2:59.000,64440,),0,0,2
2:59.158,64497,(,0,0,1
2:59.225,64521,N,0,0,0
2:59.256,64532,),0,0,1
2:59.358,64569,(,0,0,2
2:59.453,64603,t,0,0,0
2:59.522,64628,),0,0,2
2:59.636,64669,(,0,0,1
2:59.692,64689,N,0,0,0
2:59.731,64703,),0,0,1
2:59.822,64736,(,0,0,2
2:59.919,64771,t,0,0,0
2:59.983,64794,),0,0,2
3:00.003,64801,(,0,0,0
3:00.061,64822,p,0,0,0
3:00.111,64840,),0,0,0
3:00.297,64907,(,0,0,1
3:00.350,64926,N,0,0,0
3:00.381,64937,),0,0,1
3:00.461,64966,(,0,0,2
3:00.500,64980,t,0,0,4
3:00.597,65015,t,0,0,4
3:00.661,65038,),0,0,2
3:00.672,65042,(,0,0,0
3:00.719,65059,p,0,0,0
3:00.806,65090,),0,0,0
3:00.819,65095,(,0,0,1
3:00.886,65119,N,0,0,0
3:00.919,65131,),0,0,1
3:01.056,65180,(,0,0,2
3:01.106,65198,t,0,0,0
3:01.161,65218,),0,0,2
3:01.258,65253,(,0,0,0
3:01.347,65285,p,0,0,0
3:01.383,65298,),0,0,0
3:01.433,65316,(,0,0,1
3:01.486,65335,N,0,0,0
3:01.517,65346,),0,0,1
3:01.603,65377,(,0,0,2
3:01.703,65413,t,0,0,0
3:01.758,65433,),0,0,2
3:02.258,65613,(,0,0,1
3:02.314,65633,N,0,0,0
3:02.353,65647,),0,0,1
3:02.417,65670,(,0,0,2
3:02.558,65721,t,0,0,0
3:02.706,65774,),0,0,2
3:02.978,65872,(,0,0,0
3:03.019,65887,p,0,0,0
3:03.103,65917,),0,0,0
3:03.139,65930,(,0,0,1
3:03.189,65948,N,0,0,0
3:03.231,65963,),0,0,1
3:03.358,66009,(,0,0,2
3:03.431,66035,t,0,0,5
3:03.533,66072,t,0,0,5
3:03.606,66098,),0,0,2
3:03.625,66105,(,0,0,0
3:03.706,66134,p,0,0,0
3:03.769,66157,),0,0,0
3:03.817,66174,(,0,0,1
3:03.878,66196,N,0,0,0
3:03.908,66207,),0,0,1
3:04.042,66255,(,0,0,2
3:04.119,66283,t,0,0,0
3:04.197,66311,),0,0,2
3:05.031,66611,(,0,0,1
3:05.092,66633,N,0,0,0
3:05.133,66648,),0,0,1
3:05.303,66709,(,0,0,2
3:05.336,66721,t,0,0,0
3:05.389,66740,),0,0,2
3:05.442,66759,(,0,0,0
3:05.467,66768,p,0,0,0
3:05.500,66780,),0,0,0
3:05.519,66787,(,0,0,1
3:05.575,66807,N,0,0,0
3:05.703,66853,),0,0,1
3:05.975,66951,(,0,0,0
3:06.011,66964,p,0,0,0
3:06.086,66991,),0,0,0
3:06.167,67020,(,0,0,1
3:06.219,67039,N,0,0,0
3:06.247,67049,),0,0,1
3:06.353,67087,(,0,0,2
3:06.450,67122,t,0,0,5
3:06.536,67153,t,0,0,5
3:06.597,67175,),0,0,2
3:06.756,67232,(,0,0,1
3:06.811,67252,N,0,0,0
3:06.853,67267,),0,0,1
3:06.958,67305,(,0,0,2
3:07.017,67326,t,0,0,0
3:07.100,67356,),0,0,2
3:07.347,67445,(,0,0,0
3:07.425,67473,p,0,0,0
3:07.489,67496,),0,0,0
3:07.506,67502,(,0,0,1
3:07.561,67522,N,0,0,0
3:07.592,67533,),0,0,1
3:07.597,67535,(,0,0,2
3:07.700,67572,t,0,0,4
3:07.783,67602,t,0,0,4
3:07.878,67636,),0,0,2
3:08.086,67711,(,0,0,0
3:08.119,67723,p,0,0,0
3:08.153,67735,),0,0,0
3:08.186,67747,(,0,0,1
3:08.253,67771,N,0,0,0
3:08.347,67805,),0,0,1
3:08.464,67847,(,0,0,2
3:08.506,67862,t,0,0,0
3:08.586,67891,),0,0,2
3:08.797,67967,(,0,0,1
3:08.908,68007,N,0,0,0
3:09.006,68042,),0,0,1
3:09.486,68215,(,0,0,0
3:09.531,68231,p,0,0,0
3:09.600,68256,),0,0,0
3:09.653,68275,(,0,0,1
3:09.717,68298,N,0,0,0
3:09.761,68314,),0,0,1
3:09.883,68358,(,0,0,2
3:09.975,68391,t,0,0,0
3:10.047,68417,),0,0,2
3:10.272,68498,(,0,0,0
3:10.294,68506,p,0,0,0
3:10.333,68520,),0,0,0
3:10.411,68548,(,0,0,1
3:10.472,68570,N,0,0,0
3:10.622,68624,),0,0,1
3:10.764,68675,(,0,0,2
3:10.850,68706,t,0,0,1
3:10.928,68734,),0,0,2
3:11.456,68924,(,0,0,1
3:11.517,68946,N,0,0,0
3:11.558,68961,),0,0,1
3:11.639,68990,(,0,0,2
3:11.767,69036,t,0,0,0
3:11.911,69088,),0,0,2
3:11.931,69095,(,0,0,0
3:11.981,69113,p,0,0,0
3:12.042,69135,),0,0,0
3:12.083,69150,(,0,0,1
3:12.158,69177,N,0,0,0
3:12.197,69191,),0,0,1
3:12.286,69223,(,0,0,2
3:12.389,69260,t,0,0,5
3:12.539,69314,t,0,0,5
3:12.575,69327,),0,0,2
3:12.781,69401,(,0,0,0
3:12.803,69409,p,0,0,0
3:12.836,69421,),0,0,0
3:12.936,69457,(,0,0,1
3:12.992,69477,N,0,0,0
3:13.019,69487,),0,0,1
3:13.086,69511,(,0,0,2
3:13.214,69557,t,0,0,0
3:13.253,69571,),0,0,2
3:13.392,69621,(,0,0,1
3:13.483,69654,N,0,0,0
3:13.514,69665,),0,0,1
3:13.619,69703,(,0,0,2
3:13.706,69734,t,0,0,0
3:13.789,69764,),0,0,2
3:13.958,69825,(,0,0,0
3:14.003,69841,p,0,0,0
3:14.053,69859,),0,0,0
3:14.078,69868,(,0,0,1
3:14.133,69888,N,0,0,0
3:14.172,69902,),0,0,1
3:14.283,69942,(,0,0,2
3:14.372,69974,t,0,0,0
3:14.431,69995,),0,0,2
3:14.858,70149,(,0,0,1
3:14.919,70171,N,0,0,0
3:14.950,70182,),0,0,1
3:15.150,70254,(,0,0,2
3:15.189,70268,t,0,0,5
3:15.278,70300,t,0,0,5
3:15.303,70309,),0,0,2
3:15.731,70463,(,0,0,0
3:15.778,70480,p,0,0,0
3:15.831,70499,),0,0,0
3:15.878,70516,(,0,0,1
3:15.933,70536,N,0,0,0
3:15.967,70548,),0,0,1
3:16.031,70571,t,0,0,2
3:16.164,70619,),0,0,2
3:16.258,70653,(,0,0,1
3:16.306,70670,N,0,0,0
3:16.406,70706,),0,0,1
3:16.486,70735,(,0,0,2
3:16.561,70762,t,0,0,0
3:16.628,70786,),0,0,2
3:17.189,70988,(,0,0,0
3:17.236,71005,p,0,0,0
3:17.286,71023,),0,0,0
3:17.350,71046,(,0,0,1
3:17.408,71067,N,0,0,0
3:17.439,71078,),0,0,1
3:17.525,71109,(,0,0,2
3:17.669,71161,t,0,0,0
3:17.708,71175,),0,0,2
3:17.742,71187,(,0,0,0
3:17.817,71214,p,0,0,0
3:17.869,71233,),0,0,0
3:17.942,71259,(,0,0,1
3:17.997,71279,N,0,0,0
3:18.025,71289,),0,0,1
3:18.142,71331,(,0,0,2
3:18.231,71363,t,0,0,0
3:18.281,71381,),0,0,2
3:18.497,71459,(,0,0,1
3:18.550,71478,N,0,0,0
3:18.589,71492,),0,0,1
3:18.664,71519,(,0,0,2
3:18.756,71552,t,0,0,5
3:18.822,71576,t,0,0,5
3:18.858,71589,),0,0,2
3:19.206,71714,(,0,0,0
3:19.261,71734,p,0,0,0
3:19.333,71760,),0,0,0
3:19.431,71795,(,0,0,1
3:19.486,71815,N,0,0,0
3:19.517,71826,),0,0,1
3:19.606,71858,(,0,0,2
3:19.633,71868,t,0,0,4
3:19.739,71906,t,0,0,4
3:19.839,71942,),0,0,2
3:19.925,71973,(,0,0,0
3:20.006,72002,p,0,0,0
3:20.044,72016,),0,0,0
3:20.083,72030,(,0,0,1
3:20.139,72050,N,0,0,0
3:20.169,72061,),0,0,1
3:20.336,72121,(,0,0,0
3:20.400,72144,p,0,0,0
3:20.464,72167,),0,0,0
3:20.506,72182,(,0,0,1
3:20.561,72202,N,0,0,0
3:20.594,72214,),0,0,1
3:20.706,72254,(,0,0,2
3:20.806,72290,t,0,0,5
3:20.903,72325,t,0,0,5
3:20.942,72339,),0,0,2
3:21.183,72426,(,0,0,0
3:21.219,72439,p,0,0,0
3:21.272,72458,),0,0,0
3:21.289,72464,(,0,0,1
3:21.342,72483,N,0,0,0
3:21.450,72522,),0,0,1
3:21.492,72537,(,0,0,2
3:21.528,72550,t,0,0,4
3:21.603,72577,t,0,0,4
3:21.667,72600,),0,0,2
3:21.808,72651,(,0,0,0
3:21.858,72669,p,0,0,0
3:21.892,72681,),0,0,0
3:21.964,72707,(,0,0,1
3:22.022,72728,N,0,0,0
3:22.050,72738,),0,0,1
3:22.189,72788,(,0,0,2
3:22.269,72817,t,0,0,5
3:22.353,72847,t,0,0,5
3:22.419,72871,),0,0,2
3:22.456,72884,(,0,0,0
3:22.525,72909,p,0,0,0
3:22.592,72933,),0,0,0
3:22.622,72944,(,0,0,1
3:22.683,72966,N,0,0,0
3:22.728,72982,),0,0,1
3:22.853,73027,(,0,0,2
3:22.939,73058,t,0,0,5
3:23.058,73101,t,0,0,5
3:23.114,73121,),0,0,2
3:23.294,73186,(,0,0,0
3:23.333,73200,p,0,0,0
3:23.372,73214,),0,0,0
3:23.397,73223,(,0,0,1
3:23.478,73252,N,0,0,0
3:23.508,73263,),0,0,1
3:23.675,73323,(,0,0,2
3:23.719,73339,t,0,0,5
3:23.806,73370,t,0,0,5
3:23.881,73397,),0,0,2
3:24.033,73452,(,0,0,0
3:24.067,73464,p,0,0,0
3:24.108,73479,),0,0,0
3:24.153,73495,(,0,0,1
3:24.236,73525,N,0,0,0
3:24.267,73536,),0,0,1
3:24.394,73582,(,0,0,2
3:24.469,73609,t,0,0,0
3:24.522,73628,),0,0,2
3:24.731,73703,(,0,0,1
3:24.781,73721,N,0,0,0
3:24.819,73735,),0,0,1
3:24.933,73776,(,0,0,2
3:24.983,73794,t,0,0,0
3:25.075,73827,),0,0,2
3:25.417,73950,(,0,0,0
3:25.464,73967,p,0,0,0
3:25.550,73998,),0,0,0
3:25.614,74021,(,0,0,1
3:25.692,74049,N,0,0,0
3:25.722,74060,),0,0,1
3:25.856,74108,(,0,0,2
3:25.950,74142,t,0,0,5
3:26.025,74169,t,0,0,5
3:26.075,74187,),0,0,2
3:26.706,74414,(,0,0,0
3:26.744,74428,p,0,0,0
3:26.806,74450,),0,0,0
3:26.822,74456,(,0,0,1
3:26.883,74478,N,0,0,0
3:26.914,74489,),0,0,1
3:27.067,74544,(,0,0,2
3:27.136,74569,t,0,0,0
3:27.228,74602,),0,0,2
3:27.247,74609,(,0,0,0
3:27.336,74641,p,0,0,0
3:27.403,74665,),0,0,0
3:27.444,74680,(,0,0,1
3:27.503,74701,N,0,0,0
3:27.544,74716,),0,0,1
3:27.647,74753,(,0,0,2
3:27.747,74789,t,0,0,5
3:27.839,74822,t,0,0,5
3:27.897,74843,),0,0,2
3:28.081,74909,(,0,0,0
3:28.153,74935,p,0,0,0
3:28.189,74948,),0,0,0
3:28.211,74956,(,0,0,1
3:28.261,74974,N,0,0,0
3:28.292,74985,),0,0,1
3:28.442,75039,(,0,0,2
3:28.503,75061,t,0,0,0
3:28.611,75100,),0,0,2
3:28.836,75181,(,0,0,1
3:28.892,75201,N,0,0,0
3:29.008,75243,),0,0,1
3:29.078,75268,(,0,0,2
3:29.131,75287,t,0,0,0
3:29.194,75310,),0,0,2
3:29.467,75408,(,0,0,1
3:29.519,75427,N,0,0,0
3:29.558,75441,),0,0,1
3:29.656,75476,(,0,0,2
3:29.742,75507,t,0,0,0
3:29.803,75529,),0,0,2
3:30.017,75606,(,0,0,0
3:30.078,75628,p,0,0,0
3:30.122,75644,),0,0,0
3:30.225,75681,(,0,0,1
3:30.306,75710,N,0,0,0
3:30.347,75725,),0,0,1
3:30.489,75776,(,0,0,2
3:30.564,75803,t,0,0,5
3:30.644,75832,t,0,0,5
3:30.711,75856,),0,0,2
3:30.731,75863,(,0,0,0
3:30.800,75888,p,0,0,0
3:30.833,75900,),0,0,0
3:30.892,75921,(,0,0,1
3:30.944,75940,N,0,0,0
3:30.975,75951,),0,0,1
3:31.272,76058,(,0,0,2
3:31.317,76074,t,0,0,0
3:31.369,76093,),0,0,2
3:31.511,76144,(,0,0,0
3:31.556,76160,p,0,0,0
3:31.633,76188,),0,0,0
3:31.656,76196,(,0,0,1
3:31.714,76217,N,0,0,0
3:31.744,76228,),0,0,1
3:31.864,76271,(,0,0,2
3:31.947,76301,t,0,0,5
3:32.008,76323,t,0,0,5
3:32.050,76338,),0,0,2
3:32.194,76390,(,0,0,0
3:32.222,76400,p,0,0,0
3:32.250,76410,),0,0,0
3:32.269,76417,(,0,0,1
3:32.322,76436,N,0,0,0
3:32.353,76447,),0,0,1
3:32.478,76492,(,0,0,2
3:32.583,76530,t,0,0,0
3:32.639,76550,),0,0,2
3:32.914,76649,(,0,0,0
3:32.972,76670,p,0,0,0
3:33.075,76707,),0,0,0
3:33.103,76717,(,0,0,1
3:33.164,76739,N,0,0,0
3:33.206,76754,),0,0,1
3:33.392,76821,(,0,0,2
3:33.442,76839,t,0,0,0
3:33.511,76864,),0,0,2
3:33.572,76886,(,0,0,0
3:33.683,76926,p,0,0,0
3:33.725,76941,),0,0,0
3:33.744,76948,(,0,0,1
3:33.800,76968,N,0,0,0
3:33.831,76979,),0,0,1
3:33.914,77009,(,0,0,2
3:34.050,77058,t,0,0,5
3:34.167,77100,t,0,0,5
3:34.219,77119,),0,0,2
3:34.633,77268,(,0,0,0
3:34.658,77277,p,0,0,0
3:34.700,77292,),0,0,0
3:34.739,77306,(,0,0,1
3:34.794,77326,N,0,0,0
3:34.839,77342,),0,0,1
3:35.072,77426,(,0,0,2
3:35.181,77465,t,0,0,4
3:35.239,77486,t,0,0,4
3:35.250,77490,),0,0,2
3:35.772,77678,(,0,0,0
3:35.811,77692,p,0,0,0
3:35.850,77706,),0,0,0
3:35.875,77715,(,0,0,1
3:35.922,77732,N,0,0,0
3:35.953,77743,),0,0,1
3:36.086,77791,(,0,0,2
3:36.164,77819,t,0,0,0
3:36.239,77846,),0,0,2
3:36.342,77883,(,0,0,0
3:36.383,77898,p,0,0,0
3:36.458,77925,),0,0,0
3:36.475,77931,(,0,0,1
3:36.522,77948,N,0,0,0
3:36.558,77961,),0,0,1
3:36.600,77976,(,0,0,2
3:36.642,77991,t,0,0,1
3:36.725,78021,),0,0,2
3:36.750,78030,(,0,0,0
3:36.794,78046,p,0,0,0
3:36.836,78061,),0,0,0
3:36.886,78079,(,0,0,1
3:36.939,78098,N,0,0,0
3:37.094,78154,),0,0,1
3:37.153,78175,(,0,0,2
3:37.194,78190,t,0,0,1
3:37.225,78201,),0,0,2
3:37.411,78268,(,0,0,0
3:37.467,78288,p,0,0,0
3:37.533,78312,),0,0,0
3:37.550,78318,(,0,0,1
3:37.606,78338,N,0,0,0
3:37.639,78350,),0,0,1
3:37.739,78386,t,0,0,2
3:37.847,78425,),0,0,2
3:37.953,78463,(,0,0,1
3:38.033,78492,N,0,0,0
3:38.067,78504,),0,0,1
3:38.219,78559,(,0,0,2
3:38.281,78581,t,0,0,0
3:38.358,78609,),0,0,2
3:38.486,78655,(,0,0,0
3:38.550,78678,p,0,0,0
3:38.583,78690,),0,0,0
3:38.600,78696,(,0,0,1
3:38.656,78716,N,0,0,0
3:38.686,78727,),0,0,1
3:38.856,78788,(,0,0,2
3:38.908,78807,t,0,0,0
3:39.022,78848,),0,0,2
3:39.075,78867,(,0,0,0
3:39.150,78894,p,0,0,0
3:39.219,78919,),0,0,0
3:39.258,78933,(,0,0,1
3:39.311,78952,N,0,0,0
3:39.361,78970,),0,0,1
3:39.467,79008,(,0,0,2
3:39.544,79036,t,0,0,5
3:39.633,79068,t,0,0,5
3:39.686,79087,),0,0,2
3:39.706,79094,(,0,0,0
3:39.750,79110,p,0,0,0
3:39.800,79128,),0,0,0
3:39.903,79165,(,0,0,1
3:39.961,79186,N,0,0,0
3:39.992,79197,),0,0,1
3:40.175,79263,(,0,0,2
3:40.233,79284,t,0,0,0
3:40.347,79325,),0,0,2
3:40.369,79333,(,0,0,0
3:40.408,79347,p,0,0,0
3:40.453,79363,),0,0,0
3:40.583,79410,(,0,0,1
3:40.636,79429,N,0,0,0
3:40.667,79440,),0,0,1
3:40.817,79494,(,0,0,2
3:40.881,79517,t,0,0,0
3:40.969,79549,),0,0,2
3:41.039,79574,(,0,0,0
3:41.083,79590,p,0,0,0
3:41.178,79624,),0,0,0
3:41.192,79629,(,0,0,1
3:41.278,79660,N,0,0,0
3:41.311,79672,),0,0,1
3:41.439,79718,(,0,0,2
3:41.519,79747,t,0,0,5
3:41.594,79774,t,0,0,5
3:41.675,79803,),0,0,2
3:41.819,79855,(,0,0,1
3:41.886,79879,N,0,0,0
3:41.925,79893,),0,0,1
3:42.047,79937,(,0,0,2
3:42.119,79963,t,0,0,5
3:42.189,79988,t,0,0,5
3:42.261,80014,),0,0,2
3:42.586,80131,(,0,0,0
3:42.647,80153,p,0,0,0
3:42.744,80188,),0,0,0
3:42.844,80224,(,0,0,1
3:42.908,80247,N,0,0,0
3:42.939,80258,),0,0,1
3:43.056,80300,(,0,0,2
3:43.139,80330,t,0,0,0
3:43.197,80351,),0,0,2
3:43.531,80471,(,0,0,0
3:43.589,80492,p,0,0,0
3:43.647,80513,),0,0,0
3:43.706,80534,(,0,0,1
3:43.761,80554,N,0,0,0
3:43.789,80564,),0,0,1
3:43.861,80590,(,0,0,2
3:44.008,80643,t,0,0,5
3:44.094,80674,t,0,0,5
3:44.144,80692,),0,0,2
3:44.311,80752,(,0,0,0
3:44.389,80780,p,0,0,0
3:44.436,80797,),0,0,0
3:44.497,80819,(,0,0,1
3:44.558,80841,N,0,0,0
3:44.597,80855,),0,0,1
3:44.689,80888,(,0,0,2
3:44.792,80925,t,0,0,0
3:44.858,80949,),0,0,2
3:45.050,81018,(,0,0,0
3:45.122,81044,p,0,0,0
3:45.200,81072,),0,0,0
3:45.233,81084,(,0,0,1
3:45.319,81115,N,0,0,0
3:45.350,81126,),0,0,1
3:45.492,81177,(,0,0,2
3:45.575,81207,t,0,0,0
3:45.683,81246,),0,0,2
3:45.878,81316,(,0,0,0
3:45.914,81329,p,0,0,0
3:45.978,81352,),0,0,0
3:46.019,81367,(,0,0,1
3:46.081,81389,N,0,0,0
3:46.122,81404,),0,0,1
3:46.219,81439,(,0,0,2
3:46.311,81472,t,0,0,0
3:46.372,81494,),0,0,2
3:46.667,81600,(,0,0,0
3:46.739,81626,p,0,0,0
3:46.789,81644,),0,0,0
3:46.819,81655,(,0,0,1
3:46.881,81677,N,0,0,0
3:46.911,81688,),0,0,1
3:47.064,81743,(,0,0,2
3:47.139,81770,t,0,0,5
3:47.247,81809,t,0,0,5
3:47.292,81825,),0,0,2
3:47.353,81847,(,0,0,0
3:47.400,81864,p,0,0,0
3:47.439,81878,),0,0,0
3:47.522,81908,(,0,0,1
3:47.578,81928,N,0,0,0
3:47.608,81939,),0,0,1
3:47.717,81978,(,0,0,2
3:47.806,82010,t,0,0,5
3:47.900,82044,t,0,0,5
3:47.939,82058,),0,0,2
3:47.997,82079,(,0,0,0
3:48.031,82091,p,0,0,0
3:48.064,82103,),0,0,0
3:48.192,82149,(,0,0,1
3:48.236,82165,N,0,0,0
3:48.275,82179,),0,0,1
3:48.369,82213,(,0,0,2
3:48.453,82243,t,0,0,0
3:48.533,82272,),0,0,2
3:48.722,82340,(,0,0,0
3:48.778,82360,p,0,0,0
3:48.861,82390,),0,0,0
3:48.875,82395,(,0,0,1
3:48.933,82416,N,0,0,0
3:48.961,82426,),0,0,1
3:49.547,82637,(,0,0,0
3:49.597,82655,p,0,0,0
3:49.639,82670,),0,0,0
3:49.747,82709,(,0,0,1
3:49.822,82736,N,0,0,0
3:49.853,82747,),0,0,1
3:50.031,82811,(,0,0,2
3:50.086,82831,t,0,0,5
3:50.197,82871,t,0,0,5
3:50.261,82894,),0,0,2
3:50.411,82948,(,0,0,0
3:50.494,82978,p,0,0,0
3:50.575,83007,),0,0,0
3:50.597,83015,(,0,0,1
3:50.650,83034,N,0,0,0
3:50.689,83048,),0,0,1
3:50.767,83076,(,0,0,2
3:50.881,83117,t,0,0,5
3:51.025,83169,t,0,0,5
3:51.133,83208,),0,0,2
3:51.158,83217,(,0,0,0
3:51.225,83241,p,0,0,0
3:51.292,83265,),0,0,0
3:51.350,83286,(,0,0,1
3:51.408,83307,N,0,0,0
3:51.453,83323,),0,0,1
3:51.561,83362,(,0,0,2
3:51.653,83395,t,0,0,5
3:51.722,83420,t,0,0,5
3:51.761,83434,),0,0,2
3:51.897,83483,(,0,0,0
3:51.928,83494,p,0,0,0
3:51.972,83510,),0,0,0
3:52.211,83596,(,0,0,1
3:52.264,83615,N,0,0,0
3:52.294,83626,),0,0,1
3:52.347,83645,(,0,0,2
3:52.406,83666,t,0,0,4
3:52.514,83705,t,0,0,4
3:52.611,83740,),0,0,2
3:52.625,83745,(,0,0,0
3:52.703,83773,p,0,0,0
3:52.767,83796,),0,0,0
3:52.856,83828,(,0,0,1
3:52.908,83847,N,0,0,0
3:52.936,83857,),0,0,1
3:53.061,83902,(,0,0,2
3:53.139,83930,t,0,0,5
3:53.228,83962,t,0,0,5
3:53.281,83981,),0,0,2
3:53.572,84086,(,0,0,0
3:53.603,84097,p,0,0,0
3:53.656,84116,),0,0,0
3:53.711,84136,(,0,0,1
3:53.761,84154,N,0,0,0
3:53.800,84168,),0,0,1
3:53.925,84213,(,0,0,2
3:53.997,84239,t,0,0,5
3:54.078,84268,t,0,0,5
3:54.122,84284,),0,0,2
3:54.236,84325,(,0,0,0
3:54.281,84341,p,0,0,0
3:54.367,84372,),0,0,0
3:54.503,84421,(,0,0,1
3:54.589,84452,N,0,0,0
3:54.619,84463,),0,0,1
3:54.697,84491,(,0,0,2
3:54.819,84535,t,0,0,5
3:54.914,84569,t,0,0,5
3:54.964,84587,),0,0,2
3:55.128,84646,(,0,0,0
3:55.169,84661,p,0,0,0
3:55.253,84691,),0,0,0
3:55.289,84704,(,0,0,1
3:55.336,84721,N,0,0,0
3:55.375,84735,),0,0,1
3:55.464,84767,(,0,0,2
3:55.558,84801,t,0,0,0
3:55.650,84834,),0,0,2
3:55.653,84835,(,0,0,0
3:55.708,84855,p,0,0,0
3:55.803,84889,),0,0,0
3:55.847,84905,(,0,0,1
3:55.906,84926,N,0,0,0
3:55.947,84941,),0,0,1
3:56.053,84979,(,0,0,2
3:56.144,85012,t,0,0,0
3:56.214,85037,),0,0,2
3:56.383,85098,(,0,0,1
3:56.439,85118,N,0,0,0
3:56.469,85129,),0,0,1
3:56.617,85182,(,0,0,2
3:56.683,85206,t,0,0,0
3:56.769,85237,),0,0,2
3:56.797,85247,(,0,0,0
3:56.864,85271,p,0,0,0
3:56.919,85291,),0,0,0
3:56.936,85297,(,0,0,1
3:57.011,85324,N,0,0,0
3:57.044,85336,),0,0,1
3:57.150,85374,(,0,0,2
3:57.256,85412,t,0,0,5
3:57.325,85437,t,0,0,5
3:57.378,85456,),0,0,2
3:57.500,85500,(,0,0,0
3:57.539,85514,p,0,0,0
3:57.628,85546,),0,0,0
3:57.650,85554,(,0,0,1
3:57.714,85577,N,0,0,0
3:57.758,85593,),0,0,1
3:57.850,85626,(,0,0,2
3:57.964,85667,t,0,0,0
3:58.025,85689,),0,0,2
3:58.244,85768,(,0,0,0
3:58.319,85795,p,0,0,0
3:58.358,85809,),0,0,0
3:58.369,85813,(,0,0,1
3:58.444,85840,N,0,0,0
3:58.475,85851,),0,0,1
3:58.658,85917,(,0,0,2
3:58.706,85934,t,0,0,0
3:58.767,85956,),0,0,2
3:58.842,85983,(,0,0,1
3:58.897,86003,N,0,0,0
3:58.931,86015,),0,0,1
3:59.069,86065,(,0,0,2
3:59.131,86087,t,0,0,0
3:59.206,86114,),0,0,2
3:59.250,86130,(,0,0,0
3:59.283,86142,p,0,0,0
3:59.306,86150,),0,0,0
3:59.447,86201,(,0,0,1
3:59.494,86218,N,0,0,0
3:59.525,86229,),0,0,1
3:59.625,86265,(,0,0,2
3:59.728,86302,t,0,0,0
3:59.781,86321,),0,0,2
3:59.914,86369,(,0,0,1
3:59.969,86389,N,0,0,0
4:00.000,86400,),0,0,1
4:00.067,86424,(,0,0,2
4:00.189,86468,t,0,0,5
4:00.242,86487,t,0,0,5
4:00.269,86497,),0,0,2
4:00.350,86526,(,0,0,0
4:00.381,86537,p,0,0,0
4:00.419,86551,),0,0,0
4:00.531,86591,(,0,0,1
4:00.592,86613,N,0,0,0
4:00.744,86668,),0,0,1
4:00.769,86677,(,0,0,2
4:00.847,86705,t,0,0,5
4:01.008,86763,t,0,0,5
4:01.039,86774,),0,0,2
4:01.053,86779,(,0,0,0
4:01.136,86809,p,0,0,0
4:01.206,86834,),0,0,0
4:01.236,86845,(,0,0,1
4:01.289,86864,N,0,0,0
4:01.447,86921,),0,0,1
4:01.714,87017,(,0,0,0
4:01.750,87030,p,0,0,0
4:01.822,87056,),0,0,0
4:01.886,87079,(,0,0,1
4:01.969,87109,N,0,0,0
4:02.078,87148,),0,0,1
4:02.169,87181,(,0,0,2
4:02.214,87197,t,0,0,5
4:02.322,87236,t,0,0,5
4:02.369,87253,),0,0,2
4:02.394,87262,(,0,0,0
4:02.464,87287,p,0,0,0
4:02.511,87304,),0,0,0
4:02.578,87328,(,0,0,1
4:02.661,87358,N,0,0,0
4:02.703,87373,),0,0,1
4:02.767,87396,(,0,0,2
4:02.833,87420,t,0,0,0
4:02.853,87427,),0,0,2
4:02.883,87438,(,0,0,0
4:02.922,87452,p,0,0,0
4:03.039,87494,),0,0,0
4:03.081,87509,(,0,0,1
4:03.172,87542,N,0,0,0
4:03.306,87590,),0,0,1
4:03.342,87603,(,0,0,2
4:03.433,87636,t,0,0,0
4:03.494,87658,),0,0,2
4:03.614,87701,(,0,0,0
4:03.658,87717,p,0,0,0
4:03.717,87738,),0,0,0
4:03.736,87745,(,0,0,1
4:03.794,87766,N,0,0,0
4:03.825,87777,),0,0,1
4:03.992,87837,(,0,0,2
4:04.036,87853,t,0,0,0
4:04.108,87879,),0,0,2
4:04.128,87886,(,0,0,0
4:04.178,87904,p,0,0,0
4:04.211,87916,),0,0,0
4:04.367,87972,(,0,0,1
4:04.419,87991,N,0,0,0
4:04.586,88051,),0,0,1
4:04.589,88052,(,0,0,2
4:04.672,88082,t,0,0,0
4:04.764,88115,),0,0,2
4:04.800,88128,(,0,0,0
4:04.867,88152,p,0,0,0
4:04.939,88178,),0,0,0
4:04.956,88184,(,0,0,1
4:05.011,88204,N,0,0,0
4:05.039,88214,),0,0,1
4:05.150,88254,(,0,0,2
4:05.239,88286,t,0,0,0
4:05.311,88312,),0,0,2
4:05.386,88339,(,0,0,1
4:05.444,88360,N,0,0,0
4:05.539,88394,),0,0,1
4:05.569,88405,(,0,0,2
4:05.600,88416,t,0,0,4
4:05.714,88457,t,0,0,4
4:05.775,88479,),0,0,2
4:05.811,88492,(,0,0,0
4:05.861,88510,p,0,0,0
4:05.897,88523,),0,0,0
4:06.011,88564,(,0,0,1
4:06.072,88586,N,0,0,0
4:06.103,88597,),0,0,1
4:06.222,88640,(,0,0,0
4:06.314,88673,p,0,0,0
4:06.361,88690,),0,0,0
4:06.394,88702,(,0,0,1
4:06.461,88726,N,0,0,0
4:06.492,88737,),0,0,1
4:06.586,88771,(,0,0,2
4:06.700,88812,t,0,0,0
4:06.747,88829,),0,0,2
4:06.986,88915,(,0,0,0
4:07.011,88924,p,0,0,0
4:07.050,88938,),0,0,0
4:07.156,88976,(,0,0,1
4:07.244,89008,N,0,0,0
4:07.283,89022,),0,0,1
4:07.428,89074,(,0,0,2
4:07.494,89098,t,0,0,0
4:07.556,89120,),0,0,2
4:07.792,89205,(,0,0,0
4:07.825,89217,p,0,0,0
4:07.875,89235,),0,0,0
4:07.922,89252,(,0,0,1
4:07.975,89271,N,0,0,0
4:08.006,89282,),0,0,1
4:08.189,89348,(,0,0,2
4:08.239,89366,t,0,0,0
4:08.303,89389,),0,0,2
4:08.367,89412,(,0,0,0
4:08.406,89426,p,0,0,0
4:08.519,89467,),0,0,0
4:08.536,89473,(,0,0,1
4:08.600,89496,N,0,0,0
4:08.633,89508,),0,0,1
4:08.794,89566,(,0,0,2
4:08.847,89585,t,0,0,0
4:08.933,89616,),0,0,2
4:09.292,89745,(,0,0,1
4:09.367,89772,N,0,0,0
4:09.397,89783,),0,0,1
4:09.567,89844,(,0,0,2
4:09.628,89866,t,0,0,5
4:09.708,89895,t,0,0,5
4:09.778,89920,),0,0,2
4:09.897,89963,(,0,0,0
4:09.933,89976,p,0,0,0
4:09.992,89997,),0,0,0
4:10.081,90029,(,0,0,1
4:10.139,90050,N,0,0,0
4:10.181,90065,),0,0,1
4:10.311,90112,(,0,0,2
4:10.350,90126,t,0,0,0
4:10.464,90167,),0,0,2
4:10.681,90245,(,0,0,0
4:10.750,90270,p,0,0,0
4:10.828,90298,),0,0,0
4:10.850,90306,(,0,0,1
4:10.933,90336,N,0,0,0
4:10.964,90347,),0,0,1
4:11.403,90505,(,0,0,0
4:11.439,90518,p,0,0,0
4:11.481,90533,),0,0,0
4:11.619,90583,(,0,0,1
4:11.692,90609,N,0,0,0
4:11.825,90657,),0,0,1
4:11.872,90674,(,0,0,2
4:11.922,90692,t,0,0,5
4:11.994,90718,t,0,0,5
4:12.061,90742,),0,0,2
4:12.081,90749,(,0,0,0
4:12.167,90780,p,0,0,0
4:12.200,90792,),0,0,0
4:12.281,90821,(,0,0,1
4:12.333,90840,N,0,0,0
4:12.375,90855,),0,0,1
4:12.458,90885,(,0,0,2
4:12.561,90922,t,0,0,0
4:12.650,90954,),0,0,2
4:12.722,90980,(,0,0,0
4:12.761,90994,p,0,0,0
4:12.844,91024,),0,0,0
4:12.858,91029,(,0,0,1
4:12.903,91045,N,0,0,0
4:12.936,91057,),0,0,1
4:13.058,91101,(,0,0,2
4:13.136,91129,t,0,0,0
4:13.225,91161,),0,0,2
4:13.339,91202,(,0,0,0
4:13.381,91217,p,0,0,0
4:13.425,91233,),0,0,0
4:13.514,91265,(,0,0,1
4:13.564,91283,N,0,0,0
4:13.594,91294,),0,0,1
4:13.678,91324,(,0,0,2
4:13.789,91364,t,0,0,0
4:13.858,91389,),0,0,2
4:13.869,91393,(,0,0,0
4:13.944,91420,p,0,0,0
4:13.994,91438,),0,0,0
4:14.128,91486,(,0,0,1
4:14.219,91519,N,0,0,0
4:14.258,91533,),0,0,1
4:14.342,91563,(,0,0,2
4:14.444,91600,t,0,0,0
4:14.514,91625,),0,0,2
4:14.581,91649,(,0,0,0
4:14.619,91663,p,0,0,0
4:14.644,91672,),0,0,0
4:14.797,91727,(,0,0,1
4:14.869,91753,N,0,0,0
4:14.967,91788,),0,0,1
4:15.072,91826,(,0,0,2
4:15.122,91844,t,0,0,0
4:15.225,91881,),0,0,2
4:15.322,91916,(,0,0,0
4:15.442,91959,p,0,0,0
4:15.489,91976,),0,0,0
4:15.553,91999,(,0,0,1
4:15.614,92021,N,0,0,0
4:15.644,92032,),0,0,1
4:15.800,92088,(,0,0,2
4:15.867,92112,t,0,0,5
4:15.947,92141,t,0,0,5
4:16.008,92163,),0,0,2
4:16.297,92267,(,0,0,0
4:16.347,92285,p,0,0,0
4:16.442,92319,),0,0,0
4:16.589,92372,(,0,0,1
4:16.647,92393,N,0,0,0
4:16.686,92407,),0,0,1
4:16.767,92436,(,0,0,2
4:16.878,92476,t,0,0,0
4:16.947,92501,),0,0,2
4:16.961,92506,(,0,0,0
4:17.008,92523,p,0,0,0
4:17.056,92540,),0,0,0
4:17.133,92568,(,0,0,1
4:17.194,92590,N,0,0,0
4:17.225,92601,),0,0,1
4:17.306,92630,(,0,0,2
4:17.419,92671,t,0,0,5
4:17.475,92691,t,0,0,5
4:17.511,92704,),0,0,2
4:17.592,92733,(,0,0,0
4:17.633,92748,p,0,0,0
4:17.667,92760,),0,0,0
4:17.789,92804,(,0,0,1
4:17.844,92824,N,0,0,0
4:17.878,92836,),0,0,1
4:17.956,92864,(,0,0,2
4:18.075,92907,t,0,0,0
4:18.144,92932,),0,0,2
4:18.264,92975,(,0,0,0
4:18.308,92991,p,0,0,0
4:18.383,93018,),0,0,0
4:18.419,93031,(,0,0,1
4:18.467,93048,N,0,0,0
4:18.506,93062,),0,0,1
4:18.606,93098,(,0,0,2
4:18.692,93129,t,0,0,0
4:18.761,93154,),0,0,2
4:18.797,93167,(,0,0,0
4:18.864,93191,p,0,0,0
4:18.903,93205,),0,0,0
4:18.944,93220,(,0,0,1
4:18.997,93239,N,0,0,0
4:19.103,93277,),0,0,1
4:19.325,93357,(,0,0,1
4:19.378,93376,N,0,0,0
4:19.411,93388,),0,0,1
4:19.544,93436,(,0,0,2
4:19.603,93457,t,0,0,0
4:19.661,93478,),0,0,2
4:19.672,93482,(,0,0,0
4:19.739,93506,p,0,0,0
4:19.828,93538,),0,0,0
4:19.925,93573,(,0,0,1
4:20.014,93605,N,0,0,0
4:20.044,93616,),0,0,1
4:20.211,93676,(,0,0,2
4:20.267,93696,t,0,0,0
4:20.303,93709,),0,0,2
4:20.683,93846,(,0,0,0
4:20.783,93882,p,0,0,0
4:20.858,93909,),0,0,0
4:20.936,93937,(,0,0,1
4:20.994,93958,N,0,0,0
4:21.042,93975,),0,0,1
4:21.158,94017,(,0,0,2
4:21.253,94051,t,0,0,0
4:21.311,94072,),0,0,2
4:21.450,94122,(,0,0,1
4:21.525,94149,N,0,0,0
4:21.631,94187,),0,0,1
4:21.733,94224,(,0,0,2
4:21.783,94242,t,0,0,0
4:21.875,94275,),0,0,2
4:21.992,94317,(,0,0,0
4:22.036,94333,p,0,0,0
4:22.133,94368,),0,0,0
4:22.150,94374,(,0,0,1
4:22.197,94391,N,0,0,0
4:22.228,94402,),0,0,1
4:22.361,94450,(,0,0,2
4:22.444,94480,t,0,0,0
4:22.503,94501,),0,0,2
4:22.617,94542,(,0,0,0
4:22.689,94568,p,0,0,0
4:22.753,94591,),0,0,0
4:22.819,94615,(,0,0,1
4:22.903,94645,N,0,0,0
4:22.933,94656,),0,0,1
4:23.061,94702,(,0,0,2
4:23.150,94734,t,0,0,5
4:23.231,94763,t,0,0,5
4:23.283,94782,),0,0,2
4:23.347,94805,(,0,0,0
4:23.386,94819,p,0,0,0
4:23.433,94836,),0,0,0
4:23.483,94854,(,0,0,1
4:23.539,94874,N,0,0,0
4:23.581,94889,),0,0,1
4:23.686,94927,(,0,0,2
4:23.769,94957,t,0,0,0
4:23.847,94985,),0,0,2
4:23.958,95025,(,0,0,0
4:23.989,95036,p,0,0,0
4:24.042,95055,),0,0,0
4:24.131,95087,(,0,0,1
4:24.200,95112,N,0,0,0
4:24.228,95122,),0,0,1
4:24.289,95144,t,0,0,2
4:24.389,95180,),0,0,2
4:24.392,95181,(,0,0,0
4:24.425,95193,p,0,0,0
4:24.489,95216,),0,0,0
4:24.519,95227,(,0,0,1
4:24.575,95247,N,0,0,0
4:24.614,95261,),0,0,1
4:24.689,95288,(,0,0,2
4:24.794,95326,t,0,0,0
4:24.858,95349,),0,0,2
4:25.300,95508,(,0,0,0
4:25.328,95518,p,0,0,0
4:25.378,95536,),0,0,0
4:25.494,95578,(,0,0,1
4:25.553,95599,N,0,0,0
4:25.583,95610,),0,0,1
4:25.747,95669,(,0,0,2
4:25.817,95694,t,0,0,0
4:25.881,95717,),0,0,2
4:26.050,95778,(,0,0,0
4:26.081,95789,p,0,0,0
4:26.097,95795,),0,0,0
4:26.153,95815,(,0,0,1
4:26.208,95835,N,0,0,0
4:26.250,95850,),0,0,1
4:26.356,95888,(,0,0,2
4:26.472,95930,t,0,0,0
4:26.519,95947,),0,0,2
4:26.914,96089,(,0,0,0
4:26.986,96115,p,0,0,0
4:27.022,96128,),0,0,0
4:27.064,96143,(,0,0,1
4:27.122,96164,N,0,0,0
4:27.156,96176,),0,0,1
4:27.247,96209,(,0,0,2
4:27.356,96248,t,0,0,0
4:27.550,96318,),0,0,2
4:27.747,96389,(,0,0,0
4:27.789,96404,p,0,0,0
4:27.883,96438,),0,0,0
4:27.908,96447,(,0,0,1
4:27.964,96467,N,0,0,0
4:27.994,96478,),0,0,1
4:28.133,96528,(,0,0,2
4:28.228,96562,t,0,0,0
4:28.333,96600,),0,0,2
4:28.444,96640,(,0,0,0
4:28.514,96665,p,0,0,0
4:28.556,96680,),0,0,0
4:28.675,96723,(,0,0,1
4:28.731,96743,N,0,0,0
4:28.769,96757,),0,0,1
4:28.889,96800,(,0,0,2
4:28.947,96821,t,0,0,0
4:29.039,96854,),0,0,2
4:29.122,96884,(,0,0,1
4:29.175,96903,N,0,0,0
4:29.267,96936,),0,0,1
4:29.356,96968,(,0,0,2
4:29.422,96992,t,0,0,0
4:29.486,97015,),0,0,2
4:29.558,97041,(,0,0,0
4:29.592,97053,p,0,0,0
4:29.622,97064,),0,0,0
4:29.686,97087,(,0,0,1
4:29.778,97120,N,0,0,0
4:29.878,97156,),0,0,1
4:29.897,97163,(,0,0,2
4:30.006,97202,t,0,0,0
4:30.064,97223,),0,0,2
4:30.358,97329,(,0,0,1
4:30.419,97351,N,0,0,0
4:30.464,97367,),0,0,1
4:30.614,97421,(,0,0,2
4:30.661,97438,t,0,0,0
4:30.731,97463,),0,0,2
4:30.781,97481,(,0,0,0
4:30.806,97490,p,0,0,0
4:30.836,97501,),0,0,0
4:30.969,97549,(,0,0,1
4:31.019,97567,N,0,0,0
4:31.047,97577,),0,0,1
4:31.203,97633,(,0,0,2
4:31.253,97651,t,0,0,0
4:31.347,97685,),0,0,2
4:31.378,97696,(,0,0,0
4:31.456,97724,p,0,0,0
4:31.511,97744,),0,0,0
4:31.597,97775,(,0,0,1
4:31.678,97804,N,0,0,0
4:31.708,97815,),0,0,1
4:31.844,97864,(,0,0,2
4:31.914,97889,t,0,0,5
4:32.019,97927,t,0,0,5
4:32.081,97949,),0,0,2
4:32.764,98195,(,0,0,1
4:32.811,98212,N,0,0,0
4:32.850,98226,),0,0,1
4:32.983,98274,(,0,0,2
4:33.067,98304,t,0,0,5
4:33.147,98333,t,0,0,5
4:33.194,98350,),0,0,2
4:33.397,98423,(,0,0,0
4:33.472,98450,p,0,0,0
4:33.531,98471,),0,0,0
4:33.606,98498,(,0,0,1
4:33.658,98517,N,0,0,0
4:33.700,98532,),0,0,1
4:33.789,98564,(,0,0,2
4:33.900,98604,t,0,0,0
4:33.964,98627,),0,0,2
4:34.008,98643,(,0,0,0
4:34.089,98672,p,0,0,0
4:34.150,98694,),0,0,0
4:34.178,98704,(,0,0,1
4:34.233,98724,N,0,0,0
4:34.344,98764,),0,0,1
4:34.397,98783,(,0,0,2
4:34.469,98809,t,0,0,5
4:34.569,98845,t,0,0,5
4:34.653,98875,),0,0,2
4:34.822,98936,(,0,0,0
4:34.869,98953,p,0,0,0
4:34.967,98988,),0,0,0
4:34.983,98994,(,0,0,1
4:35.033,99012,N,0,0,0
4:35.064,99023,),0,0,1
4:35.217,99078,(,0,0,2
4:35.286,99103,t,0,0,5
4:35.361,99130,t,0,0,5
4:35.442,99159,),0,0,2
4:35.781,99281,p,0,0,0
4:35.797,99287,),0,0,0
4:35.842,99303,(,0,0,1
4:35.944,99340,N,0,0,0
4:35.975,99351,),0,0,1
4:36.661,99598,(,0,0,2
4:36.697,99611,t,0,0,0
4:36.742,99627,),0,0,2
4:37.433,99876,(,0,0,1
4:37.489,99896,N,0,0,0
4:37.519,99907,),0,0,1
4:37.575,99927,(,0,0,2
4:37.725,99981,t,0,0,5
4:37.817   100014,t,0,0,5
4:37.858   100029,),0,0,2
4:37.972   100070,(,0,0,0
4:38.011   100084,p,0,0,0
4:38.069   100105,),0,0,0
4:38.117   100122,(,0,0,1
4:38.178   100144,N,0,0,0
4:38.206   100154,),0,0,1
4:38.886   100399,(,0,0,2
4:38.925   100413,t,0,0,0
4:38.981   100433,),0,0,2
4:39.739   100706,(,0,0,1
4:39.819   100735,N,0,0,0
4:39.850   100746,),0,0,1
4:40.019   100807,(,0,0,2
4:40.072   100826,t,0,0,5
4:40.306   100910,t,0,0,5
4:40.339   100922,),0,0,2
4:40.556   101000,(,0,0,0
4:40.597   101015,p,0,0,0
4:40.667   101040,),0,0,0
4:40.686   101047,(,0,0,1
4:40.739   101066,N,0,0,0
4:40.786   101083,),0,0,1
4:40.900   101124,(,0,0,2
4:40.978   101152,t,0,0,0
4:41.061   101182,),0,0,2
4:41.272   101258,(,0,0,0
4:41.322   101276,p,0,0,0
4:41.358   101289,),0,0,0
4:41.397   101303,(,0,0,1
4:41.453   101323,N,0,0,0
4:41.486   101335,),0,0,1
4:41.558   101361,(,0,0,2
4:41.678   101404,t,0,0,0
4:41.736   101425,),0,0,2
4:41.911   101488,(,0,0,1
4:42.000   101520,N,0,0,0
4:42.028   101530,),0,0,1
4:42.156   101576,(,0,0,2
4:42.219   101599,t,0,0,0
4:42.292   101625,),0,0,2
4:42.586   101731,(,0,0,1
4:42.647   101753,N,0,0,0
4:42.678   101764,),0,0,1
4:42.814   101813,(,0,0,2
4:42.883   101838,t,0,0,0
4:42.942   101859,),0,0,2
4:43.300   101988,(,0,0,0
4:43.339   102002,p,0,0,0
4:43.372   102014,),0,0,0
4:43.389   102020,(,0,0,1
4:43.464   102047,N,0,0,0
4:43.494   102058,),0,0,1
4:43.536   102073,(,0,0,2
4:43.747   102149,t,0,0,5
4:43.831   102179,t,0,0,5
4:43.883   102198,),0,0,2
4:43.931   102215,(,0,0,0
4:44.000   102240,p,0,0,0
4:44.083   102270,),0,0,0
4:44.136   102289,(,0,0,1
4:44.186   102307,N,0,0,0
4:44.214   102317,),0,0,1
4:44.344   102364,(,0,0,2
4:44.419   102391,t,0,0,0
4:44.511   102424,),0,0,2
4:44.528   102430,(,0,0,0
4:44.558   102441,p,0,0,0
4:44.608   102459,),0,0,0
4:44.700   102492,(,0,0,1
4:44.789   102524,N,0,0,0
4:44.817   102534,),0,0,1
4:44.942   102579,(,0,0,0
4:45.017   102606,p,0,0,0
4:45.061   102622,),0,0,0
4:45.122   102644,(,0,0,1
4:45.178   102664,N,0,0,0
4:45.211   102676,),0,0,1
4:45.358   102729,(,0,0,2
4:45.414   102749,t,0,0,0
4:45.506   102782,),0,0,2
4:45.614   102821,(,0,0,0
4:45.675   102843,p,0,0,0
4:45.742   102867,),0,0,0
4:45.797   102887,(,0,0,1
4:45.853   102907,N,0,0,0
4:45.883   102918,),0,0,1
4:46.003   102961,(,0,0,2
4:46.122   103004,t,0,0,0
4:46.183   103026,),0,0,2
4:46.436   103117,(,0,0,0
4:46.469   103129,p,0,0,0
4:46.536   103153,),0,0,0
4:46.578   103168,(,0,0,1
4:46.636   103189,N,0,0,0
4:46.667   103200,),0,0,1
4:46.808   103251,(,0,0,2
4:46.897   103283,t,0,0,0
4:46.958   103305,),0,0,2
4:47.267   103416,(,0,0,1
4:47.325   103437,N,0,0,0
4:47.353   103447,),0,0,1
4:47.422   103472,(,0,0,2
4:47.575   103527,t,0,0,0
4:47.681   103565,),0,0,2
4:47.703   103573,(,0,0,0
4:47.756   103592,p,0,0,0
4:47.836   103621,),0,0,0
4:47.869   103633,(,0,0,1
4:47.942   103659,N,0,0,0
4:47.969   103669,),0,0,1
4:48.067   103704,(,0,0,2
4:48.167   103740,t,0,0,5
4:48.247   103769,t,0,0,5
4:48.308   103791,),0,0,2
4:48.483   103854,(,0,0,1
4:48.553   103879,N,0,0,0
4:48.661   103918,),0,0,1
4:48.706   103934,(,0,0,2
4:48.853   103987,t,0,0,0
4:48.992   104037,),0,0,2
4:49.142   104091,(,0,0,1
4:49.200   104112,N,0,0,0
4:49.231   104123,),0,0,1
4:49.297   104147,(,0,0,2
4:49.439   104198,t,0,0,5
4:49.522   104228,t,0,0,5
4:49.556   104240,),0,0,2
4:49.597   104255,(,0,0,0
4:49.625   104265,p,0,0,0
4:49.672   104282,),0,0,0
4:49.758   104313,(,0,0,1
4:49.822   104336,N,0,0,0
4:49.850   104346,),0,0,1
4:49.978   104392,(,0,0,2
4:50.047   104417,t,0,0,0
4:50.122   104444,),0,0,2
4:50.294   104506,(,0,0,0
4:50.358   104529,p,0,0,0
4:50.447   104561,),0,0,0
4:50.461   104566,(,0,0,1
4:50.547   104597,N,0,0,0
4:50.578   104608,),0,0,1
4:50.647   104633,(,0,0,2
4:50.817   104694,t,0,0,5
4:50.950   104742,t,0,0,5
4:50.981   104753,),0,0,2
4:51.283   104862,(,0,0,0
4:51.358   104889,p,0,0,0
4:51.456   104924,),0,0,0
4:51.467   104928,(,0,0,1
4:51.544   104956,N,0,0,0
4:51.575   104967,),0,0,1
4:52.364   105251,(,0,0,1
4:52.417   105270,N,0,0,0
4:52.447   105281,),0,0,1
4:52.533   105312,(,0,0,2
4:52.664   105359,t,0,0,0
4:52.728   105382,),0,0,2
4:52.944   105460,(,0,0,1
4:53.014   105485,N,0,0,0
4:53.044   105496,),0,0,1
4:53.181   105545,(,0,0,2
4:53.242   105567,t,0,0,0
4:53.342   105603,),0,0,2
4:53.736   105745,(,0,0,0
4:53.775   105759,p,0,0,0
4:53.836   105781,),0,0,0
4:53.869   105793,(,0,0,1
4:53.958   105825,N,0,0,0
4:53.989   105836,),0,0,1
4:54.161   105898,(,0,0,2
4:54.222   105920,t,0,0,0
4:54.278   105940,),0,0,2
4:54.303   105949,(,0,0,0
4:54.361   105970,p,0,0,0
4:54.417   105990,),0,0,0
4:54.514   106025,(,0,0,1
4:54.575   106047,N,0,0,0
4:54.603   106057,),0,0,1
4:54.731   106103,(,0,0,0
4:54.794   106126,p,0,0,0
4:54.856   106148,),0,0,0
4:54.883   106158,(,0,0,1
4:54.950   106182,N,0,0,0
4:55.064   106223,),0,0,1
4:55.097   106235,(,0,0,2
4:55.186   106267,t,0,0,0
4:55.253   106291,),0,0,2
4:55.344   106324,(,0,0,0
4:55.428   106354,p,0,0,0
4:55.472   106370,),0,0,0
4:55.589   106412,(,0,0,1
4:55.644   106432,N,0,0,0
4:55.672   106442,),0,0,1
4:55.758   106473,(,0,0,2
4:55.900   106524,t,0,0,0
4:55.958   106545,),0,0,2
4:56.161   106618,(,0,0,1
4:56.208   106635,N,0,0,0
4:56.242   106647,),0,0,1
4:56.350   106686,(,0,0,2
4:56.447   106721,t,0,0,0
4:56.511   106744,),0,0,2
4:56.797   106847,(,0,0,0
4:56.833   106860,p,0,0,0
4:56.867   106872,),0,0,0
4:57.014   106925,(,0,0,1
4:57.075   106947,N,0,0,0
4:57.119   106963,),0,0,1
4:57.239   107006,(,0,0,2
4:57.333   107040,t,0,0,0
4:57.392   107061,),0,0,2
4:57.967   107268,(,0,0,1
4:58.053   107299,N,0,0,0
4:58.086   107311,),0,0,1
4:58.269   107377,(,0,0,2
4:58.317   107394,t,0,0,0
4:58.369   107413,),0,0,2
4:58.739   107546,(,0,0,0
4:58.814   107573,p,0,0,0
4:58.897   107603,),0,0,0
4:58.953   107623,(,0,0,1
4:59.011   107644,N,0,0,0
4:59.039   107654,),0,0,1
4:59.169   107701,(,0,0,2
4:59.244   107728,t,0,0,0
4:59.328   107758,),0,0,2
4:59.678   107884,(,0,0,0
4:59.728   107902,p,0,0,0
4:59.789   107924,),0,0,0
4:59.858   107949,(,0,0,1
4:59.925   107973,N,0,0,0
4:59.956   107984,),0,0,1
5:00.042   108015,(,0,0,2
5:00.161   108058,t,0,0,0
5:00.222   108080,),0,0,2
5:00.425   108153,(,0,0,1
5:00.475   108171,N,0,0,0
5:00.506   108182,),0,0,1
5:00.608   108219,(,0,0,2
5:00.692   108249,t,0,0,0
5:00.769   108277,),0,0,2
5:01.022   108368,(,0,0,0
5:01.061   108382,p,0,0,0
5:01.111   108400,),0,0,0
5:01.178   108424,(,0,0,1
5:01.233   108444,N,0,0,0
5:01.261   108454,),0,0,1
5:01.381   108497,(,0,0,2
5:01.481   108533,t,0,0,0
5:01.533   108552,),0,0,2
5:01.847   108665,(,0,0,1
5:01.903   108685,N,0,0,0
5:01.947   108701,),0,0,1
5:02.014   108725,(,0,0,2
5:02.133   108768,t,0,0,0
5:02.178   108784,),0,0,2
5:02.328   108838,(,0,0,0
5:02.369   108853,p,0,0,0
5:02.447   108881,),0,0,0
5:02.522   108908,(,0,0,1
5:02.606   108938,N,0,0,0
5:02.636   108949,),0,0,1
5:02.833   109020,(,0,0,2
5:02.869   109033,t,0,0,5
5:03.022   109088,t,0,0,5
5:03.083   109110,),0,0,2
5:03.228   109162,(,0,0,1
5:03.289   109184,N,0,0,0
5:03.317   109194,),0,0,1
5:03.419   109231,(,0,0,2
5:03.514   109265,t,0,0,0
5:03.597   109295,),0,0,2
5:03.742   109347,(,0,0,0
5:03.789   109364,p,0,0,0
5:03.842   109383,),0,0,0
5:03.972   109430,(,0,0,1
5:04.058   109461,N,0,0,0
5:04.086   109471,),0,0,1
5:04.433   109596,(,0,0,2
5:04.472   109610,t,0,0,0
5:04.531   109631,),0,0,2
5:04.747   109709,(,0,0,0
5:04.833   109740,p,0,0,0
5:04.886   109759,),0,0,0
5:05.003   109801,(,0,0,1
5:05.086   109831,N,0,0,0
5:05.206   109874,),0,0,1
5:05.294   109906,(,0,0,2
5:05.444   109960,t,0,0,0
5:05.617   110022,),0,0,2
5:05.739   110066,(,0,0,0
5:05.781   110081,p,0,0,0
5:05.839   110102,),0,0,0
5:05.889   110120,(,0,0,1
5:05.939   110138,N,0,0,0
5:05.969   110149,),0,0,1
5:06.017   110166,(,0,0,2
5:06.069   110185,t,0,0,4
5:06.189   110228,t,0,0,4
5:06.278   110260,),0,0,2
5:06.297   110267,(,0,0,0
5:06.333   110280,p,0,0,0
5:06.378   110296,),0,0,0
5:06.400   110304,(,0,0,1
5:06.453   110323,N,0,0,0
5:06.481   110333,),0,0,1
5:06.653   110395,(,0,0,2
5:06.694   110410,t,0,0,5
5:06.806   110450,t,0,0,5
5:06.856   110468,),0,0,2
5:06.906   110486,(,0,0,0
5:06.944   110500,p,0,0,0
5:07.006   110522,),0,0,0
5:07.056   110540,(,0,0,1
5:07.106   110558,N,0,0,0
5:07.136   110569,),0,0,1
5:07.233   110604,(,0,0,2
5:07.331   110639,t,0,0,0
5:07.392   110661,),0,0,2
5:07.556   110720,(,0,0,0
5:07.603   110737,p,0,0,0
5:07.644   110752,),0,0,0
5:07.667   110760,(,0,0,1
5:07.722   110780,N,0,0,0
5:07.753   110791,),0,0,1
5:07.847   110825,(,0,0,2
5:07.944   110860,t,0,0,0
5:08.011   110884,),0,0,2
5:08.533   111072,(,0,0,1
5:08.611   111100,N,0,0,0
5:08.642   111111,),0,0,1
5:08.789   111164,(,0,0,2
5:08.875   111195,t,0,0,5
5:08.983   111234,t,0,0,5
5:09.022   111248,),0,0,2
5:09.128   111286,(,0,0,0
5:09.222   111320,p,0,0,0
5:09.275   111339,),0,0,0
5:09.322   111356,(,0,0,1
5:09.386   111379,N,0,0,0
5:09.419   111391,),0,0,1
5:09.600   111456,(,0,0,2
5:09.658   111477,t,0,0,5
5:09.769   111517,t,0,0,5
5:09.819   111535,),0,0,2
5:09.992   111597,(,0,0,1
5:10.092   111633,N,0,0,0
5:10.122   111644,),0,0,1
5:10.258   111693,(,0,0,2
5:10.333   111720,t,0,0,0
5:10.419   111751,),0,0,2
5:10.544   111796,(,0,0,0
5:10.619   111823,p,0,0,0
5:10.675   111843,),0,0,0
5:10.764   111875,(,0,0,1
5:10.811   111892,N,0,0,0
5:10.842   111903,),0,0,1
5:10.944   111940,(,0,0,2
5:11.033   111972,t,0,0,0
5:11.100   111996,),0,0,2
5:11.258   112053,(,0,0,0
5:11.311   112072,p,0,0,0
5:11.353   112087,),0,0,0
5:11.392   112101,(,0,0,1
5:11.447   112121,N,0,0,0
5:11.478   112132,),0,0,1
5:11.564   112163,(,0,0,2
5:11.669   112201,t,0,0,5
5:11.761   112234,t,0,0,5
5:11.803   112249,),0,0,2
5:12.125   112365,(,0,0,0
5:12.169   112381,p,0,0,0
5:12.211   112396,),0,0,0
5:12.294   112426,(,0,0,1
5:12.342   112443,N,0,0,0
5:12.372   112454,),0,0,1
5:12.478   112492,(,0,0,2
5:12.575   112527,t,0,0,5
5:12.653   112555,t,0,0,5
5:12.683   112566,),0,0,2
5:12.797   112607,(,0,0,0
5:12.839   112622,p,0,0,0
5:12.897   112643,),0,0,0
5:12.919   112651,(,0,0,1
5:12.994   112678,N,0,0,0
5:13.022   112688,),0,0,1
5:13.186   112747,(,0,0,2
5:13.236   112765,t,0,0,5
5:13.339   112802,t,0,0,5
5:13.394   112822,),0,0,2
5:13.939   113018,(,0,0,0
5:14.006   113042,p,0,0,0
5:14.042   113055,),0,0,0
5:14.106   113078,(,0,0,1
5:14.192   113109,N,0,0,0
5:14.222   113120,),0,0,1
5:14.297   113147,(,0,0,2
5:14.433   113196,t,0,0,5
5:14.586   113251,t,0,0,5
5:14.622   113264,),0,0,2
5:14.711   113296,(,0,0,0
5:14.742   113307,p,0,0,0
5:14.775   113319,),0,0,0
5:14.842   113343,(,0,0,1
5:14.911   113368,N,0,0,0
5:14.942   113379,),0,0,1
5:15.039   113414,t,0,0,2
5:15.153   113455,),0,0,2
5:15.278   113500,(,0,0,1
5:15.336   113521,N,0,0,0
5:15.369   113533,),0,0,1
5:15.514   113585,(,0,0,2
5:15.581   113609,t,0,0,0
5:15.642   113631,),0,0,2
5:15.800   113688,(,0,0,0
5:15.847   113705,p,0,0,0
5:15.911   113728,),0,0,0
5:15.942   113739,(,0,0,1
5:16.036   113773,N,0,0,0
5:16.067   113784,),0,0,1
5:16.233   113844,(,0,0,2
5:16.289   113864,t,0,0,0
5:16.364   113891,),0,0,2
5:16.644   113992,(,0,0,0
5:16.697   114011,p,0,0,0
5:16.742   114027,),0,0,0
5:16.800   114048,(,0,0,1
5:16.878   114076,N,0,0,0
5:16.908   114087,),0,0,1
5:17.092   114153,(,0,0,2
5:17.139   114170,t,0,0,0
5:17.219   114199,),0,0,2
5:17.558   114321,(,0,0,0
5:17.592   114333,p,0,0,0
5:17.650   114354,),0,0,0
5:17.697   114371,(,0,0,1
5:17.747   114389,N,0,0,0
5:17.778   114400,),0,0,1
5:17.883   114438,(,0,0,2
5:17.983   114474,t,0,0,0
5:18.058   114501,),0,0,2
5:18.364   114611,(,0,0,0
5:18.403   114625,p,0,0,0
5:18.450   114642,),0,0,0
5:18.519   114667,(,0,0,1
5:18.575   114687,N,0,0,0
5:18.603   114697,),0,0,1
5:18.675   114723,(,0,0,2
5:18.808   114771,t,0,0,0
5:18.856   114788,),0,0,2
5:19.117   114882,(,0,0,1
5:19.164   114899,N,0,0,0
5:19.194   114910,),0,0,1
5:19.289   114944,(,0,0,2
5:19.378   114976,t,0,0,0
5:19.433   114996,),0,0,2
5:19.592   115053,(,0,0,0
5:19.628   115066,p,0,0,0
5:19.689   115088,),0,0,0
5:19.728   115102,(,0,0,1
5:19.781   115121,N,0,0,0
5:19.811   115132,),0,0,1
5:19.900   115164,(,0,0,2
5:20.014   115205,t,0,0,0
5:20.147   115253,),0,0,2
5:20.486   115375,(,0,0,1
5:20.544   115396,N,0,0,0
5:20.575   115407,),0,0,1
5:20.653   115435,(,0,0,2
5:20.728   115462,t,0,0,0
5:20.808   115491,),0,0,2
5:20.958   115545,(,0,0,1
5:21.047   115577,N,0,0,0
5:21.197   115631,),0,0,1
5:21.231   115643,(,0,0,2
5:21.308   115671,t,0,0,5
5:21.408   115707,t,0,0,5
5:21.472   115730,),0,0,2
5:21.508   115743,(,0,0,0
5:21.586   115771,p,0,0,0
5:21.653   115795,),0,0,0
5:21.722   115820,(,0,0,1
5:21.792   115845,N,0,0,0
5:21.825   115857,),0,0,1
5:21.961   115906,(,0,0,2
5:22.036   115933,t,0,0,0
5:22.125   115965,),0,0,2
5:22.306   116030,(,0,0,1
5:22.386   116059,N,0,0,0
5:22.417   116070,),0,0,1
5:22.486   116095,(,0,0,2
5:22.589   116132,t,0,0,0
5:22.692   116169,),0,0,2
5:22.825   116217,(,0,0,0
5:22.864   116231,p,0,0,0
5:22.956   116264,),0,0,0
5:22.972   116270,(,0,0,1
5:23.036   116293,N,0,0,0
5:23.067   116304,),0,0,1
5:23.178   116344,(,0,0,2
5:23.272   116378,t,0,0,5
5:23.394   116422,t,0,0,5
5:23.469   116449,),0,0,2
5:23.511   116464,(,0,0,0
5:23.575   116487,p,0,0,0
5:23.603   116497,),0,0,0
5:23.639   116510,(,0,0,1
5:23.697   116531,N,0,0,0
5:23.728   116542,),0,0,1
5:23.786   116563,(,0,0,2
5:23.856   116588,t,0,0,0
5:23.886   116599,),0,0,2
5:23.908   116607,(,0,0,0
5:23.947   116621,p,0,0,0
5:24.047   116657,),0,0,0
5:24.069   116665,(,0,0,1
5:24.175   116703,N,0,0,0
5:24.300   116748,),0,0,1
5:24.378   116776,(,0,0,2
5:24.394   116782,t,0,0,0
5:24.414   116789,),0,0,2
5:24.439   116798,(,0,0,0
5:24.528   116830,p,0,0,0
5:24.586   116851,),0,0,0
5:24.642   116871,(,0,0,1
5:24.692   116889,N,0,0,0
5:24.722   116900,),0,0,1
5:24.772   116918,(,0,0,2
5:24.828   116938,t,0,0,4
5:24.906   116966,t,0,0,4
5:24.978   116992,),0,0,2
5:25.172   117062,(,0,0,0
5:25.206   117074,p,0,0,0
5:25.267   117096,),0,0,0
5:25.344   117124,(,0,0,1
5:25.411   117148,N,0,0,0
5:25.442   117159,),0,0,1
5:25.583   117210,(,0,0,2
5:25.650   117234,t,0,0,0
5:25.714   117257,),0,0,2
5:25.800   117288,(,0,0,1
5:25.847   117305,N,0,0,0
5:25.947   117341,),0,0,1
5:26.000   117360,(,0,0,2
5:26.069   117385,t,0,0,0
5:26.103   117397,),0,0,2
5:26.111   117400,(,0,0,0
5:26.183   117426,p,0,0,0
5:26.256   117452,),0,0,0
5:26.269   117457,(,0,0,1
5:26.322   117476,N,0,0,0
5:26.494   117538,),0,0,1
5:26.564   117563,(,0,0,2
5:26.617   117582,t,0,0,1
5:26.664   117599,),0,0,2
5:27.192   117789,(,0,0,0
5:27.297   117827,p,0,0,0
5:27.342   117843,),0,0,0
5:27.431   117875,(,0,0,1
5:27.500   117900,N,0,0,0
5:27.533   117912,),0,0,1
5:27.653   117955,(,0,0,2
5:27.767   117996,t,0,0,0
5:27.842   118023,),0,0,2
5:28.100   118116,(,0,0,1
5:28.169   118141,N,0,0,0
5:28.200   118152,),0,0,1
5:28.325   118197,(,0,0,2
5:28.342   118203,t,0,0,0
5:28.411   118228,),0,0,2
5:28.542   118275,(,0,0,1
5:28.614   118301,N,0,0,0
5:28.647   118313,),0,0,1
5:28.822   118376,(,0,0,2
5:28.869   118393,t,0,0,0
5:28.922   118412,),0,0,2
5:29.056   118460,(,0,0,0
5:29.144   118492,p,0,0,0
5:29.211   118516,),0,0,0
5:29.233   118524,(,0,0,1
5:29.286   118543,N,0,0,0
5:29.319   118555,),0,0,1
5:29.472   118610,(,0,0,2
5:29.544   118636,t,0,0,0
5:29.611   118660,),0,0,2
5:29.725   118701,(,0,0,1
5:29.800   118728,N,0,0,0
5:29.894   118762,),0,0,1
5:30.028   118810,(,0,0,2
5:30.081   118829,t,0,0,1
5:30.128   118846,),0,0,2
5:30.247   118889,(,0,0,0
5:30.297   118907,p,0,0,0
5:30.347   118925,),0,0,0
5:30.425   118953,(,0,0,1
5:30.478   118972,N,0,0,0
5:30.506   118982,),0,0,1
5:30.606   119018,(,0,0,2
5:30.711   119056,t,0,0,5
5:30.786   119083,t,0,0,5
5:30.842   119103,),0,0,2
5:31.036   119173,(,0,0,0
5:31.125   119205,p,0,0,0
5:31.158   119217,),0,0,0
5:31.264   119255,(,0,0,1
5:31.317   119274,N,0,0,0
5:31.344   119284,),0,0,1
5:31.472   119330,(,0,0,2
5:31.567   119364,t,0,0,0
5:31.633   119388,),0,0,2
5:31.742   119427,(,0,0,0
5:31.814   119453,p,0,0,0
5:31.883   119478,),0,0,0
5:31.958   119505,(,0,0,1
5:32.017   119526,N,0,0,0
5:32.044   119536,),0,0,1
5:32.161   119578,(,0,0,2
5:32.256   119612,t,0,0,0
5:32.331   119639,),0,0,2
5:32.772   119798,(,0,0,0
5:32.806   119810,p,0,0,0
5:32.853   119827,),0,0,0
5:32.875   119835,(,0,0,1
5:32.981   119873,N,0,0,0
5:33.011   119884,),0,0,1
5:33.186   119947,(,0,0,2
5:33.258   119973,t,0,0,0
5:33.336   120001,),0,0,2
5:34.269   120337,(,0,0,0
5:34.317   120354,p,0,0,0
5:34.431   120395,),0,0,0
5:34.444   120400,(,0,0,1
5:34.514   120425,N,0,0,0
5:34.544   120436,),0,0,1
5:34.631   120467,(,0,0,2
5:34.731   120503,t,0,0,0
5:34.817   120534,),0,0,2
5:35.147   120653,(,0,0,1
5:35.197   120671,N,0,0,0
5:35.225   120681,),0,0,1
5:35.356   120728,(,0,0,2
5:35.419   120751,t,0,0,0
5:35.494   120778,),0,0,2
5:35.706   120854,(,0,0,0
5:35.742   120867,p,0,0,0
5:35.767   120876,),0,0,0
5:35.819   120895,(,0,0,1
5:35.883   120918,N,0,0,0
5:35.911   120928,),0,0,1
5:36.022   120968,(,0,0,2
5:36.106   120998,t,0,0,0
5:36.167   121020,),0,0,2
5:36.222   121040,(,0,0,0
5:36.306   121070,p,0,0,0
5:36.383   121098,),0,0,0
5:36.442   121119,(,0,0,1
5:36.506   121142,N,0,0,0
5:36.536   121153,),0,0,1
5:36.644   121192,(,0,0,2
5:36.736   121225,t,0,0,0
5:36.814   121253,),0,0,2
5:37.169   121381,(,0,0,0
5:37.208   121395,p,0,0,0
5:37.250   121410,),0,0,0
5:37.264   121415,(,0,0,1
5:37.314   121433,N,0,0,0
5:37.344   121444,),0,0,1
5:37.478   121492,(,0,0,2
5:37.558   121521,t,0,0,5
5:37.686   121567,t,0,0,5
5:37.731   121583,),0,0,2
5:37.822   121616,(,0,0,0
5:37.864   121631,p,0,0,0
5:37.900   121644,),0,0,0
5:37.969   121669,(,0,0,1
5:38.039   121694,N,0,0,0
5:38.067   121704,),0,0,1
5:38.169   121741,(,0,0,2
5:38.231   121763,t,0,0,0
5:38.336   121801,),0,0,2
5:38.392   121821,(,0,0,0
5:38.475   121851,p,0,0,0
5:38.569   121885,),0,0,0
5:38.628   121906,(,0,0,1
5:38.686   121927,N,0,0,0
5:38.717   121938,),0,0,1
5:38.767   121956,(,0,0,2
5:38.819   121975,t,0,0,4
5:38.950   122022,t,0,0,4
5:39.042   122055,),0,0,2
5:39.217   122118,(,0,0,0
5:39.256   122132,p,0,0,0
5:39.306   122150,),0,0,0
5:39.397   122183,(,0,0,1
5:39.453   122203,N,0,0,0
5:39.483   122214,),0,0,1
5:39.572   122246,(,0,0,2
5:39.675   122283,t,0,0,0
5:39.786   122323,),0,0,2
5:40.019   122407,(,0,0,1
5:40.075   122427,N,0,0,0
5:40.103   122437,),0,0,1
5:40.208   122475,(,0,0,2
5:40.300   122508,t,0,0,0
5:40.375   122535,),0,0,2
5:40.589   122612,(,0,0,1
5:40.650   122634,N,0,0,0
5:40.681   122645,),0,0,1
5:40.789   122684,(,0,0,2
5:40.883   122718,t,0,0,0
5:40.953   122743,),0,0,2
5:40.981   122753,(,0,0,0
5:41.022   122768,p,0,0,0
5:41.089   122792,),0,0,0
5:41.186   122827,(,0,0,1
5:41.236   122845,N,0,0,0
5:41.264   122855,),0,0,1
5:41.358   122889,(,0,0,2
5:41.456   122924,t,0,0,5
5:41.517   122946,t,0,0,5
5:41.567   122964,),0,0,2
5:42.075   123147,(,0,0,0
5:42.153   123175,p,0,0,0
5:42.197   123191,),0,0,0
5:42.289   123224,(,0,0,1
5:42.339   123242,N,0,0,0
5:42.367   123252,),0,0,1
5:42.486   123295,(,0,0,2
5:42.586   123331,t,0,0,0
5:42.653   123355,),0,0,2
5:43.108   123519,(,0,0,1
5:43.192   123549,N,0,0,0
5:43.225   123561,),0,0,1
5:43.331   123599,(,0,0,2
5:43.436   123637,t,0,0,0
5:43.525   123669,),0,0,2
5:43.631   123707,(,0,0,0
5:43.708   123735,p,0,0,0
5:43.758   123753,),0,0,0
5:43.814   123773,(,0,0,1
5:43.872   123794,N,0,0,0
5:43.903   123805,),0,0,1
5:44.017   123846,(,0,0,2
5:44.108   123879,t,0,0,0
5:44.181   123905,),0,0,2
5:44.342   123963,(,0,0,0
5:44.381   123977,p,0,0,0
5:44.419   123991,),0,0,0
5:44.486   124015,(,0,0,1
5:44.547   124037,N,0,0,0
5:44.686   124087,),0,0,1
5:44.692   124089,(,0,0,2
5:44.783   124122,t,0,0,5
5:44.869   124153,t,0,0,5
5:44.933   124176,),0,0,2
5:45.081   124229,(,0,0,1
5:45.158   124257,N,0,0,0
5:45.189   124268,),0,0,1
5:45.308   124311,(,0,0,2
5:45.406   124346,t,0,0,5
5:45.497   124379,t,0,0,5
5:45.553   124399,),0,0,2
5:45.775   124479,(,0,0,1
5:45.842   124503,N,0,0,0
5:45.872   124514,),0,0,1
5:45.969   124549,(,0,0,2
5:46.067   124584,t,0,0,0
5:46.139   124610,),0,0,2
5:46.267   124656,(,0,0,0
5:46.328   124678,p,0,0,0
5:46.397   124703,),0,0,0
5:46.414   124709,(,0,0,1
5:46.489   124736,N,0,0,0
5:46.519   124747,),0,0,1
5:46.678   124804,(,0,0,0
5:46.731   124823,p,0,0,0
5:46.786   124843,),0,0,0
5:46.817   124854,(,0,0,1
5:46.894   124882,N,0,0,0
5:47.019   124927,),0,0,1
5:47.036   124933,(,0,0,2
5:47.144   124972,t,0,0,5
5:47.233   125004,t,0,0,5
5:47.269   125017,),0,0,2
5:47.342   125043,(,0,0,0
5:47.422   125072,p,0,0,0
5:47.486   125095,),0,0,0
5:47.569   125125,(,0,0,1
5:47.625   125145,N,0,0,0
5:47.653   125155,),0,0,1
5:47.758   125193,(,0,0,2
5:47.867   125232,t,0,0,0
5:47.944   125260,),0,0,2
5:48.150   125334,(,0,0,0
5:48.181   125345,p,0,0,0
5:48.208   125355,),0,0,0
5:48.322   125396,(,0,0,1
5:48.378   125416,N,0,0,0
5:48.408   125427,),0,0,1
5:48.522   125468,(,0,0,2
5:48.606   125498,t,0,0,0
5:48.658   125517,),0,0,2
5:49.153   125695,(,0,0,0
5:49.189   125708,p,0,0,0
5:49.228   125722,),0,0,0
5:49.283   125742,(,0,0,1
5:49.378   125776,N,0,0,0
5:49.406   125786,),0,0,1
5:49.522   125828,(,0,0,2
5:49.625   125865,t,0,0,0
5:49.675   125883,),0,0,2
5:49.978   125992,(,0,0,1
5:50.033   126012,N,0,0,0
5:50.064   126023,),0,0,1
5:50.172   126062,(,0,0,2
5:50.267   126096,t,0,0,0
5:50.336   126121,),0,0,2
5:50.339   126122,(,0,0,0
5:50.372   126134,p,0,0,0
5:50.414   126149,),0,0,0
5:50.519   126187,(,0,0,1
5:50.578   126208,N,0,0,0
5:50.772   126278,),0,0,1
5:50.833   126300,(,0,0,2
5:50.953   126343,t,0,0,1
5:51.075   126387,),0,0,2
5:51.117   126402,(,0,0,0
5:51.192   126429,p,0,0,0
5:51.242   126447,),0,0,0
5:51.253   126451,(,0,0,1
5:51.308   126471,N,0,0,0
5:51.428   126514,),0,0,1
5:51.494   126538,(,0,0,2
5:51.583   126570,t,0,0,0
5:51.664   126599,),0,0,2
5:51.906   126686,(,0,0,0
5:51.983   126714,p,0,0,0
5:52.022   126728,),0,0,0
5:52.069   126745,(,0,0,1
5:52.122   126764,N,0,0,0
5:52.150   126774,),0,0,1
5:52.269   126817,(,0,0,2
5:52.378   126856,t,0,0,0
5:52.464   126887,),0,0,2
5:52.633   126948,(,0,0,1
5:52.683   126966,N,0,0,0
5:52.714   126977,),0,0,1
5:52.833   127020,(,0,0,2
5:52.919   127051,t,0,0,5
5:52.981   127073,t,0,0,5
5:53.031   127091,),0,0,2
5:53.231   127163,(,0,0,0
5:53.322   127196,p,0,0,0
5:53.367   127212,),0,0,0
5:53.403   127225,(,0,0,1
5:53.450   127242,N,0,0,0
5:53.539   127274,),0,0,1
5:53.617   127302,(,0,0,2
5:53.692   127329,t,0,0,0
5:53.750   127350,),0,0,2
5:53.847   127385,(,0,0,0
5:53.900   127404,p,0,0,0
5:53.939   127418,),0,0,0
5:54.003   127441,(,0,0,1
5:54.053   127459,N,0,0,0
5:54.097   127475,),0,0,1
5:54.222   127520,(,0,0,2
5:54.281   127541,t,0,0,0
5:54.369   127573,),0,0,2
5:54.392   127581,(,0,0,0
5:54.444   127600,p,0,0,0
5:54.494   127618,),0,0,0
5:54.572   127646,(,0,0,1
5:54.644   127672,N,0,0,0
5:54.672   127682,),0,0,1
5:55.283   127902,(,0,0,0
5:55.317   127914,p,0,0,0
5:55.375   127935,),0,0,0
5:55.392   127941,(,0,0,1
5:55.442   127959,N,0,0,0
5:55.472   127970,),0,0,1
5:55.628   128026,(,0,0,2
5:55.694   128050,t,0,0,0
5:55.781   128081,),0,0,2
5:55.881   128117,(,0,0,0
5:55.944   128140,p,0,0,0
5:55.986   128155,),0,0,0
5:56.008   128163,(,0,0,1
5:56.058   128181,N,0,0,0
5:56.089   128192,),0,0,1
5:56.211   128236,(,0,0,2
5:56.264   128255,t,0,0,5
5:56.364   128291,t,0,0,5
5:56.417   128310,),0,0,2
5:56.625   128385,(,0,0,1
5:56.683   128406,N,0,0,0
5:56.714   128417,),0,0,1
5:56.828   128458,t,0,0,2
5:56.914   128489,),0,0,2
5:57.028   128530,(,0,0,1
5:57.083   128550,N,0,0,0
5:57.122   128564,),0,0,1
5:57.247   128609,(,0,0,2
5:57.325   128637,t,0,0,0
5:57.400   128664,),0,0,2
5:57.492   128697,(,0,0,0
5:57.619   128743,p,0,0,0
5:57.661   128758,),0,0,0
5:57.700   128772,(,0,0,1
5:57.758   128793,N,0,0,0
5:57.789   128804,),0,0,1
5:57.853   128827,(,0,0,2
5:57.919   128851,t,0,0,4
5:58.011   128884,t,0,0,4
5:58.069   128905,),0,0,2
5:58.328   128998,(,0,0,0
5:58.353   129007,p,0,0,0
5:58.392   129021,),0,0,0
5:58.433   129036,(,0,0,1
5:58.497   129059,N,0,0,0
5:58.572   129086,),0,0,1
5:58.714   129137,(,0,0,2
5:58.764   129155,t,0,0,0
5:58.831   129179,),0,0,2
5:58.883   129198,(,0,0,0
5:58.922   129212,p,0,0,0
5:58.964   129227,),0,0,0
5:58.981   129233,(,0,0,1
5:59.033   129252,N,0,0,0
5:59.064   129263,),0,0,1
5:59.181   129305,(,0,0,2
5:59.278   129340,t,0,0,5
5:59.372   129374,t,0,0,5
5:59.422   129392,),0,0,2
5:59.575   129447,(,0,0,0
5:59.656   129476,p,0,0,0
5:59.714   129497,),0,0,0
5:59.739   129506,(,0,0,1
5:59.786   129523,N,0,0,0
5:59.814   129533,),0,0,1
6:00.375   129735,(,0,0,1
6:00.436   129757,N,0,0,0
6:00.556   129800,),0,0,1
6:00.647   129833,(,0,0,2
6:00.692   129849,t,0,0,5
6:00.769   129877,t,0,0,5
6:00.833   129900,),0,0,2
6:01.186   130027,(,0,0,0
6:01.219   130039,p,0,0,0
6:01.289   130064,),0,0,0
6:01.308   130071,(,0,0,1
6:01.364   130091,N,0,0,0
6:01.392   130101,),0,0,1
6:01.497   130139,(,0,0,2
6:01.617   130182,t,0,0,0
6:01.739   130226,),0,0,2
6:02.044   130336,(,0,0,0
6:02.075   130347,p,0,0,0
6:02.103   130357,),0,0,0
6:02.181   130385,(,0,0,1
6:02.236   130405,N,0,0,0
6:02.267   130416,),0,0,1
6:02.319   130435,(,0,0,2
6:02.367   130452,t,0,0,1
6:02.472   130490,),0,0,2
6:02.489   130496,(,0,0,0
6:02.589   130532,p,0,0,0
6:02.622   130544,),0,0,0
6:02.661   130558,(,0,0,1
6:02.711   130576,N,0,0,0
6:02.744   130588,),0,0,1
6:02.872   130634,(,0,0,2
6:02.953   130663,t,0,0,5
6:03.025   130689,t,0,0,5
6:03.100   130716,),0,0,2
6:03.117   130722,(,0,0,0
6:03.164   130739,p,0,0,0
6:03.206   130754,),0,0,0
6:03.325   130797,(,0,0,1
6:03.417   130830,N,0,0,0
6:03.447   130841,),0,0,1
6:03.606   130898,(,0,0,0
6:03.686   130927,p,0,0,0
6:03.744   130948,),0,0,0
6:03.808   130971,(,0,0,1
6:03.856   130988,N,0,0,0
6:03.989   131036,),0,0,1
6:04.017   131046,(,0,0,2
6:04.092   131073,t,0,0,0
6:04.158   131097,),0,0,2
6:04.272   131138,(,0,0,0
6:04.344   131164,p,0,0,0
6:04.408   131187,),0,0,0
6:04.442   131199,(,0,0,1
6:04.492   131217,N,0,0,0
6:04.522   131228,),0,0,1
6:04.628   131266,(,0,0,2
6:04.742   131307,t,0,0,0
6:04.786   131323,),0,0,2
6:05.294   131506,(,0,0,1
6:05.361   131530,N,0,0,0
6:05.389   131540,),0,0,1
6:05.553   131599,(,0,0,2
6:05.603   131617,t,0,0,0
6:05.669   131641,),0,0,2
6:05.767   131676,(,0,0,0
6:05.831   131699,p,0,0,0
6:05.867   131712,),0,0,0
6:06.031   131771,(,0,0,1
6:06.089   131792,N,0,0,0
6:06.119   131803,),0,0,1
6:06.197   131831,(,0,0,2
6:06.328   131878,t,0,0,0
6:06.392   131901,),0,0,2
6:06.583   131970,(,0,0,1
6:06.678   132004,N,0,0,0
6:06.708   132015,),0,0,1
6:06.856   132068,(,0,0,2
6:06.900   132084,t,0,0,5
6:07.000   132120,t,0,0,5
6:07.039   132134,),0,0,2
6:07.050   132138,(,0,0,0
6:07.122   132164,p,0,0,0
6:07.200   132192,),0,0,0
6:07.264   132215,(,0,0,1
6:07.325   132237,N,0,0,0
6:07.356   132248,),0,0,1
6:07.461   132286,(,0,0,2
6:07.550   132318,t,0,0,5
6:07.631   132347,t,0,0,5
6:07.692   132369,),0,0,2
6:07.983   132474,(,0,0,0
6:08.025   132489,p,0,0,0
6:08.064   132503,),0,0,0
6:08.142   132531,(,0,0,1
6:08.214   132557,N,0,0,0
6:08.244   132568,),0,0,1
6:08.386   132619,(,0,0,2
6:08.461   132646,t,0,0,5
6:08.619   132703,t,0,0,5
6:08.678   132724,),0,0,2
6:08.719   132739,(,0,0,0
6:08.767   132756,p,0,0,0
6:08.817   132774,),0,0,0
6:08.872   132794,(,0,0,1
6:08.928   132814,N,0,0,0
6:08.958   132825,),0,0,1
6:09.089   132872,(,0,0,2
6:09.169   132901,t,0,0,0
6:09.247   132929,),0,0,2
6:09.617   133062,(,0,0,0
6:09.675   133083,p,0,0,0
6:09.742   133107,),0,0,0
6:09.825   133137,(,0,0,1
6:09.886   133159,N,0,0,0
6:09.919   133171,),0,0,1
6:10.022   133208,(,0,0,2
6:10.150   133254,t,0,0,0
6:10.208   133275,),0,0,2
6:10.408   133347,(,0,0,0
6:10.453   133363,p,0,0,0
6:10.511   133384,),0,0,0
6:10.567   133404,(,0,0,1
6:10.628   133426,N,0,0,0
6:10.658   133437,),0,0,1
6:10.764   133475,(,0,0,2
6:10.867   133512,t,0,0,0
6:10.928   133534,),0,0,2
6:11.378   133696,(,0,0,0
6:11.403   133705,p,0,0,0
6:11.425   133713,),0,0,0
6:11.589   133772,(,0,0,1
6:11.639   133790,N,0,0,0
6:11.667   133800,),0,0,1
6:11.792   133845,(,0,0,2
6:11.881   133877,t,0,0,5
6:11.972   133910,t,0,0,5
6:12.017   133926,),0,0,2
6:12.194   133990,(,0,0,0
6:12.269   134017,p,0,0,0
6:12.319   134035,),0,0,0
6:12.333   134040,(,0,0,1
6:12.383   134058,N,0,0,0
6:12.475   134091,),0,0,1
6:12.639   134150,(,0,0,2
6:12.772   134198,t,0,0,1
6:12.814   134213,),0,0,2
6:12.822   134216,(,0,0,0
6:12.944   134260,p,0,0,0
6:13.000   134280,),0,0,0
6:13.147   134333,(,0,0,1
6:13.231   134363,N,0,0,0
6:13.319   134395,),0,0,1
6:13.419   134431,(,0,0,2
6:13.467   134448,t,0,0,5
6:13.581   134489,t,0,0,5
6:13.619   134503,),0,0,2
6:13.658   134517,(,0,0,0
6:13.681   134525,p,0,0,0
6:13.711   134536,),0,0,0
6:13.825   134577,(,0,0,1
6:13.903   134605,N,0,0,0
6:13.933   134616,),0,0,1
6:14.069   134665,(,0,0,2
6:14.147   134693,t,0,0,5
6:14.256   134732,t,0,0,5
6:14.339   134762,),0,0,2
6:14.481   134813,(,0,0,1
6:14.558   134841,N,0,0,0
6:14.711   134896,),0,0,1
6:15.044   135016,(,0,0,0
6:15.103   135037,p,0,0,0
6:15.150   135054,),0,0,0
6:15.189   135068,(,0,0,1
6:15.250   135090,N,0,0,0
6:15.278   135100,),0,0,1
6:15.406   135146,(,0,0,2
6:15.486   135175,t,0,0,5
6:15.586   135211,t,0,0,5
6:15.664   135239,),0,0,2
6:15.744   135268,(,0,0,0
6:15.786   135283,p,0,0,0
6:15.819   135295,),0,0,0
6:15.928   135334,(,0,0,1
6:15.983   135354,N,0,0,0
6:16.081   135389,),0,0,1
6:16.428   135514,(,0,0,0
6:16.475   135531,p,0,0,0
6:16.564   135563,),0,0,0
6:16.614   135581,(,0,0,1
6:16.689   135608,N,0,0,0
6:16.719   135619,),0,0,1
6:16.789   135644,(,0,0,2
6:16.917   135690,t,0,0,0
6:16.978   135712,),0,0,2
6:17.169   135781,(,0,0,0
6:17.214   135797,p,0,0,0
6:17.292   135825,),0,0,0
6:17.350   135846,(,0,0,1
6:17.414   135869,N,0,0,0
6:17.444   135880,),0,0,1
6:17.508   135903,(,0,0,2
6:17.653   135955,t,0,0,5
6:17.708   135975,t,0,0,5
6:17.728   135982,),0,0,2
6:17.972   136070,(,0,0,1
6:18.028   136090,N,0,0,0
6:18.058   136101,),0,0,1
6:18.156   136136,(,0,0,2
6:18.250   136170,t,0,0,0
6:18.319   136195,),0,0,2
6:21.678   137404,(,0,0,1
6:21.744   137428,N,0,0,0
6:21.792   137445,),0,0,1
6:21.972   137510,(,0,0,2
6:22.050   137538,t,0,0,0
6:22.139   137570,),0,0,2
6:23.739   138146,(,0,0,1
6:23.794   138166,N,0,0,0
6:23.836   138181,),0,0,1
6:24.006   138242,(,0,0,2
6:24.067   138264,t,0,0,0
6:24.125   138285,),0,0,2
6:25.039   138614,(,0,0,0
6:25.094   138634,p,0,0,0
6:25.150   138654,),0,0,0
6:25.219   138679,(,0,0,1
6:25.281   138701,N,0,0,0
6:25.311   138712,),0,0,1
6:25.428   138754,(,0,0,2
6:25.533   138792,t,0,0,0
6:25.614   138821,),0,0,2
6:26.867   139272,(,0,0,1
6:26.925   139293,N,0,0,0
6:26.956   139304,),0,0,1
6:27.089   139352,(,0,0,2
6:27.197   139391,t,0,0,0
6:27.289   139424,),0,0,2
6:27.964   139667,(,0,0,1
6:28.028   139690,N,0,0,0
6:28.061   139702,),0,0,1
6:28.192   139749,(,0,0,2
6:28.292   139785,t,0,0,0
6:28.364   139811,),0,0,2
6:29.369   140173,(,0,0,0
6:29.428   140194,p,0,0,0
6:29.489   140216,),0,0,0
6:29.536   140233,(,0,0,1
6:29.594   140254,N,0,0,0
6:29.625   140265,),0,0,1
6:29.758   140313,(,0,0,2
6:29.850   140346,t,0,0,0
6:29.931   140375,),0,0,2
6:30.717   140658,(,0,0,0
6:30.775   140679,p,0,0,0
6:30.844   140704,),0,0,0
6:30.894   140722,(,0,0,1
6:30.956   140744,N,0,0,0
6:30.986   140755,),0,0,1
6:31.203   140833,(,0,0,2
6:31.289   140864,t,0,0,1
6:31.392   140901,),0,0,2
6:32.831   141419,(,0,0,1
6:32.892   141441,N,0,0,0
6:32.925   141453,),0,0,1
6:33.064   141503,(,0,0,2
6:33.178   141544,t,0,0,0
6:33.256   141572,),0,0,2
6:34.106   141878,(,0,0,0
6:34.158   141897,p,0,0,0
6:34.231   141923,),0,0,0
6:34.275   141939,(,0,0,1
6:34.336   141961,N,0,0,0
6:34.367   141972,),0,0,1
6:34.494   142018,(,0,0,2
6:34.597   142055,t,0,0,0
6:34.672   142082,),0,0,2
6:35.417   142350,(,0,0,0
6:35.458   142365,p,0,0,0
6:35.536   142393,),0,0,0
6:35.589   142412,(,0,0,1
6:35.650   142434,N,0,0,0
6:35.681   142445,),0,0,1
6:35.803   142489,(,0,0,2
6:35.903   142525,t,0,0,0
6:35.981   142553,),0,0,2
6:36.686   142807,(,0,0,0
6:36.736   142825,p,0,0,0
6:36.806   142850,),0,0,0
6:36.856   142868,(,0,0,1
6:36.911   142888,N,0,0,0
6:36.942   142899,),0,0,1
6:37.061   142942,(,0,0,2
6:37.167   142980,t,0,0,0
6:37.250   143010,),0,0,2
6:37.964   143267,(,0,0,0
6:38.003   143281,p,0,0,0
6:38.086   143311,),0,0,0
6:38.172   143342,(,0,0,1
6:38.258   143373,N,0,0,0
6:38.289   143384,),0,0,1
6:38.408   143427,(,0,0,2
6:38.528   143470,t,0,0,0
6:38.606   143498,),0,0,2
6:39.258   143733,(,0,0,0
6:39.314   143753,p,0,0,0
6:39.389   143780,),0,0,0
6:39.444   143800,(,0,0,1
6:39.506   143822,N,0,0,0
6:39.536   143833,),0,0,1
6:39.669   143881,(,0,0,2
6:39.792   143925,t,0,0,0
6:39.869   143953,),0,0,2
6:40.658   144237,(,0,0,0
6:40.717   144258,p,0,0,0
6:40.786   144283,),0,0,0
6:40.842   144303,(,0,0,1
6:40.897   144323,N,0,0,0
6:40.928   144334,),0,0,1
6:41.036   144373,(,0,0,2
6:41.161   144418,t,0,0,0
6:41.247   144449,),0,0,2
6:41.853   144667,(,0,0,0
6:41.903   144685,p,0,0,0
6:41.964   144707,),0,0,0
6:42.017   144726,(,0,0,1
6:42.072   144746,N,0,0,0
6:42.100   144756,),0,0,1
6:42.206   144794,(,0,0,2
6:42.322   144836,t,0,0,0
6:42.394   144862,),0,0,2
6:44.131   145487,(,0,0,0
6:44.183   145506,p,0,0,0
6:44.250   145530,),0,0,0
6:44.314   145553,(,0,0,1
6:44.375   145575,N,0,0,0
6:44.403   145585,),0,0,1
6:44.542   145635,(,0,0,2
6:44.647   145673,t,0,0,0
6:44.733   145704,),0,0,2
6:45.367   145932,(,0,0,0
6:45.425   145953,p,0,0,0
6:45.483   145974,),0,0,0
6:45.544   145996,(,0,0,1
6:45.603   146017,N,0,0,0
6:45.644   146032,),0,0,1
6:45.764   146075,(,0,0,2
6:45.869   146113,t,0,0,0
6:45.950   146142,),0,0,2
6:46.567   146364,(,0,0,0
6:46.614   146381,p,0,0,0
6:46.678   146404,),0,0,0
6:46.739   146426,(,0,0,1
6:46.794   146446,N,0,0,0
6:46.825   146457,),0,0,1
6:46.936   146497,(,0,0,2
6:47.056   146540,t,0,0,0
6:47.139   146570,),0,0,2
6:47.722   146780,(,0,0,0
6:47.769   146797,p,0,0,0
6:47.836   146821,),0,0,0
6:47.892   146841,(,0,0,1
6:47.950   146862,N,0,0,0
6:47.994   146878,),0,0,1
6:48.117   146922,(,0,0,2
6:48.217   146958,t,0,0,0
6:48.303   146989,),0,0,2
6:48.861   147190,(,0,0,0
6:48.908   147207,p,0,0,0
6:48.975   147231,),0,0,0
6:49.036   147253,(,0,0,1
6:49.092   147273,N,0,0,0
6:49.122   147284,),0,0,1
6:49.253   147331,(,0,0,2
6:49.350   147366,t,0,0,0
6:49.428   147394,),0,0,2
6:50.025   147609,(,0,0,0
6:50.072   147626,p,0,0,0
6:50.142   147651,),0,0,0
6:50.192   147669,(,0,0,1
6:50.253   147691,N,0,0,0
6:50.281   147701,),0,0,1
6:50.408   147747,(,0,0,2
6:50.511   147784,t,0,0,0
6:50.603   147817,),0,0,2
6:51.244   148048,(,0,0,0
6:51.292   148065,p,0,0,0
6:51.358   148089,),0,0,0
6:51.419   148111,(,0,0,1
6:51.478   148132,N,0,0,0
6:51.508   148143,),0,0,1
6:51.656   148196,(,0,0,2
6:51.758   148233,t,0,0,0
6:51.853   148267,),0,0,2
6:52.525   148509,(,0,0,0
6:52.581   148529,p,0,0,0
6:52.644   148552,),0,0,0
6:52.706   148574,(,0,0,1
6:52.769   148597,N,0,0,0
6:52.817   148614,),0,0,1
6:52.931   148655,(,0,0,2
6:53.042   148695,t,0,0,0
6:53.119   148723,),0,0,2
6:53.731   148943,(,0,0,0
6:53.783   148962,p,0,0,0
6:53.850   148986,),0,0,0
6:53.906   149006,(,0,0,1
6:53.961   149026,N,0,0,0
6:53.989   149036,),0,0,1
6:54.119   149083,(,0,0,2
6:54.206   149114,t,0,0,0
6:54.286   149143,),0,0,2
6:54.961   149386,(,0,0,0
6:55.011   149404,p,0,0,0
6:55.078   149428,),0,0,0
6:55.131   149447,(,0,0,1
6:55.192   149469,N,0,0,0
6:55.233   149484,),0,0,1
6:55.353   149527,(,0,0,2
6:55.456   149564,t,0,0,0
6:55.536   149593,),0,0,2
6:56.211   149836,(,0,0,0
6:56.264   149855,p,0,0,0
6:56.331   149879,),0,0,0
6:56.389   149900,(,0,0,1
6:56.450   149922,N,0,0,0
6:56.481   149933,),0,0,1
6:56.633   149988,(,0,0,2
6:56.736   150025,t,0,0,0
6:56.822   150056,),0,0,2
6:57.572   150326,(,0,0,0
6:57.622   150344,p,0,0,0
6:57.700   150372,),0,0,0
6:57.753   150391,(,0,0,1
6:57.811   150412,N,0,0,0
6:57.842   150423,),0,0,1
6:57.983   150474,(,0,0,2
6:58.081   150509,t,0,0,0
6:58.161   150538,),0,0,2
6:58.919   150811,(,0,0,0
6:58.972   150830,p,0,0,0
6:59.042   150855,),0,0,0
6:59.097   150875,(,0,0,1
6:59.153   150895,N,0,0,0
6:59.183   150906,),0,0,1
6:59.325   150957,(,0,0,2
6:59.425   150993,t,0,0,0
6:59.506   151022,),0,0,2
7:00.172   151262,(,0,0,0
7:00.228   151282,p,0,0,0
7:00.286   151303,),0,0,0
7:00.350   151326,(,0,0,1
7:00.411   151348,N,0,0,0
7:00.439   151358,),0,0,1
7:00.572   151406,(,0,0,2
7:00.672   151442,t,0,0,0
7:00.753   151471,),0,0,2
7:01.397   151703,(,0,0,0
7:01.450   151722,p,0,0,0
7:01.508   151743,),0,0,0
7:01.567   151764,(,0,0,1
7:01.622   151784,N,0,0,0
7:01.650   151794,),0,0,1
7:01.775   151839,(,0,0,2
7:01.881   151877,t,0,0,0
7:01.969   151909,),0,0,2
7:02.606   152138,(,0,0,0
7:02.658   152157,p,0,0,0
7:02.722   152180,),0,0,0
7:02.794   152206,(,0,0,1
7:02.858   152229,N,0,0,0
7:02.889   152240,),0,0,1
7:03.031   152291,(,0,0,2
7:03.153   152335,t,0,0,0
7:03.236   152365,),0,0,2
7:03.936   152617,(,0,0,0
7:03.986   152635,p,0,0,0
7:04.056   152660,),0,0,0
7:04.117   152682,(,0,0,1
7:04.175   152703,N,0,0,0
7:04.206   152714,),0,0,1
7:04.361   152770,(,0,0,2
7:04.467   152808,t,0,0,0
7:04.547   152837,),0,0,2
7:05.169   153061,(,0,0,0
7:05.225   153081,p,0,0,0
7:05.286   153103,),0,0,0
7:05.342   153123,(,0,0,1
7:05.408   153147,N,0,0,0
7:05.436   153157,),0,0,1
7:05.564   153203,(,0,0,2
7:05.661   153238,t,0,0,0
7:05.739   153266,),0,0,2
7:06.369   153493,(,0,0,0
7:06.417   153510,p,0,0,0
7:06.481   153533,),0,0,0
7:06.533   153552,(,0,0,1
7:06.589   153572,N,0,0,0
7:06.617   153582,),0,0,1
7:06.697   153611,(,0,0,2
7:06.794   153646,t,0,0,0
7:06.928   153694,),0,0,2
7:08.222   154160,(,0,0,0
7:08.267   154176,p,0,0,0
7:08.331   154199,),0,0,0
7:08.414   154229,(,0,0,1
7:08.475   154251,N,0,0,0
7:08.506   154262,),0,0,1
7:10.181   154865,(,0,0,0
7:10.231   154883,p,0,0,0
7:10.300   154908,),0,0,0
7:10.364   154931,(,0,0,1
7:10.425   154953,N,0,0,0
7:10.458   154965,),0,0,1
7:10.581   155009,(,0,0,2
7:10.675   155043,t,0,0,0
7:10.814   155093,),0,0,2
7:12.103   155557,(,0,0,0
7:12.153   155575,p,0,0,0
7:12.208   155595,),0,0,0
7:12.264   155615,(,0,0,1
7:12.319   155635,N,0,0,0
7:12.347   155645,),0,0,1
7:12.436   155677,(,0,0,2
7:12.522   155708,t,0,0,0
7:12.661   155758,),0,0,2
7:13.900   156204,(,0,0,0
7:13.950   156222,p,0,0,0
7:14.008   156243,),0,0,0
7:14.069   156265,(,0,0,1
7:14.125   156285,N,0,0,0
7:14.153   156295,),0,0,1
7:14.272   156338,(,0,0,2
7:14.417   156390,t,0,0,0
7:14.503   156421,),0,0,2
7:15.156   156656,(,0,0,0
7:15.211   156676,p,0,0,0
7:15.281   156701,),0,0,0
7:15.347   156725,(,0,0,1
7:15.411   156748,N,0,0,0
7:15.444   156760,),0,0,1
7:15.572   156806,(,0,0,2
7:15.681   156845,t,0,0,0
7:15.789   156884,),0,0,2
7:17.094   157354,(,0,0,0
7:17.136   157369,p,0,0,0
7:17.203   157393,),0,0,0
7:17.292   157425,(,0,0,1
7:17.356   157448,N,0,0,0
7:17.386   157459,),0,0,1
7:17.519   157507,(,0,0,2
7:17.619   157543,t,0,0,0
7:17.692   157569,),0,0,2
7:18.303   157789,(,0,0,0
7:18.353   157807,p,0,0,0
7:18.422   157832,),0,0,0
7:18.486   157855,(,0,0,1
7:18.544   157876,N,0,0,0
7:18.572   157886,),0,0,1
7:18.686   157927,(,0,0,2
7:18.794   157966,t,0,0,0
7:18.883   157998,),0,0,2
7:20.222   158480,(,0,0,0
7:20.267   158496,p,0,0,0
7:20.336   158521,),0,0,0
7:20.394   158542,(,0,0,1
7:20.456   158564,N,0,0,0
7:20.486   158575,),0,0,1
7:20.614   158621,(,0,0,2
7:20.717   158658,t,0,0,0
7:20.814   158693,),0,0,2
7:22.211   159196,(,0,0,0
7:22.264   159215,p,0,0,0
7:22.328   159238,),0,0,0
7:22.389   159260,(,0,0,1
7:22.450   159282,N,0,0,0
7:22.481   159293,),0,0,1
7:22.603   159337,(,0,0,2
7:22.694   159370,t,0,0,0
7:22.831   159419,),0,0,2
7:24.086   159871,(,0,0,0
7:24.136   159889,p,0,0,0
7:24.194   159910,),0,0,0
7:24.253   159931,(,0,0,1
7:24.308   159951,N,0,0,0
7:24.336   159961,),0,0,1
7:24.444   160000,(,0,0,2
7:24.544   160036,t,0,0,0
7:24.647   160073,),0,0,2
7:25.897   160523,(,0,0,0
7:25.947   160541,p,0,0,0
7:26.008   160563,),0,0,0
7:26.072   160586,(,0,0,1
7:26.133   160608,N,0,0,0
7:26.164   160619,),0,0,1
7:26.294   160666,(,0,0,2
7:26.397   160703,t,0,0,0
7:26.500   160740,),0,0,2
7:27.792   161205,(,0,0,0
7:27.839   161222,p,0,0,0
7:27.914   161249,),0,0,0
7:27.967   161268,(,0,0,1
7:28.031   161291,N,0,0,0
7:28.061   161302,),0,0,1
7:28.208   161355,(,0,0,2
7:28.308   161391,t,0,0,0
7:28.389   161420,),0,0,2
7:28.981   161633,(,0,0,0
7:29.031   161651,p,0,0,0
7:29.094   161674,),0,0,0
7:29.150   161694,(,0,0,1
7:29.208   161715,N,0,0,0
7:29.242   161727,),0,0,1
7:29.347   161765,(,0,0,2
7:29.467   161808,t,0,0,0
7:29.564   161843,),0,0,2
7:30.819   162295,(,0,0,0
7:30.867   162312,p,0,0,0
7:30.919   162331,),0,0,0
7:30.975   162351,(,0,0,1
7:31.031   162371,N,0,0,0
7:31.061   162382,),0,0,1
7:31.167   162420,(,0,0,2
7:31.311   162472,t,0,0,0
7:31.389   162500,),0,0,2
7:32.017   162726,(,0,0,0
7:32.067   162744,p,0,0,0
7:32.128   162766,),0,0,0
7:32.189   162788,(,0,0,1
7:32.247   162809,N,0,0,0
7:32.278   162820,),0,0,1
7:32.408   162867,(,0,0,2
7:32.525   162909,t,0,0,0
7:32.614   162941,),0,0,2
7:33.336   163201,(,0,0,0
7:33.394   163222,p,0,0,0
7:33.456   163244,),0,0,0
7:33.531   163271,(,0,0,1
7:33.592   163293,N,0,0,0
7:33.625   163305,),0,0,1
7:33.778   163360,(,0,0,2
7:33.889   163400,t,0,0,0
7:33.983   163434,),0,0,2
7:34.739   163706,(,0,0,0
7:34.783   163722,p,0,0,0
7:34.856   163748,),0,0,0
7:34.914   163769,(,0,0,1
7:34.969   163789,N,0,0,0
7:34.997   163799,),0,0,1
7:35.131   163847,(,0,0,2
7:35.236   163885,t,0,0,0
7:35.314   163913,),0,0,2
7:35.978   164152,(,0,0,0
7:36.028   164170,p,0,0,0
7:36.089   164192,),0,0,0
7:36.153   164215,(,0,0,1
7:36.208   164235,N,0,0,0
7:36.239   164246,),0,0,1
7:36.375   164295,(,0,0,2
7:36.481   164333,t,0,0,0
7:36.558   164361,),0,0,2
7:37.278   164620,(,0,0,0
7:37.322   164636,p,0,0,0
7:37.394   164662,),0,0,0
7:37.444   164680,(,0,0,1
7:37.503   164701,N,0,0,0
7:37.533   164712,),0,0,1
7:37.672   164762,(,0,0,2
7:37.783   164802,t,0,0,0
7:37.875   164835,),0,0,2
7:38.528   165070,(,0,0,0
7:38.581   165089,p,0,0,0
7:38.642   165111,),0,0,0
7:38.711   165136,(,0,0,1
7:38.769   165157,N,0,0,0
7:38.800   165168,),0,0,1
7:38.914   165209,(,0,0,2
7:39.006   165242,t,0,0,0
7:39.150   165294,),0,0,2
7:40.517   165786,(,0,0,0
7:40.567   165804,p,0,0,0
7:40.631   165827,),0,0,0
7:40.708   165855,(,0,0,1
7:40.772   165878,N,0,0,0
7:40.817   165894,),0,0,1
7:40.947   165941,(,0,0,2
7:41.061   165982,t,0,0,0
7:41.144   166012,),0,0,2
7:41.756   166232,(,0,0,0
7:41.800   166248,p,0,0,0
7:41.869   166273,),0,0,0
7:41.931   166295,(,0,0,1
7:41.983   166314,N,0,0,0
7:42.014   166325,),0,0,1
7:42.119   166363,(,0,0,2
7:42.211   166396,t,0,0,0
7:42.333   166440,),0,0,2
7:44.825   167337,(,0,0,0
7:44.881   167357,p,0,0,0
7:44.944   167380,),0,0,0
7:45.011   167404,(,0,0,1
