Elapsedtime,sample,Type,Sub,Chan,Num
0:00.806,290,(,0,0,0
0:00.833,300,p,0,0,0
0:00.867,312,),0,0,0
0:00.903,325,(,0,0,1
0:00.967,348,N,0,0,0
0:00.997,359,),0,0,1
0:01.139,410,(,0,0,2
0:01.231,443,t,0,0,0
0:01.317,474,),0,0,2
0:01.894,682,(,0,0,0
0:01.922,692,p,0,0,0
0:01.953,703,),0,0,0
0:01.986,715,(,0,0,1
0:02.058,741,N,0,0,0
0:02.092,753,),0,0,1
0:02.225,801,(,0,0,2
0:02.325,837,t,0,0,0
0:02.408,867,),0,0,2
0:03.031,1091,(,0,0,0
0:03.058,1101,p,0,0,0
0:03.094,1114,),0,0,0
0:03.139,1130,(,0,0,1
0:03.206,1154,N,0,0,0
0:03.239,1166,),0,0,1
0:03.400,1224,(,0,0,2
0:03.494,1258,t,0,0,0
0:03.592,1293,),0,0,2
0:04.206,1514,(,0,0,0
0:04.236,1525,p,0,0,0
0:04.269,1537,),0,0,0
0:04.306,1550,(,0,0,1
0:04.378,1576,N,0,0,0
0:04.408,1587,),0,0,1
0:04.547,1637,(,0,0,2
0:04.650,1674,t,0,0,0
0:04.744,1708,),0,0,2
0:05.333,1920,(,0,0,0
0:05.364,1931,p,0,0,0
0:05.400,1944,),0,0,0
0:05.433,1956,(,0,0,1
0:05.497,1979,N,0,0,0
0:05.531,1991,),0,0,1
0:05.669,2041,(,0,0,2
0:05.758,2073,t,0,0,0
0:05.847,2105,),0,0,2
0:06.408,2307,(,0,0,0
0:06.442,2319,p,0,0,0
0:06.469,2329,),0,0,0
0:06.511,2344,(,0,0,1
0:06.569,2365,N,0,0,0
0:06.600,2376,),0,0,1
0:06.744,2428,(,0,0,2
0:06.831,2459,t,0,0,0
0:06.911,2488,),0,0,2
0:07.494,2698,(,0,0,0
0:07.522,2708,p,0,0,0
0:07.553,2719,),0,0,0
0:07.589,2732,(,0,0,1
0:07.656,2756,N,0,0,0
0:07.689,2768,),0,0,1
0:07.811,2812,(,0,0,2
0:07.917,2850,t,0,0,0
0:08.011,2884,),0,0,2
0:08.622,3104,(,0,0,0
0:08.656,3116,p,0,0,0
0:08.692,3129,),0,0,0
0:08.728,3142,(,0,0,1
0:08.794,3166,N,0,0,0
0:08.831,3179,),0,0,1
0:08.986,3235,(,0,0,2
0:09.081,3269,t,0,0,0
0:09.175,3303,),0,0,2
0:09.800,3528,(,0,0,0
0:09.828,3538,p,0,0,0
0:09.861,3550,),0,0,0
0:09.897,3563,(,0,0,1
0:09.969,3589,N,0,0,0
0:10.003,3601,),0,0,1
0:10.139,3650,(,0,0,2
0:10.247,3689,t,0,0,0
0:10.333,3720,),0,0,2
0:10.961,3946,(,0,0,0
0:10.989,3956,p,0,0,0
0:11.022,3968,),0,0,0
0:11.058,3981,(,0,0,1
0:11.125,4005,N,0,0,0
0:11.161,4018,),0,0,1
0:11.303,4069,(,0,0,2
0:11.392,4101,t,0,0,0
0:11.481,4133,),0,0,2
0:12.056,4340,(,0,0,0
0:12.086,4351,p,0,0,0
0:12.119,4363,),0,0,0
0:12.161,4378,(,0,0,1
0:12.219,4399,N,0,0,0
0:12.250,4410,),0,0,1
0:12.389,4460,(,0,0,2
0:12.483,4494,t,0,0,0
0:12.572,4526,),0,0,2
0:13.161,4738,(,0,0,0
0:13.197,4751,p,0,0,0
0:13.228,4762,),0,0,0
0:13.267,4776,(,0,0,1
0:13.331,4799,N,0,0,0
0:13.364,4811,),0,0,1
0:13.506,4862,(,0,0,2
0:13.592,4893,t,0,0,0
0:13.689,4928,),0,0,2
0:14.269,5137,(,0,0,0
0:14.303,5149,p,0,0,0
0:14.339,5162,),0,0,0
0:14.367,5172,(,0,0,1
0:14.442,5199,N,0,0,0
0:14.475,5211,),0,0,1
0:14.614,5261,(,0,0,2
0:14.717,5298,t,0,0,0
0:14.811,5332,),0,0,2
0:15.414,5549,(,0,0,0
0:15.447,5561,p,0,0,0
0:15.478,5572,),0,0,0
0:15.514,5585,(,0,0,1
0:15.589,5612,N,0,0,0
0:15.625,5625,),0,0,1
0:15.769,5677,(,0,0,2
0:15.867,5712,t,0,0,0
0:15.967,5748,),0,0,2
0:16.639,5990,(,0,0,1
0:16.706,6014,N,0,0,0
0:16.739,6026,),0,0,1
0:16.883,6078,(,0,0,2
0:16.975,6111,t,0,0,0
0:17.064,6143,),0,0,2
0:17.622,6344,(,0,0,0
0:17.656,6356,p,0,0,0
0:17.686,6367,),0,0,0
0:17.725,6381,(,0,0,1
0:17.794,6406,N,0,0,0
0:17.831,6419,),0,0,1
0:17.967,6468,(,0,0,2
0:18.053,6499,t,0,0,0
0:18.144,6532,),0,0,2
0:18.714,6737,(,0,0,0
0:18.744,6748,p,0,0,0
0:18.775,6759,),0,0,0
0:18.811,6772,(,0,0,1
0:18.881,6797,N,0,0,0
0:18.917,6810,),0,0,1
0:19.056,6860,(,0,0,2
0:19.142,6891,t,0,0,0
0:19.228,6922,),0,0,2
0:19.806,7130,(,0,0,0
0:19.842,7143,p,0,0,0
0:19.869,7153,),0,0,0
0:19.897,7163,(,0,0,1
0:19.972,7190,N,0,0,0
0:20.006,7202,),0,0,1
0:20.142,7251,(,0,0,2
0:20.247,7289,t,0,0,0
0:20.336,7321,),0,0,2
0:20.956,7544,(,0,0,0
0:20.989,7556,p,0,0,0
0:21.017,7566,),0,0,0
0:21.044,7576,(,0,0,1
0:21.128,7606,N,0,0,0
0:21.167,7620,),0,0,1
0:21.319,7675,(,0,0,2
0:21.414,7709,t,0,0,0
0:21.506,7742,),0,0,2
0:22.156,7976,(,0,0,0
0:22.186,7987,p,0,0,0
0:22.225,8001,),0,0,0
0:22.256,8012,(,0,0,1
0:22.336,8041,N,0,0,0
0:22.369,8053,),0,0,1
0:22.522,8108,(,0,0,2
0:22.619,8143,t,0,0,0
0:22.711,8176,),0,0,2
0:23.331,8399,(,0,0,0
0:23.361,8410,p,0,0,0
0:23.394,8422,),0,0,0
0:23.431,8435,(,0,0,1
0:23.500,8460,N,0,0,0
0:23.536,8473,),0,0,1
0:23.678,8524,(,0,0,2
0:23.767,8556,t,0,0,0
0:23.850,8586,),0,0,2
0:24.439,8798,(,0,0,0
0:24.469,8809,p,0,0,0
0:24.500,8820,),0,0,0
0:24.536,8833,(,0,0,1
0:24.600,8856,N,0,0,0
0:24.633,8868,),0,0,1
0:24.769,8917,(,0,0,2
0:24.867,8952,t,0,0,0
0:24.958,8985,),0,0,2
0:25.556,9200,(,0,0,0
0:25.583,9210,p,0,0,0
0:25.611,9220,),0,0,0
0:25.644,9232,(,0,0,1
0:25.722,9260,N,0,0,0
0:25.756,9272,),0,0,1
0:25.906,9326,(,0,0,2
0:25.992,9357,t,0,0,0
0:26.083,9390,),0,0,2
0:26.814,9653,(,0,0,1
0:26.881,9677,N,0,0,0
0:26.914,9689,),0,0,1
0:27.039,9734,(,0,0,2
0:27.164,9779,t,0,0,0
0:27.250,9810,),0,0,2
0:27.903,10045,(,0,0,0
0:27.933,10056,p,0,0,0
0:27.967,10068,),0,0,0
0:28.017,10086,(,0,0,1
0:28.078,10108,N,0,0,0
0:28.114,10121,),0,0,1
0:28.267,10176,(,0,0,2
0:28.361,10210,t,0,0,0
0:28.458,10245,),0,0,2
0:28.589,10292,(,0,0,0
0:28.644,10312,p,0,0,0
0:28.728,10342,),0,0,0
0:28.742,10347,(,0,0,1
0:28.811,10372,N,0,0,0
0:28.861,10390,),0,0,1
0:28.908,10407,(,0,0,2
0:29.025,10449,t,0,0,0
0:29.139,10490,),0,0,2
0:30.117,10842,(,0,0,0
0:30.147,10853,p,0,0,0
0:30.181,10865,),0,0,0
0:30.208,10875,(,0,0,1
0:30.275,10899,N,0,0,0
0:30.311,10912,),0,0,1
0:30.450,10962,(,0,0,2
0:30.550,10998,t,0,0,0
0:30.633,11028,),0,0,2
0:31.189,11228,(,0,0,0
0:31.222,11240,p,0,0,0
0:31.250,11250,),0,0,0
0:31.297,11267,(,0,0,1
0:31.358,11289,N,0,0,0
0:31.392,11301,),0,0,1
0:31.528,11350,(,0,0,2
0:31.636,11389,t,0,0,0
0:31.725,11421,),0,0,2
0:32.375,11655,(,0,0,1
0:32.447,11681,N,0,0,0
0:32.481,11693,),0,0,1
0:32.628,11746,(,0,0,2
0:32.736,11785,t,0,0,0
0:32.828,11818,),0,0,2
0:33.406,12026,(,0,0,0
0:33.433,12036,p,0,0,0
0:33.464,12047,),0,0,0
0:33.497,12059,(,0,0,1
0:33.575,12087,N,0,0,0
0:33.611,12100,),0,0,1
0:33.753,12151,(,0,0,2
0:33.856,12188,t,0,0,0
0:33.944,12220,),0,0,2
0:34.531,12431,(,0,0,0
0:34.561,12442,p,0,0,0
0:34.594,12454,),0,0,0
0:34.642,12471,(,0,0,1
0:34.708,12495,N,0,0,0
0:34.742,12507,),0,0,1
0:34.900,12564,(,0,0,2
0:34.989,12596,t,0,0,0
0:35.078,12628,),0,0,2
0:35.628,12826,(,0,0,0
0:35.661,12838,p,0,0,0
0:35.694,12850,),0,0,0
0:35.722,12860,(,0,0,1
0:35.792,12885,N,0,0,0
0:35.833,12900,),0,0,1
0:35.950,12942,(,0,0,2
0:36.058,12981,t,0,0,0
0:36.147,13013,),0,0,2
0:36.717,13218,(,0,0,0
0:36.747,13229,p,0,0,0
0:36.778,13240,),0,0,0
0:36.819,13255,(,0,0,1
0:36.883,13278,N,0,0,0
0:36.917,13290,),0,0,1
0:37.067,13344,(,0,0,2
0:37.156,13376,t,0,0,0
0:37.247,13409,),0,0,2
0:37.819,13615,(,0,0,0
0:37.850,13626,p,0,0,0
0:37.883,13638,),0,0,0
0:37.917,13650,(,0,0,1
0:37.983,13674,N,0,0,0
0:38.019,13687,),0,0,1
0:38.164,13739,(,0,0,2
0:38.258,13773,t,0,0,0
0:38.358,13809,),0,0,2
0:38.981,14033,(,0,0,0
0:39.011,14044,p,0,0,0
0:39.044,14056,),0,0,0
0:39.092,14073,(,0,0,1
0:39.153,14095,N,0,0,0
0:39.186,14107,),0,0,1
0:39.331,14159,(,0,0,2
0:39.431,14195,t,0,0,0
0:39.514,14225,),0,0,2
0:40.167,14460,(,0,0,0
0:40.200,14472,p,0,0,0
0:40.236,14485,),0,0,0
0:40.269,14497,(,0,0,1
0:40.344,14524,N,0,0,0
0:40.378,14536,),0,0,1
0:40.522,14588,(,0,0,2
0:40.625,14625,t,0,0,0
0:40.719,14659,),0,0,2
0:41.358,14889,(,0,0,0
0:41.389,14900,p,0,0,0
0:41.422,14912,),0,0,0
0:41.456,14924,(,0,0,1
0:41.525,14949,N,0,0,0
0:41.558,14961,),0,0,1
0:41.697,15011,(,0,0,2
0:41.789,15044,t,0,0,0
0:41.889,15080,),0,0,2
0:42.486,15295,(,0,0,0
0:42.517,15306,p,0,0,0
0:42.550,15318,),0,0,0
0:42.567,15324,(,0,0,1
0:42.644,15352,N,0,0,0
0:42.681,15365,),0,0,1
0:42.819,15415,(,0,0,2
0:42.900,15444,t,0,0,0
0:42.986,15475,),0,0,2
0:43.600,15696,(,0,0,0
0:43.633,15708,p,0,0,0
0:43.667,15720,),0,0,0
0:43.703,15733,(,0,0,1
0:43.764,15755,N,0,0,0
0:43.797,15767,),0,0,1
0:43.939,15818,(,0,0,2
0:44.042,15855,t,0,0,0
0:44.131,15887,),0,0,2
0:44.867,16152,(,0,0,1
0:44.931,16175,N,0,0,0
0:44.964,16187,),0,0,1
0:45.119,16243,(,0,0,2
0:45.219,16279,t,0,0,0
0:45.308,16311,),0,0,2
0:45.953,16543,(,0,0,0
0:45.983,16554,p,0,0,0
0:46.017,16566,),0,0,0
0:46.064,16583,(,0,0,1
0:46.133,16608,N,0,0,0
0:46.167,16620,),0,0,1
0:46.317,16674,(,0,0,2
0:46.419,16711,t,0,0,0
0:46.506,16742,),0,0,2
0:47.119,16963,(,0,0,0
0:47.150,16974,p,0,0,0
0:47.181,16985,),0,0,0
0:47.219,16999,(,0,0,1
0:47.286,17023,N,0,0,0
0:47.317,17034,),0,0,1
0:47.456,17084,(,0,0,2
0:47.556,17120,t,0,0,0
0:47.642,17151,),0,0,2
0:48.189,17348,(,0,0,0
0:48.217,17358,p,0,0,0
0:48.250,17370,),0,0,0
0:48.297,17387,(,0,0,1
0:48.356,17408,N,0,0,0
0:48.389,17420,),0,0,1
0:48.522,17468,(,0,0,2
0:48.614,17501,t,0,0,0
0:48.700,17532,),0,0,2
0:49.256,17732,(,0,0,0
0:49.283,17742,p,0,0,0
0:49.317,17754,),0,0,0
0:49.353,17767,(,0,0,1
0:49.422,17792,N,0,0,0
0:49.456,17804,),0,0,1
0:49.597,17855,(,0,0,2
0:49.697,17891,t,0,0,0
0:49.781,17921,),0,0,2
0:50.358,18129,(,0,0,0
0:50.389,18140,p,0,0,0
0:50.422,18152,),0,0,0
0:50.469,18169,(,0,0,1
0:50.536,18193,N,0,0,0
0:50.569,18205,),0,0,1
0:50.719,18259,(,0,0,2
0:50.819,18295,t,0,0,0
0:50.914,18329,),0,0,2
0:51.528,18550,(,0,0,0
0:51.558,18561,p,0,0,0
0:51.589,18572,),0,0,0
0:51.628,18586,(,0,0,1
0:51.700,18612,N,0,0,0
0:51.731,18623,),0,0,1
0:51.886,18679,(,0,0,2
0:51.967,18708,t,0,0,0
0:52.053,18739,),0,0,2
0:52.614,18941,(,0,0,0
0:52.647,18953,p,0,0,0
0:52.678,18964,),0,0,0
0:52.714,18977,(,0,0,1
0:52.792,19005,N,0,0,0
0:52.825,19017,),0,0,1
0:52.961,19066,(,0,0,2
0:53.064,19103,t,0,0,0
0:53.158,19137,),0,0,2
0:53.725,19341,(,0,0,0
0:53.756,19352,p,0,0,0
0:53.792,19365,),0,0,0
0:53.828,19378,(,0,0,1
0:53.886,19399,N,0,0,0
0:53.917,19410,),0,0,1
0:54.044,19456,(,0,0,2
0:54.144,19492,t,0,0,0
0:54.228,19522,),0,0,2
0:54.806,19730,(,0,0,0
0:54.836,19741,p,0,0,0
0:54.861,19750,),0,0,0
0:54.911,19768,(,0,0,1
0:54.967,19788,N,0,0,0
0:55.003,19801,),0,0,1
0:55.133,19848,(,0,0,2
0:55.233,19884,t,0,0,0
0:55.317,19914,),0,0,2
0:55.914,20129,(,0,0,0
0:55.944,20140,p,0,0,0
0:55.983,20154,),0,0,0
0:56.003,20161,(,0,0,1
0:56.083,20190,N,0,0,0
0:56.117,20202,),0,0,1
0:56.244,20248,(,0,0,2
0:56.356,20288,t,0,0,0
0:56.442,20319,),0,0,2
0:57.081,20549,(,0,0,0
0:57.108,20559,p,0,0,0
0:57.144,20572,),0,0,0
0:57.189,20588,(,0,0,1
0:57.250,20610,N,0,0,0
0:57.283,20622,),0,0,1
0:57.431,20675,(,0,0,2
0:57.531,20711,t,0,0,0
0:57.619,20743,),0,0,2
0:58.367,21012,(,0,0,1
0:58.431,21035,N,0,0,0
0:58.464,21047,),0,0,1
0:58.597,21095,(,0,0,2
0:58.714,21137,t,0,0,0
0:58.803,21169,),0,0,2
0:59.447,21401,(,0,0,0
0:59.478,21412,p,0,0,0
0:59.508,21423,),0,0,0
0:59.547,21437,(,0,0,1
0:59.608,21459,N,0,0,0
0:59.639,21470,),0,0,1
0:59.778,21520,(,0,0,2
0:59.872,21554,t,0,0,0
0:59.956,21584,),0,0,2
1:00.556,21800,(,0,0,0
1:00.586,21811,p,0,0,0
1:00.622,21824,),0,0,0
1:00.653,21835,(,0,0,1
1:00.717,21858,N,0,0,0
1:00.753,21871,),0,0,1
1:00.881,21917,(,0,0,2
1:00.975,21951,t,0,0,0
1:01.058,21981,),0,0,2
1:01.658,22197,(,0,0,0
1:01.689,22208,p,0,0,0
1:01.722,22220,),0,0,0
1:01.753,22231,(,0,0,1
1:01.819,22255,N,0,0,0
1:01.856,22268,),0,0,1
1:01.983,22314,(,0,0,2
1:02.089,22352,t,0,0,0
1:02.183,22386,),0,0,2
1:02.828,22618,(,0,0,0
1:02.858,22629,p,0,0,0
1:02.894,22642,),0,0,0
1:02.933,22656,(,0,0,1
1:03.000,22680,N,0,0,0
1:03.033,22692,),0,0,1
1:03.178,22744,(,0,0,2
1:03.283,22782,t,0,0,0
1:03.369,22813,),0,0,2
1:04.017,23046,(,0,0,0
1:04.044,23056,p,0,0,0
1:04.081,23069,),0,0,0
1:04.119,23083,(,0,0,1
1:04.189,23108,N,0,0,0
1:04.222,23120,),0,0,1
1:04.383,23178,(,0,0,2
1:04.472,23210,t,0,0,0
1:04.567,23244,),0,0,2
1:05.194,23470,(,0,0,0
1:05.219,23479,p,0,0,0
1:05.253,23491,),0,0,0
1:05.292,23505,(,0,0,1
1:05.358,23529,N,0,0,0
1:05.392,23541,),0,0,1
1:05.528,23590,(,0,0,2
1:05.628,23626,t,0,0,0
1:05.717,23658,),0,0,2
1:06.308,23871,(,0,0,0
1:06.339,23882,p,0,0,0
1:06.369,23893,),0,0,0
1:06.403,23905,(,0,0,1
1:06.469,23929,N,0,0,0
1:06.500,23940,),0,0,1
1:06.642,23991,(,0,0,2
1:06.728,24022,t,0,0,0
1:06.811,24052,),0,0,2
1:07.414,24269,(,0,0,0
1:07.444,24280,p,0,0,0
1:07.481,24293,),0,0,0
1:07.522,24308,(,0,0,1
1:07.583,24330,N,0,0,0
1:07.617,24342,),0,0,1
1:07.750,24390,(,0,0,2
1:07.858,24429,t,0,0,0
1:07.944,24460,),0,0,2
1:08.594,24694,(,0,0,0
1:08.625,24705,p,0,0,0
1:08.658,24717,),0,0,0
1:08.692,24729,(,0,0,1
1:08.764,24755,N,0,0,0
1:08.797,24767,),0,0,1
1:08.953,24823,(,0,0,2
1:09.044,24856,t,0,0,0
1:09.133,24888,),0,0,2
1:09.772,25118,(,0,0,0
1:09.800,25128,p,0,0,0
1:09.839,25142,),0,0,0
1:09.883,25158,(,0,0,1
1:09.944,25180,N,0,0,0
1:09.978,25192,),0,0,1
1:10.125,25245,(,0,0,2
1:10.222,25280,t,0,0,0
1:10.311,25312,),0,0,2
1:10.919,25531,(,0,0,0
1:10.944,25540,p,0,0,0
1:10.981,25553,),0,0,0
1:11.019,25567,(,0,0,1
1:11.083,25590,N,0,0,0
1:11.117,25602,),0,0,1
1:11.233,25644,(,0,0,2
1:11.353,25687,t,0,0,0
1:11.442,25719,),0,0,2
1:12.014,25925,(,0,0,0
1:12.042,25935,p,0,0,0
1:12.075,25947,),0,0,0
1:12.117,25962,(,0,0,1
1:12.175,25983,N,0,0,0
1:12.208,25995,),0,0,1
1:12.342,26043,(,0,0,2
1:12.433,26076,t,0,0,0
1:12.522,26108,),0,0,2
1:13.097,26315,(,0,0,0
1:13.131,26327,p,0,0,0
1:13.158,26337,),0,0,0
1:13.194,26350,(,0,0,1
1:13.258,26373,N,0,0,0
1:13.292,26385,),0,0,1
1:13.439,26438,(,0,0,2
1:13.531,26471,t,0,0,0
1:13.617,26502,),0,0,2
1:14.217,26718,(,0,0,0
1:14.247,26729,p,0,0,0
1:14.278,26740,),0,0,0
1:14.322,26756,(,0,0,1
1:14.383,26778,N,0,0,0
1:14.417,26790,),0,0,1
1:14.567,26844,(,0,0,2
1:14.661,26878,t,0,0,0
1:14.756,26912,),0,0,2
1:15.381,27137,(,0,0,0
1:15.408,27147,p,0,0,0
1:15.442,27159,),0,0,0
1:15.481,27173,(,0,0,1
1:15.556,27200,N,0,0,0
1:15.589,27212,),0,0,1
1:15.728,27262,(,0,0,2
1:15.828,27298,t,0,0,0
1:15.919,27331,),0,0,2
1:16.536,27553,(,0,0,0
1:16.567,27564,p,0,0,0
1:16.600,27576,),0,0,0
1:16.636,27589,(,0,0,1
1:16.714,27617,N,0,0,0
1:16.747,27629,),0,0,1
1:16.889,27680,(,0,0,2
1:16.992,27717,t,0,0,0
1:17.083,27750,),0,0,2
1:17.697,27971,(,0,0,0
1:17.728,27982,p,0,0,0
1:17.756,27992,),0,0,0
1:17.797,28007,(,0,0,1
1:17.858,28029,N,0,0,0
1:17.892,28041,),0,0,1
1:18.022,28088,(,0,0,2
1:18.114,28121,t,0,0,0
1:18.206,28154,),0,0,2
1:18.894,28402,(,0,0,1
1:18.953,28423,N,0,0,0
1:18.983,28434,),0,0,1
1:19.111,28480,(,0,0,2
1:19.208,28515,t,0,0,0
1:19.300,28548,),0,0,2
1:19.900,28764,(,0,0,0
1:19.931,28775,p,0,0,0
1:19.958,28785,),0,0,0
1:19.994,28798,(,0,0,1
1:20.061,28822,N,0,0,0
1:20.097,28835,),0,0,1
1:20.228,28882,(,0,0,2
1:20.333,28920,t,0,0,0
1:20.425,28953,),0,0,2
1:21.061,29182,(,0,0,0
1:21.094,29194,p,0,0,0
1:21.125,29205,),0,0,0
1:21.167,29220,(,0,0,1
1:21.233,29244,N,0,0,0
1:21.269,29257,),0,0,1
1:21.417,29310,(,0,0,2
1:21.517,29346,t,0,0,0
1:21.614,29381,),0,0,2
1:22.258,29613,(,0,0,0
1:22.289,29624,p,0,0,0
1:22.319,29635,),0,0,0
1:22.358,29649,(,0,0,1
1:22.431,29675,N,0,0,0
1:22.467,29688,),0,0,1
1:22.606,29738,(,0,0,2
1:22.714,29777,t,0,0,0
1:22.811,29812,),0,0,2
1:23.525,30069,(,0,0,1
1:23.583,30090,N,0,0,0
1:23.617,30102,),0,0,1
1:23.756,30152,(,0,0,2
1:23.847,30185,t,0,0,0
1:23.931,30215,),0,0,2
1:24.528,30430,(,0,0,0
1:24.556,30440,p,0,0,0
1:24.589,30452,),0,0,0
1:24.619,30463,(,0,0,1
1:24.689,30488,N,0,0,0
1:24.722,30500,),0,0,1
1:24.844,30544,(,0,0,2
1:24.944,30580,t,0,0,0
1:25.033,30612,),0,0,2
1:25.625,30825,(,0,0,0
1:25.658,30837,p,0,0,0
1:25.694,30850,),0,0,0
1:25.717,30858,(,0,0,1
1:25.792,30885,N,0,0,0
1:25.828,30898,),0,0,1
1:25.964,30947,(,0,0,2
1:26.072,30986,t,0,0,0
1:26.169,31021,),0,0,2
1:26.936,31297,(,0,0,1
1:27.014,31325,N,0,0,0
1:27.050,31338,),0,0,1
1:27.192,31389,(,0,0,2
1:27.294,31426,t,0,0,0
1:27.389,31460,),0,0,2
1:28.031,31691,(,0,0,0
1:28.061,31702,p,0,0,0
1:28.092,31713,),0,0,0
1:28.131,31727,(,0,0,1
1:28.200,31752,N,0,0,0
1:28.233,31764,),0,0,1
1:28.378,31816,(,0,0,2
1:28.472,31850,t,0,0,0
1:28.561,31882,),0,0,2
1:29.131,32087,(,0,0,0
1:29.161,32098,p,0,0,0
1:29.197,32111,),0,0,0
1:29.231,32123,(,0,0,1
1:29.300,32148,N,0,0,0
1:29.333,32160,),0,0,1
1:29.469,32209,(,0,0,2
1:29.567,32244,t,0,0,0
1:29.653,32275,),0,0,2
1:30.206,32474,(,0,0,0
1:30.239,32486,p,0,0,0
1:30.267,32496,),0,0,0
1:30.300,32508,(,0,0,1
1:30.369,32533,N,0,0,0
1:30.403,32545,),0,0,1
1:30.528,32590,(,0,0,2
1:30.625,32625,t,0,0,0
1:30.714,32657,),0,0,2
1:31.344,32884,(,0,0,1
1:31.433,32916,N,0,0,0
1:31.467,32928,),0,0,1
1:31.608,32979,(,0,0,2
1:31.706,33014,t,0,0,0
1:31.792,33045,),0,0,2
1:32.344,33244,(,0,0,0
1:32.378,33256,p,0,0,0
1:32.408,33267,),0,0,0
1:32.442,33279,(,0,0,1
1:32.519,33307,N,0,0,0
1:32.553,33319,),0,0,1
1:32.686,33367,(,0,0,2
1:32.792,33405,t,0,0,0
1:32.894,33442,),0,0,2
1:33.464,33647,(,0,0,0
1:33.497,33659,p,0,0,0
1:33.525,33669,),0,0,0
1:33.561,33682,(,0,0,1
1:33.633,33708,N,0,0,0
1:33.672,33722,),0,0,1
1:33.817,33774,(,0,0,2
1:33.906,33806,t,0,0,0
1:34.003,33841,),0,0,2
1:34.672,34082,(,0,0,1
1:34.736,34105,N,0,0,0
1:34.769,34117,),0,0,1
1:34.914,34169,(,0,0,2
1:35.014,34205,t,0,0,0
1:35.103,34237,),0,0,2
1:35.672,34442,(,0,0,0
1:35.703,34453,p,0,0,0
1:35.736,34465,),0,0,0
1:35.769,34477,(,0,0,1
1:35.839,34502,N,0,0,0
1:35.875,34515,),0,0,1
1:36.003,34561,(,0,0,2
1:36.097,34595,t,0,0,0
1:36.189,34628,),0,0,2
1:36.742,34827,(,0,0,0
1:36.775,34839,p,0,0,0
1:36.811,34852,),0,0,0
1:36.842,34863,(,0,0,1
1:36.911,34888,N,0,0,0
1:36.944,34900,),0,0,1
1:37.086,34951,(,0,0,2
1:37.169,34981,t,0,0,0
1:37.258,35013,),0,0,2
1:37.822,35216,(,0,0,0
1:37.853,35227,p,0,0,0
1:37.881,35237,),0,0,0
1:37.922,35252,(,0,0,1
1:37.992,35277,N,0,0,0
1:38.028,35290,),0,0,1
1:38.167,35340,(,0,0,2
1:38.258,35373,t,0,0,0
1:38.353,35407,),0,0,2
1:38.969,35629,(,0,0,0
1:39.000,35640,p,0,0,0
1:39.033,35652,),0,0,0
1:39.069,35665,(,0,0,1
1:39.142,35691,N,0,0,0
1:39.175,35703,),0,0,1
1:39.319,35755,(,0,0,2
1:39.414,35789,t,0,0,0
1:39.506,35822,),0,0,2
1:40.131,36047,(,0,0,0
1:40.167,36060,p,0,0,0
1:40.203,36073,),0,0,0
1:40.233,36084,(,0,0,1
1:40.308,36111,N,0,0,0
1:40.342,36123,),0,0,1
1:40.494,36178,(,0,0,2
1:40.586,36211,t,0,0,0
1:40.683,36246,),0,0,2
1:41.281,36461,(,0,0,0
1:41.311,36472,p,0,0,0
1:41.344,36484,),0,0,0
1:41.386,36499,(,0,0,1
1:41.453,36523,N,0,0,0
1:41.642,36591,),0,0,1
1:41.672,36602,(,0,0,2
1:41.711,36616,t,0,0,0
1:41.794,36646,),0,0,2
1:42.358,36849,(,0,0,0
1:42.389,36860,p,0,0,0
1:42.425,36873,),0,0,0
1:42.458,36885,(,0,0,1
1:42.522,36908,N,0,0,0
1:42.556,36920,),0,0,1
1:42.692,36969,(,0,0,2
1:42.781,37001,t,0,0,0
1:42.867,37032,),0,0,2
1:43.419,37231,(,0,0,0
1:43.447,37241,p,0,0,0
1:43.478,37252,),0,0,0
1:43.525,37269,(,0,0,1
1:43.586,37291,N,0,0,0
1:43.622,37304,),0,0,1
1:43.758,37353,(,0,0,2
1:43.853,37387,t,0,0,0
1:43.944,37420,),0,0,2
1:44.544,37636,(,0,0,0
1:44.575,37647,p,0,0,0
1:44.606,37658,),0,0,0
1:44.653,37675,(,0,0,1
1:44.725,37701,N,0,0,0
1:44.761,37714,),0,0,1
1:44.928,37774,(,0,0,2
1:45.014,37805,t,0,0,0
1:45.106,37838,),0,0,2
1:45.694,38050,(,0,0,0
1:45.725,38061,p,0,0,0
1:45.756,38072,),0,0,0
1:45.806,38090,(,0,0,1
1:45.875,38115,N,0,0,0
1:45.908,38127,),0,0,1
1:46.058,38181,(,0,0,2
1:46.158,38217,t,0,0,0
1:46.253,38251,),0,0,2
1:46.836,38461,(,0,0,0
1:46.869,38473,p,0,0,0
1:46.900,38484,),0,0,0
1:46.939,38498,(,0,0,1
1:47.006,38522,N,0,0,0
1:47.042,38535,),0,0,1
1:47.181,38585,(,0,0,2
1:47.278,38620,t,0,0,0
1:47.372,38654,),0,0,2
1:47.953,38863,(,0,0,0
1:47.986,38875,p,0,0,0
1:48.017,38886,),0,0,0
1:48.056,38900,(,0,0,1
1:48.119,38923,N,0,0,0
1:48.153,38935,),0,0,1
1:48.289,38984,(,0,0,2
1:48.383,39018,t,0,0,0
1:48.467,39048,),0,0,2
1:49.142,39291,(,0,0,1
1:49.208,39315,N,0,0,0
1:49.244,39328,),0,0,1
1:49.381,39377,(,0,0,2
1:49.478,39412,t,0,0,0
1:49.569,39445,),0,0,2
1:50.183,39666,(,0,0,0
1:50.211,39676,p,0,0,0
1:50.244,39688,),0,0,0
1:50.289,39704,(,0,0,1
1:50.358,39729,N,0,0,0
1:50.392,39741,),0,0,1
1:50.550,39798,(,0,0,2
1:50.647,39833,t,0,0,0
1:50.739,39866,),0,0,2
1:51.361,40090,(,0,0,0
1:51.392,40101,p,0,0,0
1:51.428,40114,),0,0,0
1:51.467,40128,(,0,0,1
1:51.539,40154,N,0,0,0
1:51.575,40167,),0,0,1
1:51.731,40223,(,0,0,2
1:51.819,40255,t,0,0,0
1:51.906,40286,),0,0,2
1:52.528,40510,(,0,0,0
1:52.558,40521,p,0,0,0
1:52.592,40533,),0,0,0
1:52.628,40546,(,0,0,1
1:52.697,40571,N,0,0,0
1:52.731,40583,),0,0,1
1:52.883,40638,(,0,0,2
1:52.975,40671,t,0,0,0
1:53.067,40704,),0,0,2
1:53.658,40917,(,0,0,0
1:53.689,40928,p,0,0,0
1:53.719,40939,),0,0,0
1:53.756,40952,(,0,0,1
1:53.825,40977,N,0,0,0
1:53.858,40989,),0,0,1
1:54.003,41041,(,0,0,2
1:54.092,41073,t,0,0,0
1:54.183,41106,),0,0,2
1:54.747,41309,(,0,0,0
1:54.778,41320,p,0,0,0
1:54.808,41331,),0,0,0
1:54.842,41343,(,0,0,1
1:54.911,41368,N,0,0,0
1:54.944,41380,),0,0,1
1:55.086,41431,(,0,0,2
1:55.181,41465,t,0,0,0
1:55.269,41497,),0,0,2
1:55.831,41699,(,0,0,0
1:55.861,41710,p,0,0,0
1:55.894,41722,),0,0,0
1:55.922,41732,(,0,0,1
1:55.992,41757,N,0,0,0
1:56.022,41768,),0,0,1
1:56.178,41824,(,0,0,2
1:56.267,41856,t,0,0,0
1:56.358,41889,),0,0,2
1:56.950,42102,(,0,0,0
1:56.981,42113,p,0,0,0
1:57.017,42126,),0,0,0
1:57.061,42142,(,0,0,1
1:57.131,42167,N,0,0,0
1:57.167,42180,),0,0,1
1:57.303,42229,(,0,0,2
1:57.414,42269,t,0,0,0
1:57.506,42302,),0,0,2
1:58.103,42517,(,0,0,0
1:58.133,42528,p,0,0,0
1:58.169,42541,),0,0,0
1:58.206,42554,(,0,0,1
1:58.281,42581,N,0,0,0
1:58.314,42593,),0,0,1
1:58.456,42644,(,0,0,2
1:58.558,42681,t,0,0,0
1:58.647,42713,),0,0,2
1:59.256,42932,(,0,0,0
1:59.286,42943,p,0,0,0
1:59.317,42954,),0,0,0
1:59.358,42969,(,0,0,1
1:59.425,42993,N,0,0,0
1:59.458,43005,),0,0,1
1:59.608,43059,(,0,0,2
1:59.697,43091,t,0,0,0
1:59.781,43121,),0,0,2
2:00.356,43328,(,0,0,0
2:00.389,43340,p,0,0,0
2:00.414,43349,),0,0,0
2:00.453,43363,(,0,0,1
2:00.514,43385,N,0,0,0
2:00.550,43398,),0,0,1
2:00.681,43445,(,0,0,2
2:00.778,43480,t,0,0,0
2:00.872,43514,),0,0,2
2:01.442,43719,(,0,0,0
2:01.472,43730,p,0,0,0
2:01.500,43740,),0,0,0
2:01.539,43754,(,0,0,1
2:01.606,43778,N,0,0,0
2:01.636,43789,),0,0,1
2:01.786,43843,(,0,0,2
2:01.869,43873,t,0,0,0
2:01.956,43904,),0,0,2
2:02.569,44125,(,0,0,0
2:02.603,44137,p,0,0,0
2:02.633,44148,),0,0,0
2:02.675,44163,(,0,0,1
2:02.744,44188,N,0,0,0
2:02.781,44201,),0,0,1
2:02.919,44251,(,0,0,2
2:03.031,44291,t,0,0,0
2:03.133,44328,),0,0,2
2:03.764,44555,(,0,0,0
2:03.794,44566,p,0,0,0
2:03.825,44577,),0,0,0
2:03.867,44592,(,0,0,1
2:03.933,44616,N,0,0,0
2:03.969,44629,),0,0,1
2:04.117,44682,(,0,0,2
2:04.217,44718,t,0,0,0
2:04.311,44752,),0,0,2
2:04.919,44971,(,0,0,0
2:04.953,44983,p,0,0,0
2:04.983,44994,),0,0,0
2:05.000,45000,(,0,0,1
2:05.081,45029,N,0,0,0
2:05.114,45041,),0,0,1
2:05.258,45093,(,0,0,2
2:05.344,45124,t,0,0,0
2:05.433,45156,),0,0,2
2:06.014,45365,(,0,0,0
2:06.044,45376,p,0,0,0
2:06.072,45386,),0,0,0
2:06.108,45399,(,0,0,1
2:06.181,45425,N,0,0,0
2:06.214,45437,),0,0,1
2:06.347,45485,(,0,0,2
2:06.444,45520,t,0,0,0
2:06.528,45550,),0,0,2
2:07.111,45760,(,0,0,0
2:07.142,45771,p,0,0,0
2:07.172,45782,),0,0,0
2:07.208,45795,(,0,0,1
2:07.272,45818,N,0,0,0
2:07.306,45830,),0,0,1
2:07.453,45883,(,0,0,2
2:07.536,45913,t,0,0,0
2:07.639,45950,),0,0,2
2:08.236,46165,(,0,0,0
2:08.267,46176,p,0,0,0
2:08.297,46187,),0,0,0
2:08.333,46200,(,0,0,1
2:08.411,46228,N,0,0,0
2:08.447,46241,),0,0,1
2:08.597,46295,(,0,0,2
2:08.700,46332,t,0,0,0
2:08.803,46369,),0,0,2
2:09.433,46596,(,0,0,0
2:09.467,46608,p,0,0,0
2:09.497,46619,),0,0,0
2:09.536,46633,(,0,0,1
2:09.606,46658,N,0,0,0
2:09.639,46670,),0,0,1
2:09.794,46726,(,0,0,2
2:09.883,46758,t,0,0,0
2:09.975,46791,),0,0,2
2:10.600,47016,(,0,0,0
2:10.636,47029,p,0,0,0
2:10.667,47040,),0,0,0
2:10.700,47052,(,0,0,1
2:10.772,47078,N,0,0,0
2:10.808,47091,),0,0,1
2:10.944,47140,(,0,0,2
2:11.044,47176,t,0,0,0
2:11.133,47208,),0,0,2
2:11.747,47429,(,0,0,0
2:11.778,47440,p,0,0,0
2:11.808,47451,),0,0,0
2:11.842,47463,(,0,0,1
2:11.911,47488,N,0,0,0
2:11.944,47500,),0,0,1
2:12.086,47551,(,0,0,2
2:12.178,47584,t,0,0,0
2:12.267,47616,),0,0,2
2:12.861,47830,(,0,0,0
2:12.894,47842,p,0,0,0
2:12.925,47853,),0,0,0
2:12.958,47865,(,0,0,1
2:13.025,47889,N,0,0,0
2:13.058,47901,),0,0,1
2:13.192,47949,(,0,0,2
2:13.286,47983,t,0,0,0
2:13.375,48015,),0,0,2
2:13.983,48234,(,0,0,0
2:14.014,48245,p,0,0,0
2:14.042,48255,),0,0,0
2:14.083,48270,(,0,0,1
2:14.147,48293,N,0,0,0
2:14.183,48306,),0,0,1
2:14.322,48356,(,0,0,2
2:14.417,48390,t,0,0,0
2:14.506,48422,),0,0,2
2:15.131,48647,(,0,0,0
2:15.161,48658,p,0,0,0
2:15.192,48669,),0,0,0
2:15.225,48681,(,0,0,1
2:15.300,48708,N,0,0,0
2:15.336,48721,),0,0,1
2:15.478,48772,(,0,0,2
2:15.581,48809,t,0,0,0
2:15.678,48844,),0,0,2
2:16.306,49070,(,0,0,0
2:16.339,49082,p,0,0,0
2:16.369,49093,),0,0,0
2:16.403,49105,(,0,0,1
2:16.478,49132,N,0,0,0
2:16.517,49146,),0,0,1
2:16.658,49197,(,0,0,2
2:16.753,49231,t,0,0,0
2:16.847,49265,),0,0,2
2:17.447,49481,(,0,0,0
2:17.478,49492,p,0,0,0
2:17.511,49504,),0,0,0
2:17.533,49512,(,0,0,1
2:17.611,49540,N,0,0,0
2:17.647,49553,),0,0,1
2:17.778,49600,(,0,0,2
2:17.878,49636,t,0,0,0
2:17.972,49670,),0,0,2
2:18.550,49878,(,0,0,0
2:18.578,49888,p,0,0,0
2:18.608,49899,),0,0,0
2:18.636,49909,(,0,0,1
2:18.708,49935,N,0,0,0
2:18.742,49947,),0,0,1
2:18.883,49998,(,0,0,2
2:18.969,50029,t,0,0,0
2:19.061,50062,),0,0,2
2:19.725,50301,(,0,0,1
2:19.794,50326,N,0,0,0
2:19.828,50338,),0,0,1
2:19.967,50388,(,0,0,2
2:20.058,50421,t,0,0,0
2:20.153,50455,),0,0,2
2:20.750,50670,(,0,0,0
2:20.783,50682,p,0,0,0
2:20.814,50693,),0,0,0
2:20.847,50705,(,0,0,1
2:20.928,50734,N,0,0,0
2:20.961,50746,),0,0,1
2:21.128,50806,(,0,0,2
2:21.211,50836,t,0,0,0
2:21.308,50871,),0,0,2
2:21.944,51100,(,0,0,0
2:21.981,51113,p,0,0,0
2:22.008,51123,),0,0,0
2:22.061,51142,(,0,0,1
2:22.122,51164,N,0,0,0
2:22.156,51176,),0,0,1
2:22.303,51229,(,0,0,2
2:22.397,51263,t,0,0,0
2:22.492,51297,),0,0,2
2:23.103,51517,(,0,0,0
2:23.131,51527,p,0,0,0
2:23.161,51538,),0,0,0
2:23.206,51554,(,0,0,1
2:23.269,51577,N,0,0,0
2:23.306,51590,),0,0,1
2:23.439,51638,(,0,0,2
2:23.531,51671,t,0,0,0
2:23.628,51706,),0,0,2
2:24.192,51909,(,0,0,0
2:24.225,51921,p,0,0,0
2:24.253,51931,),0,0,0
2:24.286,51943,(,0,0,1
2:24.356,51968,N,0,0,0
2:24.386,51979,),0,0,1
2:24.522,52028,(,0,0,2
2:24.611,52060,t,0,0,0
2:24.692,52089,),0,0,2
2:25.278,52300,(,0,0,0
2:25.308,52311,p,0,0,0
2:25.342,52323,),0,0,0
2:25.372,52334,(,0,0,1
2:25.444,52360,N,0,0,0
2:25.478,52372,),0,0,1
2:25.603,52417,(,0,0,2
2:25.703,52453,t,0,0,0
2:25.781,52481,),0,0,2
2:26.406,52706,(,0,0,0
2:26.439,52718,p,0,0,0
2:26.475,52731,),0,0,0
2:26.514,52745,(,0,0,1
2:26.583,52770,N,0,0,0
2:26.619,52783,),0,0,1
2:26.764,52835,(,0,0,2
2:26.861,52870,t,0,0,0
2:26.961,52906,),0,0,2
2:27.619,53143,(,0,0,0
2:27.653,53155,p,0,0,0
2:27.689,53168,),0,0,0
2:27.722,53180,(,0,0,1
2:27.800,53208,N,0,0,0
2:27.833,53220,),0,0,1
2:27.972,53270,(,0,0,2
2:28.075,53307,t,0,0,0
2:28.172,53342,),0,0,2
2:28.808,53571,(,0,0,0
2:28.842,53583,p,0,0,0
2:28.875,53595,),0,0,0
2:28.911,53608,(,0,0,1
2:28.983,53634,N,0,0,0
2:29.017,53646,),0,0,1
2:29.156,53696,(,0,0,2
2:29.250,53730,t,0,0,0
2:29.342,53763,),0,0,2
2:29.950,53982,(,0,0,0
2:29.983,53994,p,0,0,0
2:30.011,54004,),0,0,0
2:30.031,54011,(,0,0,1
2:30.117,54042,N,0,0,0
2:30.150,54054,),0,0,1
2:30.283,54102,(,0,0,2
2:30.381,54137,t,0,0,0
2:30.467,54168,),0,0,2
2:31.092,54393,(,0,0,0
2:31.125,54405,p,0,0,0
2:31.158,54417,),0,0,0
2:31.200,54432,(,0,0,1
2:31.261,54454,N,0,0,0
2:31.294,54466,),0,0,1
2:31.444,54520,(,0,0,2
2:31.528,54550,t,0,0,0
2:31.614,54581,),0,0,2
2:32.244,54808,(,0,0,0
2:32.278,54820,p,0,0,0
2:32.319,54835,),0,0,0
2:32.344,54844,(,0,0,1
2:32.428,54874,N,0,0,0
2:32.464,54887,),0,0,1
2:32.617,54942,(,0,0,2
2:32.708,54975,t,0,0,0
2:32.808,55011,),0,0,2
2:33.436,55237,(,0,0,0
2:33.472,55250,p,0,0,0
2:33.506,55262,),0,0,0
2:33.542,55275,(,0,0,1
2:33.617,55302,N,0,0,0
2:33.650,55314,),0,0,1
2:33.800,55368,(,0,0,2
2:33.892,55401,t,0,0,0
2:33.983,55434,),0,0,2
2:34.614,55661,(,0,0,0
2:34.644,55672,p,0,0,0
2:34.675,55683,),0,0,0
2:34.722,55700,(,0,0,1
2:34.789,55724,N,0,0,0
2:34.822,55736,),0,0,1
2:34.958,55785,(,0,0,2
2:35.053,55819,t,0,0,0
2:35.150,55854,),0,0,2
2:35.731,56063,(,0,0,0
2:35.767,56076,p,0,0,0
2:35.800,56088,),0,0,0
2:35.825,56097,(,0,0,1
2:35.897,56123,N,0,0,0
2:35.931,56135,),0,0,1
2:36.069,56185,(,0,0,2
2:36.158,56217,t,0,0,0
2:36.250,56250,),0,0,2
2:36.825,56457,(,0,0,0
2:36.856,56468,p,0,0,0
2:36.883,56478,),0,0,0
2:36.914,56489,(,0,0,1
2:36.989,56516,N,0,0,0
2:37.022,56528,),0,0,1
2:37.156,56576,(,0,0,2
2:37.247,56609,t,0,0,0
2:37.336,56641,),0,0,2
2:37.906,56846,(,0,0,0
2:37.936,56857,p,0,0,0
2:37.964,56867,),0,0,0
2:37.992,56877,(,0,0,1
2:38.078,56908,N,0,0,0
2:38.114,56921,),0,0,1
2:38.242,56967,(,0,0,2
2:38.350,57006,t,0,0,0
2:38.442,57039,),0,0,2
2:39.150,57294,(,0,0,1
2:39.214,57317,N,0,0,0
2:39.247,57329,),0,0,1
2:39.408,57387,(,0,0,2
2:39.497,57419,t,0,0,0
2:39.589,57452,),0,0,2
2:40.211,57676,(,0,0,0
2:40.244,57688,p,0,0,0
2:40.281,57701,),0,0,0
2:40.322,57716,(,0,0,1
2:40.392,57741,N,0,0,0
2:40.428,57754,),0,0,1
2:40.575,57807,(,0,0,2
2:40.667,57840,t,0,0,0
2:40.761,57874,),0,0,2
2:41.344,58084,(,0,0,0
2:41.375,58095,p,0,0,0
2:41.408,58107,),0,0,0
2:41.447,58121,(,0,0,1
2:41.514,58145,N,0,0,0
2:41.550,58158,),0,0,1
2:41.683,58206,(,0,0,2
2:41.778,58240,t,0,0,0
2:41.867,58272,),0,0,2
2:42.425,58473,(,0,0,0
2:42.458,58485,p,0,0,0
2:42.494,58498,),0,0,0
2:42.525,58509,(,0,0,1
2:42.592,58533,N,0,0,0
2:42.625,58545,),0,0,1
2:42.775,58599,(,0,0,2
2:42.858,58629,t,0,0,0
2:42.947,58661,),0,0,2
2:43.631,58907,(,0,0,1
2:43.697,58931,N,0,0,0
2:43.736,58945,),0,0,1
2:43.872,58994,(,0,0,2
2:43.967,59028,t,0,0,0
2:44.061,59062,),0,0,2
2:44.686,59287,(,0,0,0
2:44.717,59298,p,0,0,0
2:44.756,59312,),0,0,0
2:44.803,59329,(,0,0,1
2:44.869,59353,N,0,0,0
2:44.903,59365,),0,0,1
2:45.056,59420,(,0,0,2
2:45.153,59455,t,0,0,0
2:45.239,59486,),0,0,2
2:45.894,59722,(,0,0,0
2:45.928,59734,p,0,0,0
2:45.958,59745,),0,0,0
2:46.000,59760,(,0,0,1
2:46.075,59787,N,0,0,0
2:46.111,59800,),0,0,1
2:46.250,59850,(,0,0,2
2:46.361,59890,t,0,0,0
2:46.453,59923,),0,0,2
2:47.067,60144,(,0,0,0
2:47.097,60155,p,0,0,0
2:47.125,60165,),0,0,0
2:47.175,60183,(,0,0,1
2:47.236,60205,N,0,0,0
2:47.272,60218,),0,0,1
2:47.422,60272,(,0,0,2
2:47.508,60303,t,0,0,0
2:47.600,60336,),0,0,2
2:48.164,60539,(,0,0,0
2:48.194,60550,p,0,0,0
2:48.225,60561,),0,0,0
2:48.253,60571,(,0,0,1
2:48.322,60596,N,0,0,0
2:48.358,60609,),0,0,1
2:48.497,60659,(,0,0,2
2:48.583,60690,t,0,0,0
2:48.669,60721,),0,0,2
2:49.264,60935,(,0,0,0
2:49.297,60947,p,0,0,0
2:49.325,60957,),0,0,0
2:49.361,60970,(,0,0,1
2:49.433,60996,N,0,0,0
2:49.469,61009,),0,0,1
2:49.600,61056,(,0,0,2
2:49.706,61094,t,0,0,0
2:49.797,61127,),0,0,2
2:50.397,61343,(,0,0,0
2:50.428,61354,p,0,0,0
2:50.464,61367,),0,0,0
2:50.503,61381,(,0,0,1
2:50.569,61405,N,0,0,0
2:50.603,61417,),0,0,1
2:50.739,61466,(,0,0,2
2:50.858,61509,t,0,0,0
2:50.947,61541,),0,0,2
2:51.567,61764,(,0,0,0
2:51.597,61775,p,0,0,0
2:51.631,61787,),0,0,0
2:51.672,61802,(,0,0,1
2:51.739,61826,N,0,0,0
2:51.775,61839,),0,0,1
2:51.922,61892,(,0,0,2
2:52.022,61928,t,0,0,0
2:52.117,61962,),0,0,2
2:52.722,62180,(,0,0,0
2:52.753,62191,p,0,0,0
2:52.789,62204,),0,0,0
2:52.819,62215,(,0,0,1
2:52.894,62242,N,0,0,0
2:52.928,62254,),0,0,1
2:53.067,62304,(,0,0,2
2:53.169,62341,t,0,0,0
2:53.253,62371,),0,0,2
2:53.842,62583,(,0,0,0
2:53.872,62594,p,0,0,0
2:53.906,62606,),0,0,0
2:53.944,62620,(,0,0,1
2:54.011,62644,N,0,0,0
2:54.047,62657,),0,0,1
2:54.186,62707,(,0,0,2
2:54.278,62740,t,0,0,0
2:54.367,62772,),0,0,2
2:55.064,63023,(,0,0,1
2:55.125,63045,N,0,0,0
2:55.156,63056,),0,0,1
2:55.303,63109,(,0,0,2
2:55.394,63142,t,0,0,0
2:55.475,63171,),0,0,2
2:56.081,63389,(,0,0,0
2:56.108,63399,p,0,0,0
2:56.142,63411,),0,0,0
2:56.189,63428,(,0,0,1
2:56.253,63451,N,0,0,0
2:56.289,63464,),0,0,1
2:56.436,63517,(,0,0,2
2:56.536,63553,t,0,0,0
2:56.628,63586,),0,0,2
2:57.247,63809,(,0,0,0
2:57.278,63820,p,0,0,0
2:57.308,63831,),0,0,0
2:57.353,63847,(,0,0,1
2:57.419,63871,N,0,0,0
2:57.456,63884,),0,0,1
2:57.603,63937,(,0,0,2
2:57.703,63973,t,0,0,0
2:57.792,64005,),0,0,2
2:58.428,64234,(,0,0,0
2:58.458,64245,p,0,0,0
2:58.492,64257,),0,0,0
2:58.542,64275,(,0,0,1
2:58.606,64298,N,0,0,0
2:58.639,64310,),0,0,1
2:58.794,64366,(,0,0,2
2:58.892,64401,t,0,0,0
2:58.978,64432,),0,0,2
2:59.561,64642,(,0,0,0
2:59.592,64653,p,0,0,0
2:59.625,64665,),0,0,0
2:59.669,64681,(,0,0,1
2:59.728,64702,N,0,0,0
2:59.761,64714,),0,0,1
2:59.886,64759,(,0,0,2
2:59.992,64797,t,0,0,0
3:00.083,64830,),0,0,2
3:00.633,65028,(,0,0,0
3:00.667,65040,p,0,0,0
3:00.694,65050,),0,0,0
3:00.739,65066,(,0,0,1
3:00.797,65087,N,0,0,0
3:00.831,65099,),0,0,1
3:00.964,65147,(,0,0,2
3:01.061,65182,t,0,0,0
3:01.150,65214,),0,0,2
3:01.794,65446,(,0,0,1
3:01.861,65470,N,0,0,0
3:01.897,65483,),0,0,1
3:02.033,65532,(,0,0,2
3:02.144,65572,t,0,0,0
3:02.242,65607,),0,0,2
3:02.817,65814,(,0,0,0
3:02.850,65826,p,0,0,0
3:02.883,65838,),0,0,0
3:02.919,65851,(,0,0,1
3:02.994,65878,N,0,0,0
3:03.031,65891,),0,0,1
3:03.192,65949,(,0,0,2
3:03.283,65982,t,0,0,0
3:03.375,66015,),0,0,2
3:04.008,66243,(,0,0,0
3:04.039,66254,p,0,0,0
3:04.075,66267,),0,0,0
3:04.119,66283,(,0,0,1
3:04.186,66307,N,0,0,0
3:04.219,66319,),0,0,1
3:04.383,66378,(,0,0,2
3:04.469,66409,t,0,0,0
3:04.561,66442,),0,0,2
3:05.144,66652,(,0,0,0
3:05.172,66662,p,0,0,0
3:05.206,66674,),0,0,0
3:05.250,66690,(,0,0,1
3:05.314,66713,N,0,0,0
3:05.347,66725,),0,0,1
3:05.481,66773,(,0,0,2
3:05.586,66811,t,0,0,0
3:05.672,66842,),0,0,2
3:06.233,67044,(,0,0,0
3:06.264,67055,p,0,0,0
3:06.292,67065,),0,0,0
3:06.325,67077,(,0,0,1
3:06.394,67102,N,0,0,0
3:06.425,67113,),0,0,1
3:06.558,67161,(,0,0,2
3:06.653,67195,t,0,0,0
3:06.744,67228,),0,0,2
3:07.325,67437,(,0,0,0
3:07.356,67448,p,0,0,0
3:07.386,67459,),0,0,0
3:07.428,67474,(,0,0,1
3:07.494,67498,N,0,0,0
3:07.528,67510,),0,0,1
3:07.683,67566,(,0,0,2
3:07.775,67599,t,0,0,0
3:07.869,67633,),0,0,2
3:08.497,67859,(,0,0,0
3:08.531,67871,p,0,0,0
3:08.561,67882,),0,0,0
3:08.603,67897,(,0,0,1
3:08.675,67923,N,0,0,0
3:08.711,67936,),0,0,1
3:08.872,67994,(,0,0,2
3:08.964,68027,t,0,0,0
3:09.061,68062,),0,0,2
3:09.706,68294,(,0,0,0
3:09.733,68304,p,0,0,0
3:09.767,68316,),0,0,0
3:09.794,68326,(,0,0,1
3:09.869,68353,N,0,0,0
3:09.903,68365,),0,0,1
3:10.058,68421,(,0,0,2
3:10.150,68454,t,0,0,0
3:10.247,68489,),0,0,2
3:10.961,68746,(,0,0,1
3:11.028,68770,N,0,0,0
3:11.064,68783,),0,0,1
3:11.219,68839,(,0,0,2
3:11.303,68869,t,0,0,0
3:11.394,68902,),0,0,2
3:11.969,69109,(,0,0,0
3:12.003,69121,p,0,0,0
3:12.031,69131,),0,0,0
3:12.061,69142,(,0,0,1
3:12.136,69169,N,0,0,0
3:12.169,69181,),0,0,1
3:12.317,69234,(,0,0,2
3:12.406,69266,t,0,0,0
3:12.494,69298,),0,0,2
3:12.931,69455,(,0,0,0
3:12.947,69461,p,0,0,0
3:13.094,69514,),0,0,0
3:13.175,69543,(,0,0,1
3:13.242,69567,N,0,0,0
3:13.275,69579,),0,0,1
3:13.411,69628,(,0,0,2
3:13.517,69666,t,0,0,0
3:13.608,69699,),0,0,2
3:14.211,69916,(,0,0,0
3:14.239,69926,p,0,0,0
3:14.267,69936,),0,0,0
3:14.289,69944,(,0,0,1
3:14.386,69979,N,0,0,0
3:14.419,69991,),0,0,1
3:14.558,70041,(,0,0,2
3:14.667,70080,t,0,0,0
3:14.775,70119,),0,0,2
3:15.381,70337,(,0,0,0
3:15.408,70347,p,0,0,0
3:15.439,70358,),0,0,0
3:15.489,70376,(,0,0,1
3:15.553,70399,N,0,0,0
3:15.586,70411,),0,0,1
3:15.736,70465,(,0,0,2
3:15.831,70499,t,0,0,0
3:15.925,70533,),0,0,2
3:16.542,70755,(,0,0,0
3:16.572,70766,p,0,0,0
3:16.608,70779,),0,0,0
3:16.642,70791,(,0,0,1
3:16.717,70818,N,0,0,0
3:16.753,70831,),0,0,1
3:16.897,70883,(,0,0,2
3:17.006,70922,t,0,0,0
3:17.100,70956,),0,0,2
3:17.689,71168,(,0,0,0
3:17.719,71179,p,0,0,0
3:17.750,71190,),0,0,0
3:17.783,71202,(,0,0,1
3:17.853,71227,N,0,0,0
3:17.883,71238,),0,0,1
3:18.022,71288,(,0,0,2
3:18.117,71322,t,0,0,0
3:18.208,71355,),0,0,2
3:18.767,71556,(,0,0,0
3:18.797,71567,p,0,0,0
3:18.828,71578,),0,0,0
3:18.869,71593,(,0,0,1
3:18.931,71615,N,0,0,0
3:18.964,71627,),0,0,1
3:19.089,71672,(,0,0,2
3:19.189,71708,t,0,0,0
3:19.283,71742,),0,0,2
3:19.867,71952,(,0,0,0
3:19.894,71962,p,0,0,0
3:19.928,71974,),0,0,0
3:19.961,71986,(,0,0,1
3:20.033,72012,N,0,0,0
3:20.067,72024,),0,0,1
3:20.219,72079,(,0,0,2
3:20.319,72115,t,0,0,0
3:20.411,72148,),0,0,2
3:21.022,72368,(,0,0,0
3:21.053,72379,p,0,0,0
3:21.083,72390,),0,0,0
3:21.122,72404,(,0,0,1
3:21.194,72430,N,0,0,0
3:21.231,72443,),0,0,1
3:21.386,72499,(,0,0,2
3:21.486,72535,t,0,0,0
3:21.583,72570,),0,0,2
3:22.214,72797,(,0,0,0
3:22.244,72808,p,0,0,0
3:22.281,72821,),0,0,0
3:22.328,72838,(,0,0,1
3:22.389,72860,N,0,0,0
3:22.422,72872,),0,0,1
3:22.581,72929,(,0,0,2
3:22.675,72963,t,0,0,0
3:22.772,72998,),0,0,2
3:23.372,73214,(,0,0,0
3:23.403,73225,p,0,0,0
3:23.433,73236,),0,0,0
3:23.472,73250,(,0,0,1
3:23.539,73274,N,0,0,0
3:23.575,73287,),0,0,1
3:23.717,73338,(,0,0,2
3:23.803,73369,t,0,0,0
3:23.889,73400,),0,0,2
3:24.478,73612,(,0,0,0
3:24.508,73623,p,0,0,0
3:24.539,73634,),0,0,0
3:24.561,73642,(,0,0,1
3:24.636,73669,N,0,0,0
3:24.667,73680,),0,0,1
3:24.800,73728,(,0,0,2
3:24.894,73762,t,0,0,0
3:24.981,73793,),0,0,2
3:25.678,74044,(,0,0,1
3:25.750,74070,N,0,0,0
3:25.783,74082,),0,0,1
3:25.922,74132,(,0,0,2
3:26.036,74173,t,0,0,0
3:26.128,74206,),0,0,2
3:26.786,74443,(,0,0,0
3:26.817,74454,p,0,0,0
3:26.853,74467,),0,0,0
3:26.897,74483,(,0,0,1
3:26.964,74507,N,0,0,0
3:26.997,74519,),0,0,1
3:27.144,74572,(,0,0,2
3:27.253,74611,t,0,0,0
3:27.358,74649,),0,0,2
3:28.003,74881,(,0,0,0
3:28.031,74891,p,0,0,0
3:28.064,74903,),0,0,0
3:28.108,74919,(,0,0,1
3:28.172,74942,N,0,0,0
3:28.206,74954,),0,0,1
3:28.353,75007,(,0,0,2
3:28.458,75045,t,0,0,0
3:28.547,75077,),0,0,2
3:29.175,75303,(,0,0,0
3:29.206,75314,p,0,0,0
3:29.239,75326,),0,0,0
3:29.281,75341,(,0,0,1
3:29.344,75364,N,0,0,0
3:29.381,75377,),0,0,1
3:29.522,75428,(,0,0,2
3:29.619,75463,t,0,0,0
3:29.708,75495,),0,0,2
3:30.400,75744,(,0,0,1
3:30.467,75768,N,0,0,0
3:30.500,75780,),0,0,1
3:30.644,75832,(,0,0,2
3:30.736,75865,t,0,0,0
3:30.822,75896,),0,0,2
3:31.431,76115,(,0,0,0
3:31.461,76126,p,0,0,0
3:31.494,76138,),0,0,0
3:31.539,76154,(,0,0,1
3:31.603,76177,N,0,0,0
3:31.636,76189,),0,0,1
3:31.789,76244,(,0,0,2
3:31.889,76280,t,0,0,0
3:31.983,76314,),0,0,2
3:32.611,76540,(,0,0,0
3:32.642,76551,p,0,0,0
3:32.681,76565,),0,0,0
3:32.722,76580,(,0,0,1
3:32.789,76604,N,0,0,0
3:32.822,76616,),0,0,1
3:32.981,76673,(,0,0,2
3:33.072,76706,t,0,0,0
3:33.164,76739,),0,0,2
3:33.886,76999,(,0,0,1
3:33.956,77024,N,0,0,0
3:34.100,77076,),0,0,1
3:34.150,77094,(,0,0,2
3:34.244,77128,t,0,0,0
3:34.333,77160,),0,0,2
3:34.953,77383,(,0,0,0
3:34.983,77394,p,0,0,0
3:35.014,77405,),0,0,0
3:35.031,77411,(,0,0,1
3:35.122,77444,N,0,0,0
3:35.156,77456,),0,0,1
3:35.314,77513,(,0,0,2
3:35.400,77544,t,0,0,0
3:35.483,77574,),0,0,2
3:36.036,77773,(,0,0,0
3:36.067,77784,p,0,0,0
3:36.100,77796,),0,0,0
3:36.144,77812,(,0,0,1
3:36.203,77833,N,0,0,0
3:36.236,77845,),0,0,1
3:36.381,77897,(,0,0,2
3:36.469,77929,t,0,0,0
3:36.556,77960,),0,0,2
3:37.111,78160,(,0,0,0
3:37.139,78170,p,0,0,0
3:37.167,78180,),0,0,0
3:37.208,78195,(,0,0,1
3:37.269,78217,N,0,0,0
3:37.303,78229,),0,0,1
3:37.442,78279,(,0,0,2
3:37.533,78312,t,0,0,0
3:37.633,78348,),0,0,2
3:38.206,78554,(,0,0,0
3:38.239,78566,p,0,0,0
3:38.269,78577,),0,0,0
3:38.297,78587,(,0,0,1
3:38.381,78617,N,0,0,0
3:38.414,78629,),0,0,1
3:38.556,78680,(,0,0,2
3:38.672,78722,t,0,0,0
3:38.767,78756,),0,0,2
3:39.386,78979,(,0,0,0
3:39.414,78989,p,0,0,0
3:39.447,79001,),0,0,0
3:39.483,79014,(,0,0,1
3:39.561,79042,N,0,0,0
3:39.592,79053,),0,0,1
3:39.744,79108,(,0,0,2
3:39.850,79146,t,0,0,0
3:39.944,79180,),0,0,2
3:40.553,79399,(,0,0,0
3:40.583,79410,p,0,0,0
3:40.619,79423,),0,0,0
3:40.656,79436,(,0,0,1
3:40.728,79462,N,0,0,0
3:40.764,79475,),0,0,1
3:40.906,79526,(,0,0,2
3:41.014,79565,t,0,0,0
3:41.100,79596,),0,0,2
3:41.678,79804,(,0,0,0
3:41.708,79815,p,0,0,0
3:41.739,79826,),0,0,0
3:41.775,79839,(,0,0,1
3:41.842,79863,N,0,0,0
3:41.872,79874,),0,0,1
3:42.011,79924,(,0,0,2
3:42.106,79958,t,0,0,0
3:42.189,79988,),0,0,2
3:42.747,80189,(,0,0,0
3:42.775,80199,p,0,0,0
3:42.806,80210,),0,0,0
3:42.847,80225,(,0,0,1
3:42.908,80247,N,0,0,0
3:42.942,80259,),0,0,1
3:43.064,80303,(,0,0,2
3:43.169,80341,t,0,0,0
3:43.256,80372,),0,0,2
3:43.836,80581,(,0,0,0
3:43.869,80593,p,0,0,0
3:43.900,80604,),0,0,0
3:43.942,80619,(,0,0,1
3:44.008,80643,N,0,0,0
3:44.042,80655,),0,0,1
3:44.194,80710,(,0,0,2
3:44.297,80747,t,0,0,0
3:44.397,80783,),0,0,2
3:45.111,81040,(,0,0,1
3:45.178,81064,N,0,0,0
3:45.211,81076,),0,0,1
3:45.344,81124,(,0,0,2
3:45.461,81166,t,0,0,0
3:45.556,81200,),0,0,2
3:46.158,81417,(,0,0,0
3:46.189,81428,p,0,0,0
3:46.222,81440,),0,0,0
3:46.264,81455,(,0,0,1
3:46.328,81478,N,0,0,0
3:46.361,81490,),0,0,1
3:46.497,81539,(,0,0,2
3:46.603,81577,t,0,0,0
3:46.694,81610,),0,0,2
3:47.281,81821,(,0,0,0
3:47.311,81832,p,0,0,0
3:47.344,81844,),0,0,0
3:47.383,81858,(,0,0,1
3:47.450,81882,N,0,0,0
3:47.483,81894,),0,0,1
3:47.619,81943,(,0,0,2
3:47.717,81978,t,0,0,0
3:47.794,82006,),0,0,2
3:47.867,82032,(,0,0,0
3:47.933,82056,p,0,0,0
3:48.000,82080,),0,0,0
3:48.039,82094,(,0,0,1
3:48.147,82133,N,0,0,0
3:48.183,82146,),0,0,1
3:48.233,82164,(,0,0,2
3:48.339,82202,t,0,0,0
3:48.450,82242,),0,0,2
3:49.419,82591,(,0,0,0
3:49.453,82603,p,0,0,0
3:49.489,82616,),0,0,0
3:49.528,82630,(,0,0,1
3:49.592,82653,N,0,0,0
3:49.622,82664,),0,0,1
3:49.767,82716,(,0,0,2
3:49.878,82756,t,0,0,0
3:49.969,82789,),0,0,2
3:50.558,83001,(,0,0,0
3:50.589,83012,p,0,0,0
3:50.622,83024,),0,0,0
3:50.661,83038,(,0,0,1
3:50.733,83064,N,0,0,0
3:50.769,83077,),0,0,1
3:50.925,83133,(,0,0,2
3:51.017,83166,t,0,0,0
3:51.108,83199,),0,0,2
3:51.714,83417,(,0,0,0
3:51.744,83428,p,0,0,0
3:51.775,83439,),0,0,0
3:51.811,83452,(,0,0,1
3:51.886,83479,N,0,0,0
3:51.919,83491,),0,0,1
3:52.069,83545,(,0,0,2
3:52.167,83580,t,0,0,0
3:52.256,83612,),0,0,2
3:52.842,83823,(,0,0,0
3:52.878,83836,p,0,0,0
3:52.906,83846,),0,0,0
3:52.956,83864,(,0,0,1
3:53.019,83887,N,0,0,0
3:53.053,83899,),0,0,1
3:53.189,83948,(,0,0,2
3:53.294,83986,t,0,0,0
3:53.386,84019,),0,0,2
3:53.964,84227,(,0,0,0
3:53.994,84238,p,0,0,0
3:54.022,84248,),0,0,0
3:54.036,84253,(,0,0,1
3:54.122,84284,N,0,0,0
3:54.158,84297,),0,0,1
3:54.292,84345,(,0,0,2
3:54.383,84378,t,0,0,0
3:54.467,84408,),0,0,2
3:55.044,84616,(,0,0,0
3:55.078,84628,p,0,0,0
3:55.103,84637,),0,0,0
3:55.119,84643,(,0,0,1
3:55.208,84675,N,0,0,0
3:55.242,84687,),0,0,1
3:55.353,84727,(,0,0,2
3:55.469,84769,t,0,0,0
3:55.556,84800,),0,0,2
3:56.167,85020,(,0,0,0
3:56.200,85032,p,0,0,0
3:56.231,85043,),0,0,0
3:56.250,85050,(,0,0,1
3:56.333,85080,N,0,0,0
3:56.367,85092,),0,0,1
3:56.506,85142,(,0,0,2
3:56.617,85182,t,0,0,0
3:56.714,85217,),0,0,2
3:57.342,85443,(,0,0,0
3:57.372,85454,p,0,0,0
3:57.403,85465,),0,0,0
3:57.439,85478,(,0,0,1
3:57.517,85506,N,0,0,0
3:57.550,85518,),0,0,1
3:57.700,85572,(,0,0,2
3:57.797,85607,t,0,0,0
3:57.886,85639,),0,0,2
3:58.619,85903,(,0,0,1
3:58.694,85930,N,0,0,0
3:58.728,85942,),0,0,1
3:58.861,85990,(,0,0,2
3:58.975,86031,t,0,0,0
3:59.067,86064,),0,0,2
3:59.667,86280,(,0,0,0
3:59.697,86291,p,0,0,0
3:59.725,86301,),0,0,0
3:59.758,86313,(,0,0,1
3:59.825,86337,N,0,0,0
3:59.858,86349,),0,0,1
3:59.986,86395,(,0,0,2
4:00.089,86432,t,0,0,0
4:00.183,86466,),0,0,2
4:00.753,86671,(,0,0,0
4:00.783,86682,p,0,0,0
4:00.817,86694,),0,0,0
4:00.853,86707,(,0,0,1
4:00.917,86730,N,0,0,0
4:00.947,86741,),0,0,1
4:01.075,86787,(,0,0,2
4:01.175,86823,t,0,0,0
4:01.258,86853,),0,0,2
4:01.836,87061,(,0,0,0
4:01.867,87072,p,0,0,0
4:01.900,87084,),0,0,0
4:01.942,87099,(,0,0,1
4:02.006,87122,N,0,0,0
4:02.039,87134,),0,0,1
4:02.172,87182,(,0,0,2
4:02.289,87224,t,0,0,0
4:02.381,87257,),0,0,2
4:03.031,87491,(,0,0,0
4:03.061,87502,p,0,0,0
4:03.094,87514,),0,0,0
4:03.136,87529,(,0,0,1
4:03.203,87553,N,0,0,0
4:03.236,87565,),0,0,1
4:03.400,87624,(,0,0,2
4:03.492,87657,t,0,0,0
4:03.589,87692,),0,0,2
4:04.206,87914,(,0,0,0
4:04.236,87925,p,0,0,0
4:04.272,87938,),0,0,0
4:04.308,87951,(,0,0,1
4:04.375,87975,N,0,0,0
4:04.408,87987,),0,0,1
4:04.558,88041,(,0,0,2
4:04.644,88072,t,0,0,0
4:04.739,88106,),0,0,2
4:04.742,88107,(,0,0,0
4:04.822,88136,p,0,0,0
4:04.869,88153,),0,0,0
4:04.983,88194,(,0,0,1
4:05.100,88236,N,0,0,0
4:05.136,88249,),0,0,1
4:05.208,88275,(,0,0,2
4:05.306,88310,t,0,0,0
4:05.414,88349,),0,0,2
4:06.369,88693,(,0,0,0
4:06.400,88704,p,0,0,0
4:06.431,88715,),0,0,0
4:06.464,88727,(,0,0,1
4:06.525,88749,N,0,0,0
4:06.556,88760,),0,0,1
4:06.697,88811,(,0,0,2
4:06.792,88845,t,0,0,0
4:06.875,88875,),0,0,2
4:07.414,89069,(,0,0,0
4:07.444,89080,p,0,0,0
4:07.478,89092,),0,0,0
4:07.528,89110,(,0,0,1
4:07.586,89131,N,0,0,0
4:07.617,89142,),0,0,1
4:07.744,89188,(,0,0,2
4:07.856,89228,t,0,0,0
4:07.942,89259,),0,0,2
4:08.531,89471,(,0,0,0
4:08.561,89482,p,0,0,0
4:08.594,89494,),0,0,0
4:08.650,89514,(,0,0,1
4:08.714,89537,N,0,0,0
4:08.747,89549,),0,0,1
4:08.897,89603,(,0,0,2
4:08.992,89637,t,0,0,0
4:09.081,89669,),0,0,2
4:09.639,89870,(,0,0,0
4:09.669,89881,p,0,0,0
4:09.706,89894,),0,0,0
4:09.750,89910,(,0,0,1
4:09.819,89935,N,0,0,0
4:09.850,89946,),0,0,1
4:09.978,89992,(,0,0,2
4:10.094,90034,t,0,0,0
4:10.178,90064,),0,0,2
4:10.753,90271,(,0,0,0
4:10.781,90281,p,0,0,0
4:10.811,90292,),0,0,0
4:10.842,90303,(,0,0,1
4:10.919,90331,N,0,0,0
4:10.956,90344,),0,0,1
4:11.106,90398,(,0,0,2
4:11.194,90430,t,0,0,0
4:11.281,90461,),0,0,2
4:11.850,90666,(,0,0,0
4:11.878,90676,p,0,0,0
4:11.911,90688,),0,0,0
4:11.956,90704,(,0,0,1
4:12.019,90727,N,0,0,0
4:12.050,90738,),0,0,1
4:12.192,90789,(,0,0,2
4:12.289,90824,t,0,0,0
4:12.378,90856,),0,0,2
4:12.931,91055,(,0,0,0
4:12.961,91066,p,0,0,0
4:12.992,91077,),0,0,0
4:13.025,91089,(,0,0,1
4:13.097,91115,N,0,0,0
4:13.131,91127,),0,0,1
4:13.256,91172,(,0,0,2
4:13.361,91210,t,0,0,0
4:13.456,91244,),0,0,2
4:14.036,91453,(,0,0,0
4:14.067,91464,p,0,0,0
4:14.097,91475,),0,0,0
4:14.142,91491,(,0,0,1
4:14.211,91516,N,0,0,0
4:14.242,91527,),0,0,1
4:14.403,91585,(,0,0,2
4:14.492,91617,t,0,0,0
4:14.581,91649,),0,0,2
4:15.211,91876,(,0,0,0
4:15.242,91887,p,0,0,0
4:15.272,91898,),0,0,0
4:15.317,91914,(,0,0,1
4:15.389,91940,N,0,0,0
4:15.425,91953,),0,0,1
4:15.561,92002,(,0,0,2
4:15.675,92043,t,0,0,0
4:15.764,92075,),0,0,2
4:16.392,92301,(,0,0,0
4:16.422,92312,p,0,0,0
4:16.453,92323,),0,0,0
4:16.500,92340,(,0,0,1
4:16.567,92364,N,0,0,0
4:16.600,92376,),0,0,1
4:16.750,92430,(,0,0,2
4:16.850,92466,t,0,0,0
4:16.939,92498,),0,0,2
4:17.653,92755,(,0,0,1
4:17.714,92777,N,0,0,0
4:17.747,92789,),0,0,1
4:17.883,92838,(,0,0,2
4:17.975,92871,t,0,0,0
4:18.067,92904,),0,0,2
4:18.636,93109,(,0,0,0
4:18.667,93120,p,0,0,0
4:18.697,93131,),0,0,0
4:18.742,93147,(,0,0,1
4:18.806,93170,N,0,0,0
4:18.836,93181,),0,0,1
4:18.975,93231,(,0,0,2
4:19.067,93264,t,0,0,0
4:19.147,93293,),0,0,2
4:19.706,93494,(,0,0,0
4:19.733,93504,p,0,0,0
4:19.767,93516,),0,0,0
4:19.811,93532,(,0,0,1
4:19.872,93554,N,0,0,0
4:19.906,93566,),0,0,1
4:20.044,93616,(,0,0,2
4:20.144,93652,t,0,0,0
4:20.231,93683,),0,0,2
4:20.847,93905,(,0,0,0
4:20.878,93916,p,0,0,0
4:20.914,93929,),0,0,0
4:20.958,93945,(,0,0,1
4:21.025,93969,N,0,0,0
4:21.058,93981,),0,0,1
4:21.217,94038,(,0,0,2
4:21.317,94074,t,0,0,0
4:21.417,94110,),0,0,2
4:22.147,94373,(,0,0,1
4:22.217,94398,N,0,0,0
4:22.250,94410,),0,0,1
4:22.394,94462,(,0,0,2
4:22.497,94499,t,0,0,0
4:22.586,94531,),0,0,2
4:23.189,94748,(,0,0,0
4:23.217,94758,p,0,0,0
4:23.244,94768,),0,0,0
4:23.283,94782,(,0,0,1
4:23.353,94807,N,0,0,0
4:23.386,94819,),0,0,1
4:23.531,94871,(,0,0,2
4:23.619,94903,t,0,0,0
4:23.708,94935,),0,0,2
4:24.394,95182,(,0,0,1
4:24.456,95204,N,0,0,0
4:24.489,95216,),0,0,1
4:24.622,95264,(,0,0,2
4:24.719,95299,t,0,0,0
4:24.811,95332,),0,0,2
4:25.372,95534,(,0,0,0
4:25.403,95545,p,0,0,0
4:25.433,95556,),0,0,0
4:25.458,95565,(,0,0,1
4:25.536,95593,N,0,0,0
4:25.569,95605,),0,0,1
4:25.711,95656,(,0,0,2
4:25.808,95691,t,0,0,0
4:25.903,95725,),0,0,2
4:25.947,95741,(,0,0,0
4:25.953,95743,p,0,0,0
4:26.114,95801,),0,0,0
4:26.150,95814,(,0,0,1
4:26.214,95837,N,0,0,0
4:26.297,95867,),0,0,1
4:26.367,95892,(,0,0,2
4:26.469,95929,t,0,0,0
4:26.581,95969,),0,0,2
4:27.603,96337,(,0,0,0
4:27.633,96348,p,0,0,0
4:27.669,96361,),0,0,0
4:27.711,96376,(,0,0,1
4:27.775,96399,N,0,0,0
4:27.808,96411,),0,0,1
4:27.944,96460,(,0,0,2
4:28.064,96503,t,0,0,0
4:28.158,96537,),0,0,2
4:28.714,96737,(,0,0,0
4:28.742,96747,p,0,0,0
4:28.772,96758,),0,0,0
4:28.828,96778,(,0,0,1
4:28.889,96800,N,0,0,0
4:28.922,96812,),0,0,1
4:29.069,96865,(,0,0,2
4:29.158,96897,t,0,0,0
4:29.242,96927,),0,0,2
4:29.772,97118,(,0,0,0
4:29.800,97128,p,0,0,0
4:29.831,97139,),0,0,0
4:29.872,97154,(,0,0,1
4:29.942,97179,N,0,0,0
4:29.975,97191,),0,0,1
4:30.111,97240,(,0,0,2
4:30.206,97274,t,0,0,0
4:30.300,97308,),0,0,2
4:30.822,97496,(,0,0,0
4:30.853,97507,p,0,0,0
4:30.883,97518,),0,0,0
4:30.928,97534,(,0,0,1
4:30.992,97557,N,0,0,0
4:31.022,97568,),0,0,1
4:31.161,97618,(,0,0,2
4:31.247,97649,t,0,0,0
4:31.333,97680,),0,0,2
4:31.894,97882,(,0,0,0
4:31.925,97893,p,0,0,0
4:31.958,97905,),0,0,0
4:31.978,97912,(,0,0,1
4:32.069,97945,N,0,0,0
4:32.106,97958,),0,0,1
4:32.247,98009,(,0,0,2
4:32.342,98043,t,0,0,0
4:32.431,98075,),0,0,2
4:33.028,98290,(,0,0,0
4:33.058,98301,p,0,0,0
4:33.092,98313,),0,0,0
4:33.119,98323,(,0,0,1
4:33.203,98353,N,0,0,0
4:33.236,98365,),0,0,1
4:33.386,98419,(,0,0,2
4:33.481,98453,t,0,0,0
4:33.575,98487,),0,0,2
4:34.272,98738,(,0,0,1
4:34.333,98760,N,0,0,0
4:34.367,98772,),0,0,1
4:34.497,98819,(,0,0,2
4:34.606,98858,t,0,0,0
4:34.694,98890,),0,0,2
4:36.539,99554,(,0,0,0
4:36.569,99565,p,0,0,0
4:36.603,99577,),0,0,0
4:36.706,99614,(,0,0,1
4:36.833,99660,N,0,0,0
4:36.908,99687,),0,0,1
4:37.494,99898,(,0,0,0
4:37.522,99908,p,0,0,0
4:37.553,99919,),0,0,0
4:37.617,99942,(,0,0,1
4:37.658,99957,N,0,0,0
4:37.694,99970,),0,0,1
4:37.836,100021,(,0,0,2
4:37.922,100052,t,0,0,0
4:38.011,100084,),0,0,2
4:38.747,100349,(,0,0,1
4:38.794,100366,N,0,0,0
4:38.828,100378,),0,0,1
4:38.981,100433,(,0,0,2
4:39.075,100467,t,0,0,0
4:39.167,100500,),0,0,2
4:39.950,100782,(,0,0,0
4:39.986,100795,p,0,0,0
4:40.022,100808,),0,0,0
4:40.156,100856,(,0,0,1
4:40.278,100900,N,0,0,0
4:40.358,100929,),0,0,1
4:41.125,101205,(,0,0,0
4:41.158,101217,p,0,0,0
4:41.192,101229,),0,0,0
4:41.317,101274,(,0,0,1
4:41.428,101314,N,0,0,0
4:41.511,101344,),0,0,1
4:42.150,101574,),0,0,2
4:42.175,101583,t,0,0,0
4:42.200,101592,(,0,0,2
4:42.217,101598,(,0,0,0
4:42.247,101609,p,0,0,0
4:42.283,101622,),0,0,0
4:42.378,101656,(,0,0,1
4:42.514,101705,N,0,0,0
4:42.594,101734,),0,0,1
4:43.186,101947,(,0,0,2
4:43.222,101960,t,0,0,0
4:43.253,101971,),0,0,2
4:43.325,101997,(,0,0,0
4:43.356,102008,p,0,0,0
4:43.392,102021,),0,0,0
4:43.519,102067,(,0,0,1
4:43.625,102105,N,0,0,0
4:43.700,102132,),0,0,1
4:44.469,102409,(,0,0,0
4:44.500,102420,p,0,0,0
4:44.536,102433,),0,0,0
4:44.658,102477,(,0,0,1
4:44.786,102523,N,0,0,0
4:44.875,102555,),0,0,1
4:45.531,102791,(,0,0,2
4:45.567,102804,t,0,0,0
4:45.600,102816,),0,0,2
4:45.681,102845,(,0,0,0
4:45.711,102856,p,0,0,0
4:45.747,102869,),0,0,0
4:45.853,102907,(,0,0,1
4:45.997,102959,N,0,0,0
4:46.081,102989,),0,0,1
4:46.856,103268,(,0,0,0
4:46.889,103280,p,0,0,0
4:46.922,103292,),0,0,0
4:47.028,103330,(,0,0,1
4:47.167,103380,N,0,0,0
4:47.242,103407,),0,0,1
4:47.833,103620,(,0,0,2
4:47.869,103633,t,0,0,0
4:47.900,103644,),0,0,2
4:47.967,103668,(,0,0,0
4:47.997,103679,p,0,0,0
4:48.031,103691,),0,0,0
4:48.131,103727,(,0,0,1
4:48.264,103775,N,0,0,0
4:48.347,103805,),0,0,1
4:48.906,104006,t,0,0,2
4:48.975,104031,),0,0,2
4:49.083,104070,(,0,0,0
4:49.117,104082,p,0,0,0
4:49.150,104094,),0,0,0
4:49.261,104134,(,0,0,1
4:49.389,104180,N,0,0,0
4:49.467,104208,),0,0,1
4:50.072,104426,(,0,0,2
4:50.108,104439,t,0,0,0
4:50.142,104451,),0,0,2
4:50.217,104478,(,0,0,0
4:50.250,104490,p,0,0,0
4:50.283,104502,),0,0,0
4:50.394,104542,(,0,0,1
4:50.539,104594,N,0,0,0
4:50.628,104626,),0,0,1
4:50.728,104662,(,0,0,2
4:50.764,104675,t,0,0,4
4:51.272,104858,t,0,0,4
4:51.308,104871,),0,0,2
4:51.381,104897,(,0,0,0
4:51.414,104909,p,0,0,0
4:51.450,104922,),0,0,0
4:51.569,104965,(,0,0,1
4:51.706,105014,N,0,0,0
4:51.878,105076,),0,0,1
4:52.411,105268,(,0,0,2
4:52.444,105280,t,0,0,0
4:52.475,105291,),0,0,2
4:52.556,105320,(,0,0,0
4:52.589,105332,p,0,0,0
4:52.622,105344,),0,0,0
4:52.761,105394,(,0,0,1
4:52.875,105435,N,0,0,0
4:52.961,105466,),0,0,1
4:53.600,105696,),0,0,2
4:53.625,105705,t,0,0,0
4:53.650,105714,(,0,0,2
4:53.675,105723,(,0,0,0
4:53.706,105734,p,0,0,0
4:53.742,105747,),0,0,0
4:53.858,105789,(,0,0,1
4:53.975,105831,N,0,0,0
4:54.056,105860,),0,0,1
4:54.642,106071,(,0,0,2
4:54.678,106084,t,0,0,0
4:54.711,106096,),0,0,2
4:54.781,106121,(,0,0,0
4:54.811,106132,p,0,0,0
4:54.847,106145,),0,0,0
4:54.939,106178,(,0,0,1
4:55.081,106229,N,0,0,0
4:55.156,106256,),0,0,1
4:55.311,106312,(,0,0,2
4:55.406,106346,t,0,0,4
4:55.772,106478,t,0,0,4
4:55.808,106491,),0,0,2
4:55.875,106515,(,0,0,0
4:55.908,106527,p,0,0,0
4:55.942,106539,),0,0,0
4:56.058,106581,(,0,0,1
4:56.192,106629,N,0,0,0
4:56.325,106677,),0,0,1
4:56.667,106800,(,0,0,2
4:56.781,106841,t,0,0,4
4:56.939,106898,t,0,0,4
4:56.967,106908,),0,0,2
4:57.042,106935,(,0,0,0
4:57.075,106947,p,0,0,0
4:57.108,106959,),0,0,0
4:57.217,106998,(,0,0,1
4:57.369,107053,N,0,0,0
4:57.450,107082,),0,0,1
4:57.647,107153,(,0,0,2
4:57.692,107169,t,0,0,4
4:58.047,107297,t,0,0,4
4:58.133,107328,),0,0,2
4:58.244,107368,(,0,0,0
4:58.278,107380,p,0,0,0
4:58.311,107392,),0,0,0
4:58.408,107427,(,0,0,1
4:58.564,107483,N,0,0,0
4:58.658,107517,),0,0,1
4:59.269,107737,(,0,0,2
4:59.303,107749,t,0,0,0
4:59.339,107762,),0,0,2
4:59.406,107786,(,0,0,0
4:59.439,107798,p,0,0,0
4:59.475,107811,),0,0,0
4:59.581,107849,(,0,0,1
4:59.714,107897,N,0,0,0
4:59.797,107927,),0,0,1
5:00.436,108157,),0,0,2
5:00.461,108166,t,0,0,0
5:00.486,108175,(,0,0,2
5:00.503,108181,(,0,0,0
5:00.533,108192,p,0,0,0
5:00.567,108204,),0,0,0
5:00.672,108242,(,0,0,1
5:00.806,108290,N,0,0,0
5:00.892,108321,),0,0,1
5:01.519,108547,),0,0,2
5:01.550,108558,t,0,0,0
5:01.578,108568,(,0,0,2
5:01.594,108574,(,0,0,0
5:01.628,108586,p,0,0,0
5:01.661,108598,),0,0,0
5:01.781,108641,(,0,0,1
5:01.914,108689,N,0,0,0
5:02.003,108721,),0,0,1
5:02.158,108777,(,0,0,2
5:02.278,108820,t,0,0,4
5:02.628,108946,t,0,0,4
5:02.664,108959,),0,0,2
5:02.736,108985,(,0,0,0
5:02.772,108998,p,0,0,0
5:02.806,109010,),0,0,0
5:02.953,109063,(,0,0,1
5:03.069,109105,N,0,0,0
5:03.150,109134,),0,0,1
5:03.908,109407,(,0,0,0
5:03.942,109419,p,0,0,0
5:03.975,109431,),0,0,0
5:04.083,109470,(,0,0,1
5:04.236,109525,N,0,0,0
5:04.322,109556,),0,0,1
5:04.964,109787,),0,0,2
5:04.989,109796,t,0,0,0
5:05.011,109804,(,0,0,2
5:05.036,109813,(,0,0,0
5:05.067,109824,p,0,0,0
5:05.100,109836,),0,0,0
5:05.194,109870,(,0,0,1
5:05.344,109924,N,0,0,0
5:05.428,109954,),0,0,1
5:06.008,110163,),0,0,2
5:06.039,110174,t,0,0,0
5:06.067,110184,(,0,0,2
5:06.092,110193,(,0,0,0
5:06.122,110204,p,0,0,0
5:06.153,110215,),0,0,0
5:06.278,110260,(,0,0,1
5:06.386,110299,N,0,0,0
5:06.467,110328,),0,0,1
5:07.100,110556,t,0,0,2
5:07.186,110587,),0,0,2
5:07.325,110637,(,0,0,1
5:07.469,110689,N,0,0,0
5:07.553,110719,),0,0,1
5:08.306,110990,(,0,0,0
5:08.336,111001,p,0,0,0
5:08.369,111013,),0,0,0
5:08.486,111055,(,0,0,1
5:08.628,111106,N,0,0,0
5:08.717,111138,),0,0,1
5:09.472,111410,(,0,0,0
5:09.506,111422,p,0,0,0
5:09.539,111434,),0,0,0
5:09.658,111477,(,0,0,1
5:09.783,111522,N,0,0,0
5:09.867,111552,),0,0,1
5:10.042,111615,(,0,0,2
5:10.119,111643,t,0,0,4
5:10.497,111779,t,0,0,4
5:10.533,111792,),0,0,2
5:10.603,111817,(,0,0,0
5:10.636,111829,p,0,0,0
5:10.669,111841,),0,0,0
5:10.792,111885,(,0,0,1
5:10.917,111930,N,0,0,0
5:11.003,111961,),0,0,1
5:11.592,112173,(,0,0,2
5:11.631,112187,t,0,0,0
5:11.664,112199,),0,0,2
5:11.728,112222,(,0,0,0
5:11.761,112234,p,0,0,0
5:11.792,112245,),0,0,0
5:11.878,112276,(,0,0,1
5:12.031,112331,N,0,0,0
5:12.111,112360,),0,0,1
5:12.708,112575,(,0,0,2
5:12.742,112587,t,0,0,0
5:12.781,112601,),0,0,2
5:12.842,112623,(,0,0,0
5:12.875,112635,p,0,0,0
5:12.908,112647,),0,0,0
5:13.028,112690,(,0,0,1
5:13.147,112733,N,0,0,0
5:13.225,112761,),0,0,1
5:13.986,113035,(,0,0,0
5:14.017,113046,p,0,0,0
5:14.053,113059,),0,0,0
5:14.164,113099,(,0,0,1
5:14.306,113150,N,0,0,0
5:14.397,113183,),0,0,1
5:15.036,113413,(,0,0,2
5:15.069,113425,t,0,0,0
5:15.106,113438,),0,0,2
5:15.175,113463,(,0,0,0
5:15.208,113475,p,0,0,0
5:15.242,113487,),0,0,0
5:15.361,113530,(,0,0,1
5:15.492,113577,N,0,0,0
5:15.575,113607,),0,0,1
5:15.942,113739,),0,0,2
5:16.092,113793,t,0,0,0
5:16.242,113847,(,0,0,2
5:16.386,113899,(,0,0,0
5:16.419,113911,p,0,0,0
5:16.453,113923,),0,0,0
5:16.547,113957,(,0,0,1
5:16.711,114016,N,0,0,0
5:16.797,114047,),0,0,1
5:17.556,114320,(,0,0,0
5:17.586,114331,p,0,0,0
5:17.619,114343,),0,0,0
5:17.744,114388,(,0,0,1
5:17.858,114429,N,0,0,0
5:17.936,114457,),0,0,1
5:18.133,114528,(,0,0,2
5:18.222,114560,t,0,0,4
5:18.569,114685,t,0,0,4
5:18.603,114697,),0,0,2
5:18.667,114720,(,0,0,0
5:18.697,114731,p,0,0,0
5:18.733,114744,),0,0,0
5:18.844,114784,(,0,0,1
5:18.967,114828,N,0,0,0
5:19.047,114857,),0,0,1
5:19.650,115074,(,0,0,2
5:19.683,115086,t,0,0,0
5:19.719,115099,),0,0,2
5:19.786,115123,(,0,0,0
5:19.817,115134,p,0,0,0
5:19.850,115146,),0,0,0
5:19.964,115187,(,0,0,1
5:20.106,115238,N,0,0,0
5:20.200,115272,),0,0,1
5:20.964,115547,(,0,0,0
5:20.997,115559,p,0,0,0
5:21.031,115571,),0,0,0
5:21.144,115612,(,0,0,1
5:21.289,115664,N,0,0,0
5:21.383,115698,),0,0,1
5:22.017,115926,(,0,0,2
5:22.050,115938,t,0,0,0
5:22.089,115952,),0,0,2
5:22.167,115980,(,0,0,0
5:22.197,115991,p,0,0,0
5:22.233,116004,),0,0,0
5:22.361,116050,(,0,0,1
5:22.486,116095,N,0,0,0
5:22.569,116125,),0,0,1
5:23.172,116342,(,0,0,2
5:23.208,116355,t,0,0,0
5:23.250,116370,),0,0,2
5:23.314,116393,(,0,0,0
5:23.347,116405,p,0,0,0
5:23.378,116416,),0,0,0
5:23.481,116453,(,0,0,1
5:23.619,116503,N,0,0,0
5:23.700,116532,),0,0,1
5:24.347,116765,),0,0,2
5:24.369,116773,t,0,0,0
5:24.389,116780,(,0,0,2
5:24.414,116789,(,0,0,0
5:24.444,116800,p,0,0,0
5:24.478,116812,),0,0,0
5:24.581,116849,(,0,0,1
5:24.708,116895,N,0,0,0
5:24.786,116923,),0,0,1
5:25.336,117121,t,0,0,2
5:25.417,117150,),0,0,2
5:25.531,117191,(,0,0,0
5:25.564,117203,p,0,0,0
5:25.597,117215,),0,0,0
5:25.711,117256,(,0,0,1
5:25.853,117307,N,0,0,0
5:25.931,117335,),0,0,1
5:26.197,117431,(,0,0,2
5:26.233,117444,t,0,0,4
5:26.608,117579,t,0,0,4
5:26.653,117595,),0,0,2
5:26.725,117621,(,0,0,0
5:26.758,117633,p,0,0,0
5:26.792,117645,),0,0,0
5:26.908,117687,(,0,0,1
5:27.050,117738,N,0,0,0
5:27.131,117767,),0,0,1
5:27.289,117824,(,0,0,2
5:27.367,117852,t,0,0,4
5:27.808,118011,t,0,0,4
5:27.844,118024,),0,0,2
5:27.917,118050,(,0,0,0
5:27.947,118061,p,0,0,0
5:27.981,118073,),0,0,0
5:28.069,118105,(,0,0,1
5:28.236,118165,N,0,0,0
5:28.319,118195,),0,0,1
5:29.092,118473,(,0,0,0
5:29.125,118485,p,0,0,0
5:29.161,118498,),0,0,0
5:29.258,118533,(,0,0,1
5:29.403,118585,N,0,0,0
5:29.486,118615,),0,0,1
5:29.708,118695,(,0,0,2
5:29.744,118708,t,0,0,4
5:30.128,118846,t,0,0,4
5:30.161,118858,),0,0,2
5:30.228,118882,(,0,0,0
5:30.261,118894,p,0,0,0
5:30.294,118906,),0,0,0
5:30.439,118958,(,0,0,1
5:30.536,118993,N,0,0,0
5:30.608,119019,),0,0,1
5:31.367,119292,(,0,0,0
5:31.400,119304,p,0,0,0
5:31.433,119316,),0,0,0
5:31.539,119354,(,0,0,1
5:31.675,119403,N,0,0,0
5:31.756,119432,),0,0,1
5:31.931,119495,(,0,0,2
5:32.017,119526,t,0,0,4
5:32.433,119676,t,0,0,4
5:32.478,119692,),0,0,2
5:32.544,119716,(,0,0,0
5:32.578,119728,p,0,0,0
5:32.611,119740,),0,0,0
5:32.719,119779,(,0,0,1
5:32.872,119834,N,0,0,0
5:32.953,119863,),0,0,1
5:33.125,119925,(,0,0,2
5:33.269,119977,t,0,0,1
5:33.503,120061,),0,0,2
5:33.747,120149,(,0,0,0
5:33.781,120161,p,0,0,0
5:33.817,120174,),0,0,0
5:33.925,120213,(,0,0,1
5:34.072,120266,N,0,0,0
5:34.161,120298,),0,0,1
5:34.489,120416,(,0,0,2
5:34.553,120439,t,0,0,1
5:34.764,120515,),0,0,2
5:36.092,120993,(,0,0,0
5:36.122,121004,p,0,0,0
5:36.158,121017,),0,0,0
5:36.256,121052,(,0,0,1
5:36.406,121106,N,0,0,0
5:36.442,121119,),0,0,1
5:36.447,121121,(,0,0,2
5:36.528,121150,t,0,0,4
5:37.106,121358,t,0,0,4
5:37.133,121368,),0,0,2
6:27.231,139403,(,0,0,1
6:27.272,139418,N,0,0,0
6:27.306,139430,),0,0,1
6:27.456,139484,(,0,0,2
6:27.556,139520,t,0,0,0
6:27.647,139553,),0,0,2
6:28.431,139835,(,0,0,1
6:28.475,139851,N,0,0,0
6:28.508,139863,),0,0,1
6:28.650,139914,(,0,0,2
6:28.750,139950,t,0,0,0
6:28.839,139982,),0,0,2
6:29.350,140166,(,0,0,0
6:29.422,140192,p,0,0,0
6:29.514,140225,),0,0,0
6:29.608,140259,(,0,0,1
6:29.653,140275,N,0,0,0
6:29.686,140287,),0,0,1
6:29.825,140337,(,0,0,2
6:29.922,140372,t,0,0,0
6:30.008,140403,),0,0,2
6:30.642,140631,(,0,0,0
6:30.669,140641,p,0,0,0
6:30.703,140653,),0,0,0
6:30.764,140675,(,0,0,1
6:30.803,140689,N,0,0,0
6:30.836,140701,),0,0,1
6:30.969,140749,(,0,0,2
6:31.067,140784,t,0,0,0
6:31.150,140814,),0,0,2
6:31.775,141039,(,0,0,0
6:31.806,141050,p,0,0,0
6:31.839,141062,),0,0,0
6:31.894,141082,(,0,0,1
6:31.933,141096,N,0,0,0
6:31.967,141108,),0,0,1
6:32.072,141146,(,0,0,2
6:32.206,141194,t,0,0,0
6:32.294,141226,),0,0,2
6:32.933,141456,(,0,0,0
6:32.964,141467,p,0,0,0
6:32.997,141479,),0,0,0
6:33.061,141502,(,0,0,1
6:33.103,141517,N,0,0,0
6:33.139,141530,),0,0,1
6:33.258,141573,(,0,0,2
6:33.394,141622,t,0,0,0
6:33.478,141652,),0,0,2
6:34.114,141881,(,0,0,0
6:34.144,141892,p,0,0,0
6:34.183,141906,),0,0,0
6:34.244,141928,(,0,0,1
6:34.286,141943,N,0,0,0
6:34.319,141955,),0,0,1
6:34.464,142007,(,0,0,2
6:34.569,142045,t,0,0,0
6:34.653,142075,),0,0,2
6:35.278,142300,(,0,0,0
6:35.306,142310,p,0,0,0
6:35.342,142323,),0,0,0
6:35.403,142345,(,0,0,1
6:35.444,142360,N,0,0,0
6:35.478,142372,),0,0,1
6:35.625,142425,(,0,0,2
6:35.717,142458,t,0,0,0
6:35.800,142488,),0,0,2
6:36.383,142698,(,0,0,0
6:36.414,142709,p,0,0,0
6:36.447,142721,),0,0,0
6:36.506,142742,(,0,0,1
6:36.544,142756,N,0,0,0
6:36.575,142767,),0,0,1
6:36.708,142815,(,0,0,2
6:36.808,142851,t,0,0,0
6:36.897,142883,),0,0,2
6:37.467,143088,(,0,0,0
6:37.500,143100,p,0,0,0
6:37.528,143110,),0,0,0
6:37.592,143133,(,0,0,1
6:37.633,143148,N,0,0,0
6:37.664,143159,),0,0,1
6:37.797,143207,(,0,0,2
6:37.897,143243,t,0,0,0
6:37.983,143274,),0,0,2
6:38.586,143491,(,0,0,0
6:38.619,143503,p,0,0,0
6:38.656,143516,),0,0,0
6:38.722,143540,(,0,0,1
6:38.767,143556,N,0,0,0
6:38.800,143568,),0,0,1
6:38.953,143623,(,0,0,2
6:39.056,143660,t,0,0,0
6:39.142,143691,),0,0,2
6:39.786,143923,(,0,0,0
6:39.817,143934,p,0,0,0
6:39.847,143945,),0,0,0
6:39.919,143971,(,0,0,1
6:39.961,143986,N,0,0,0
6:39.994,143998,),0,0,1
6:40.119,144043,(,0,0,2
6:40.236,144085,t,0,0,0
6:40.331,144119,),0,0,2
6:40.942,144339,(,0,0,0
6:40.972,144350,p,0,0,0
6:41.008,144363,),0,0,0
6:41.069,144385,(,0,0,1
6:41.111,144400,N,0,0,0
6:41.144,144412,),0,0,1
6:41.292,144465,(,0,0,2
6:41.375,144495,t,0,0,0
6:41.458,144525,),0,0,2
6:42.050,144738,(,0,0,0
6:42.083,144750,p,0,0,0
6:42.117,144762,),0,0,0
6:42.172,144782,(,0,0,1
6:42.211,144796,N,0,0,0
6:42.244,144808,),0,0,1
6:42.369,144853,(,0,0,2
6:42.469,144889,t,0,0,0
6:42.561,144922,),0,0,2
6:42.744,144988,(,0,0,0
6:42.783,145002,p,0,0,0
6:42.844,145024,),0,0,0
6:42.922,145052,(,0,0,1
6:42.964,145067,N,0,0,0
6:42.997,145079,),0,0,1
6:43.114,145121,(,0,0,2
6:43.214,145157,t,0,0,0
6:43.292,145185,),0,0,2
6:43.958,145425,(,0,0,0
6:43.989,145436,p,0,0,0
6:44.025,145449,),0,0,0
6:44.089,145472,(,0,0,1
6:44.133,145488,N,0,0,0
6:44.167,145500,),0,0,1
6:44.314,145553,(,0,0,2
6:44.411,145588,t,0,0,0
6:44.506,145622,),0,0,2
6:45.192,145869,(,0,0,0
6:45.222,145880,p,0,0,0
6:45.256,145892,),0,0,0
6:45.328,145918,(,0,0,1
6:45.378,145936,N,0,0,0
6:45.414,145949,),0,0,1
6:45.558,146001,(,0,0,2
6:45.667,146040,t,0,0,0
6:45.761,146074,),0,0,2
6:46.436,146317,(,0,0,0
6:46.467,146328,p,0,0,0
6:46.503,146341,),0,0,0
6:46.569,146365,(,0,0,1
6:46.614,146381,N,0,0,0
6:46.644,146392,),0,0,1
6:46.792,146445,(,0,0,2
6:46.889,146480,t,0,0,0
6:46.975,146511,),0,0,2
6:47.625,146745,(,0,0,0
6:47.656,146756,p,0,0,0
6:47.686,146767,),0,0,0
6:47.747,146789,(,0,0,1
6:47.789,146804,N,0,0,0
6:47.819,146815,),0,0,1
6:47.942,146859,(,0,0,2
6:48.056,146900,t,0,0,0
6:48.139,146930,),0,0,2
6:48.817,147174,(,0,0,0
6:48.847,147185,p,0,0,0
6:48.878,147196,),0,0,0
6:48.939,147218,(,0,0,1
6:48.983,147234,N,0,0,0
6:49.017,147246,),0,0,1
6:49.147,147293,(,0,0,2
6:49.247,147329,t,0,0,0
6:49.331,147359,),0,0,2
6:49.997,147599,(,0,0,0
6:50.025,147609,p,0,0,0
6:50.069,147625,),0,0,0
6:50.133,147648,(,0,0,1
6:50.175,147663,N,0,0,0
6:50.208,147675,),0,0,1
6:50.361,147730,(,0,0,2
6:50.458,147765,t,0,0,0
6:50.539,147794,),0,0,2
6:51.200,148032,(,0,0,0
6:51.233,148044,p,0,0,0
6:51.269,148057,),0,0,0
6:51.333,148080,(,0,0,1
6:51.378,148096,N,0,0,0
6:51.414,148109,),0,0,1
6:51.567,148164,(,0,0,2
6:51.658,148197,t,0,0,0
6:51.750,148230,),0,0,2
6:54.647,149273,(,0,0,0
6:54.681,149285,p,0,0,0
6:54.714,149297,),0,0,0
6:54.775,149319,(,0,0,1
6:54.817,149334,N,0,0,0
6:54.850,149346,),0,0,1
6:54.969,149389,(,0,0,2
6:55.072,149426,t,0,0,0
6:55.161,149458,),0,0,2
6:55.664,149639,(,0,0,0
6:55.700,149652,p,0,0,0
6:55.728,149662,),0,0,0
6:55.797,149687,(,0,0,1
6:55.842,149703,N,0,0,0
6:55.875,149715,),0,0,1
6:56.006,149762,(,0,0,2
6:56.108,149799,t,0,0,5
6:56.219,149839,t,0,0,5
6:56.275,149859,),0,0,2
6:56.756,150032,(,0,0,0
6:56.786,150043,p,0,0,0
6:56.817,150054,),0,0,0
6:56.850,150066,(,0,0,1
6:56.894,150082,N,0,0,0
6:56.928,150094,),0,0,1
6:57.072,150146,(,0,0,2
6:57.178,150184,t,0,0,0
6:57.272,150218,),0,0,2
6:57.811,150412,(,0,0,0
6:57.844,150424,p,0,0,0
6:57.878,150436,),0,0,0
6:57.956,150464,(,0,0,1
6:58.003,150481,N,0,0,0
6:58.036,150493,),0,0,1
6:58.192,150549,(,0,0,2
6:58.292,150585,t,0,0,0
6:58.381,150617,),0,0,2
6:59.083,150870,(,0,0,1
6:59.128,150886,N,0,0,0
6:59.164,150899,),0,0,1
6:59.297,150947,(,0,0,2
6:59.400,150984,t,0,0,0
6:59.486,151015,),0,0,2
7:14.853,156547,(,0,0,0
7:14.883,156558,p,0,0,0
7:14.917,156570,),0,0,0
7:14.989,156596,(,0,0,1
7:15.033,156612,N,0,0,0
7:15.064,156623,),0,0,1
7:15.208,156675,(,0,0,2
7:15.314,156713,t,0,0,0
7:15.400,156744,),0,0,2
7:21.519,158947,(,0,0,0
7:21.550,158958,p,0,0,0
7:21.583,158970,),0,0,0
7:21.653,158995,(,0,0,1
7:21.697,159011,N,0,0,0
7:21.728,159022,),0,0,1
7:21.875,159075,(,0,0,2
7:21.983,159114,t,0,0,0
7:22.072,159146,),0,0,2
7:22.689,159368,(,0,0,0
7:22.717,159378,p,0,0,0
7:22.753,159391,),0,0,0
7:22.814,159413,(,0,0,1
7:22.858,159429,N,0,0,0
7:22.892,159441,),0,0,1
7:23.036,159493,(,0,0,2
7:23.131,159527,t,0,0,0
7:23.219,159559,),0,0,2
7:23.919,159811,(,0,0,1
7:23.961,159826,N,0,0,0
7:23.992,159837,),0,0,1
7:24.139,159890,(,0,0,2
7:24.219,159919,t,0,0,0
7:24.306,159950,),0,0,2
7:24.889,160160,(,0,0,0
7:24.919,160171,p,0,0,0
7:24.950,160182,),0,0,0
7:25.017,160206,(,0,0,1
7:25.058,160221,N,0,0,0
7:25.094,160234,),0,0,1
7:25.222,160280,(,0,0,2
7:25.325,160317,t,0,0,0
7:25.414,160349,),0,0,2
7:26.033,160572,(,0,0,0
7:26.064,160583,p,0,0,0
7:26.100,160596,),0,0,0
7:26.164,160619,(,0,0,1
7:26.208,160635,N,0,0,0
7:26.242,160647,),0,0,1
7:26.386,160699,(,0,0,2
7:26.486,160735,t,0,0,0
7:26.572,160766,),0,0,2
7:27.219,160999,(,0,0,0
7:27.250,161010,p,0,0,0
7:27.281,161021,),0,0,0
7:27.344,161044,(,0,0,1
7:27.386,161059,N,0,0,0
7:27.419,161071,),0,0,1
7:27.567,161124,(,0,0,2
7:27.664,161159,t,0,0,0
7:27.753,161191,),0,0,2
7:29.508,161823,(,0,0,0
7:29.542,161835,p,0,0,0
7:29.572,161846,),0,0,0
7:29.633,161868,(,0,0,1
7:29.675,161883,N,0,0,0
7:29.706,161894,),0,0,1
7:29.836,161941,(,0,0,2
7:29.933,161976,t,0,0,0
7:30.025,162009,),0,0,2
7:30.606,162218,(,0,0,0
7:30.636,162229,p,0,0,0
7:30.669,162241,),0,0,0
7:30.731,162263,(,0,0,1
7:30.772,162278,N,0,0,0
7:30.806,162290,),0,0,1
7:30.947,162341,(,0,0,2
7:31.042,162375,t,0,0,0
7:31.128,162406,),0,0,2
7:31.714,162617,(,0,0,0
7:31.744,162628,p,0,0,0
7:31.775,162639,),0,0,0
7:31.836,162661,(,0,0,1
7:31.878,162676,N,0,0,0
7:31.911,162688,),0,0,1
7:32.050,162738,(,0,0,2
7:32.158,162777,t,0,0,0
7:32.250,162810,),0,0,2
7:32.858,163029,(,0,0,0
7:32.889,163040,p,0,0,0
7:32.922,163052,),0,0,0
7:32.992,163077,(,0,0,1
7:33.031,163091,N,0,0,0
7:33.061,163102,),0,0,1
7:33.214,163157,(,0,0,2
7:33.314,163193,t,0,0,0
7:33.411,163228,),0,0,2
7:34.028,163450,(,0,0,0
7:34.061,163462,p,0,0,0
7:34.097,163475,),0,0,0
7:34.164,163499,(,0,0,1
7:34.206,163514,N,0,0,0
7:34.239,163526,),0,0,1
7:34.408,163587,(,0,0,2
7:34.489,163616,t,0,0,0
7:34.592,163653,),0,0,2
7:35.186,163867,(,0,0,0
7:35.214,163877,p,0,0,0
7:35.247,163889,),0,0,0
7:35.311,163912,(,0,0,1
7:35.350,163926,N,0,0,0
7:35.383,163938,),0,0,1
7:35.519,163987,(,0,0,2
7:35.617,164022,t,0,0,0
7:35.703,164053,),0,0,2
7:36.397,164303,(,0,0,1
7:36.436,164317,N,0,0,0
7:36.467,164328,),0,0,1
7:36.589,164372,(,0,0,2
7:36.686,164407,t,0,0,0
7:36.781,164441,),0,0,2
7:38.489,165056,(,0,0,0
7:38.517,165066,p,0,0,0
7:38.553,165079,),0,0,0
7:38.617,165102,(,0,0,1
7:38.661,165118,N,0,0,0
7:38.694,165130,),0,0,1
7:38.836,165181,(,0,0,2
7:38.944,165220,t,0,0,0
7:39.033,165252,),0,0,2
7:40.872,165914,(,0,0,0
7:40.900,165924,p,0,0,0
7:40.933,165936,),0,0,0
7:41.000,165960,(,0,0,1
7:41.042,165975,N,0,0,0
7:41.072,165986,),0,0,1
7:41.217,166038,(,0,0,2
7:41.311,166072,t,0,0,0
7:41.397,166103,),0,0,2
7:41.994,166318,(,0,0,0
7:42.025,166329,p,0,0,0
7:42.056,166340,),0,0,0
7:42.117,166362,(,0,0,1
7:42.156,166376,N,0,0,0
7:42.186,166387,),0,0,1
7:42.319,166435,(,0,0,2
7:42.414,166469,t,0,0,0
7:42.497,166499,),0,0,2
7:43.094,166714,(,0,0,0
7:43.125,166725,p,0,0,0
7:43.158,166737,),0,0,0
7:43.219,166759,(,0,0,1
7:43.261,166774,N,0,0,0
7:43.294,166786,),0,0,1
7:43.425,166833,(,0,0,2
7:43.536,166873,t,0,0,0
7:43.614,166901,),0,0,2
7:44.264,167135,(,0,0,0
7:44.294,167146,p,0,0,0
7:44.328,167158,),0,0,0
7:44.394,167182,(,0,0,1
7:44.436,167197,N,0,0,0
7:44.469,167209,),0,0,1
7:44.592,167253,(,0,0,2
7:44.722,167300,t,0,0,0
7:44.811,167332,),0,0,2
7:45.472,167570,(,0,0,0
7:45.503,167581,p,0,0,0
7:45.539,167594,),0,0,0
7:45.600,167616,(,0,0,1
7:45.639,167630,N,0,0,0
7:45.669,167641,),0,0,1
7:45.811,167692,(,0,0,2
7:45.919,167731,t,0,0,0
7:46.008,167763,),0,0,2
7:46.619,167983,(,0,0,0
7:46.650,167994,p,0,0,0
7:46.681,168005,),0,0,0
7:46.744,168028,(,0,0,1
7:46.789,168044,N,0,0,0
7:46.822,168056,),0,0,1
7:46.964,168107,(,0,0,2
7:47.067,168144,t,0,0,0
7:47.156,168176,),0,0,2
7:47.847,168425,(,0,0,1
7:47.886,168439,N,0,0,0
7:47.919,168451,),0,0,1
7:48.053,168499,(,0,0,2
7:48.156,168536,t,0,0,0
7:48.236,168565,),0,0,2
7:50.975,169551,(,0,0,0
7:51.056,169580,p,0,0,0
7:51.086,169591,),0,0,0
7:51.158,169617,(,0,0,1
7:51.200,169632,N,0,0,0
7:51.231,169643,),0,0,1
7:51.364,169691,(,0,0,2
7:51.475,169731,t,0,0,5
7:51.883,169878,t,0,0,5
7:51.928,169894,),0,0,2
7:51.958,169905,(,0,0,0
7:52.006,169922,p,0,0,0
7:52.081,169949,),0,0,0
7:52.283,170022,(,0,0,1
7:52.325,170037,N,0,0,0
7:52.361,170050,),0,0,1
7:52.986,170275,(,0,0,2
7:53.019,170287,t,0,0,0
7:53.072,170306,),0,0,2
7:54.442,170799,(,0,0,1
7:54.481,170813,N,0,0,0
7:54.511,170824,),0,0,1
7:54.644,170872,(,0,0,2
7:54.742,170907,t,0,0,0
7:54.833,170940,),0,0,2
7:55.344,171124,(,0,0,0
7:55.372,171134,p,0,0,0
7:55.400,171144,),0,0,0
7:55.469,171169,(,0,0,1
7:55.511,171184,N,0,0,0
7:55.544,171196,),0,0,1
7:55.664,171239,(,0,0,2
7:55.769,171277,t,0,0,0
7:55.858,171309,),0,0,2
7:56.539,171554,(,0,0,1
7:56.578,171568,N,0,0,0
7:56.608,171579,),0,0,1
7:56.756,171632,(,0,0,2
7:56.856,171668,t,0,0,5
7:56.944,171700,t,0,0,5
7:57.117,171762,),0,0,2
7:57.481,171893,(,0,0,0
7:57.506,171902,p,0,0,0
7:57.539,171914,),0,0,0
7:57.611,171940,(,0,0,1
7:57.656,171956,N,0,0,0
7:57.689,171968,),0,0,1
7:57.839,172022,(,0,0,2
7:57.925,172053,t,0,0,0
7:58.019,172087,),0,0,2
7:58.553,172279,(,0,0,0
7:58.589,172292,p,0,0,0
7:58.622,172304,),0,0,0
7:58.692,172329,(,0,0,1
7:58.736,172345,N,0,0,0
7:58.769,172357,),0,0,1
7:58.903,172405,(,0,0,2
7:59.003,172441,t,0,0,0
7:59.092,172473,),0,0,2
7:59.647,172673,(,0,0,0
7:59.681,172685,p,0,0,0
7:59.703,172693,),0,0,0
7:59.736,172705,(,0,0,1
7:59.778,172720,N,0,0,0
7:59.814,172733,),0,0,1
7:59.925,172773,(,0,0,2
8:00.033,172812,t,0,0,0
8:00.139,172850,),0,0,2
8:00.758,173073,(,0,0,1
8:00.803,173089,N,0,0,0
8:00.836,173101,),0,0,1
8:00.953,173143,(,0,0,2
8:01.061,173182,t,0,0,0
8:01.142,173211,),0,0,2
8:01.683,173406,(,0,0,0
8:01.714,173417,p,0,0,0
8:01.747,173429,),0,0,0
8:01.811,173452,(,0,0,1
8:01.858,173469,N,0,0,0
8:01.894,173482,),0,0,1
8:02.039,173534,(,0,0,2
8:02.147,173573,t,0,0,0
8:02.258,173613,),0,0,2
8:02.817,173814,(,0,0,0
8:02.853,173827,p,0,0,0
8:02.889,173840,),0,0,0
8:02.950,173862,(,0,0,1
8:02.994,173878,N,0,0,0
8:03.028,173890,),0,0,1
8:03.181,173945,(,0,0,2
8:03.281,173981,t,0,0,0
8:03.361,174010,),0,0,2
8:03.933,174216,(,0,0,0
8:03.964,174227,p,0,0,0
8:04.000,174240,),0,0,0
8:04.072,174266,(,0,0,1
8:04.114,174281,N,0,0,0
8:04.150,174294,),0,0,1
8:04.300,174348,(,0,0,2
8:04.397,174383,t,0,0,0
8:04.486,174415,),0,0,2
8:05.061,174622,(,0,0,0
8:05.092,174633,p,0,0,0
8:05.125,174645,),0,0,0
8:05.186,174667,(,0,0,1
8:05.228,174682,N,0,0,0
8:05.261,174694,),0,0,1
8:05.403,174745,(,0,0,2
8:05.500,174780,t,0,0,0
8:05.589,174812,),0,0,2
8:06.111,175000,(,0,0,0
8:06.144,175012,p,0,0,0
8:06.175,175023,),0,0,0
8:06.244,175048,(,0,0,1
8:06.286,175063,N,0,0,0
8:06.319,175075,),0,0,1
8:06.456,175124,(,0,0,2
8:06.550,175158,t,0,0,0
8:06.644,175192,),0,0,2
8:08.289,175784,(,0,0,0
8:08.319,175795,p,0,0,0
8:08.353,175807,),0,0,0
8:08.417,175830,(,0,0,1
8:08.464,175847,N,0,0,0
8:08.497,175859,),0,0,1
8:08.631,175907,(,0,0,2
8:08.744,175948,t,0,0,0
8:08.833,175980,),0,0,2
8:10.572,176606,(,0,0,0
8:10.606,176618,p,0,0,0
8:10.639,176630,),0,0,0
8:10.703,176653,(,0,0,1
8:10.747,176669,N,0,0,0
8:10.786,176683,),0,0,1
8:10.928,176734,(,0,0,2
8:11.025,176769,t,0,0,0
8:11.117,176802,),0,0,2
8:11.711,177016,(,0,0,0
8:11.739,177026,p,0,0,0
8:11.769,177037,),0,0,0
8:11.833,177060,(,0,0,1
8:11.875,177075,N,0,0,0
8:11.906,177086,),0,0,1
8:12.050,177138,(,0,0,2
8:12.133,177168,t,0,0,0
8:12.222,177200,),0,0,2
8:12.794,177406,(,0,0,0
8:12.825,177417,p,0,0,0
8:12.856,177428,),0,0,0
8:12.914,177449,(,0,0,1
8:12.953,177463,N,0,0,0
8:12.986,177475,),0,0,1
8:13.103,177517,(,0,0,2
8:13.206,177554,t,0,0,0
8:13.294,177586,),0,0,2
8:13.886,177799,(,0,0,0
8:13.914,177809,p,0,0,0
8:13.944,177820,),0,0,0
8:14.008,177843,(,0,0,1
8:14.050,177858,N,0,0,0
8:14.086,177871,),0,0,1
8:14.217,177918,(,0,0,2
8:14.328,177958,t,0,0,0
8:14.417,177990,),0,0,2
8:15.033,178212,(,0,0,0
8:15.067,178224,p,0,0,0
8:15.103,178237,),0,0,0
8:15.164,178259,(,0,0,1
8:15.206,178274,N,0,0,0
8:15.239,178286,),0,0,1
8:15.386,178339,(,0,0,2
8:15.489,178376,t,0,0,0
8:15.578,178408,),0,0,2
8:16.222,178640,(,0,0,0
8:16.256,178652,p,0,0,0
8:16.292,178665,),0,0,0
8:16.358,178689,(,0,0,1
8:16.400,178704,N,0,0,0
8:16.436,178717,),0,0,1
8:16.589,178772,(,0,0,2
8:16.683,178806,t,0,0,0
8:16.775,178839,),0,0,2
8:17.386,179059,(,0,0,0
8:17.417,179070,p,0,0,0
8:17.450,179082,),0,0,0
8:17.511,179104,(,0,0,1
8:17.553,179119,N,0,0,0
8:17.583,179130,),0,0,1
8:17.722,179180,(,0,0,2
8:17.811,179212,t,0,0,0
8:17.897,179243,),0,0,2
8:18.486,179455,(,0,0,0
8:18.517,179466,p,0,0,0
8:18.550,179478,),0,0,0
8:18.606,179498,(,0,0,1
8:18.647,179513,N,0,0,0
8:18.681,179525,),0,0,1
8:18.819,179575,(,0,0,2
8:18.906,179606,t,0,0,0
8:18.989,179636,),0,0,2
8:19.581,179849,(,0,0,0
8:19.611,179860,p,0,0,0
8:19.642,179871,),0,0,0
8:19.703,179893,(,0,0,1
8:19.744,179908,N,0,0,0
8:19.778,179920,),0,0,1
8:19.919,179971,(,0,0,2
8:20.014,180005,t,0,0,0
8:20.108,180039,),0,0,2
8:20.742,180267,(,0,0,0
8:20.775,180279,p,0,0,0
8:20.811,180292,),0,0,0
8:20.872,180314,(,0,0,1
8:20.919,180331,N,0,0,0
8:20.956,180344,),0,0,1
8:21.100,180396,(,0,0,2
8:21.197,180431,t,0,0,0
8:21.278,180460,),0,0,2
8:21.917,180690,(,0,0,0
8:21.950,180702,p,0,0,0
8:21.981,180713,),0,0,0
8:22.047,180737,(,0,0,1
8:22.086,180751,N,0,0,0
8:22.119,180763,),0,0,1
8:22.267,180816,(,0,0,2
8:22.356,180848,t,0,0,0
8:22.447,180881,),0,0,2
8:23.039,181094,(,0,0,0
8:23.067,181104,p,0,0,0
8:23.094,181114,),0,0,0
8:23.158,181137,(,0,0,1
8:23.200,181152,N,0,0,0
8:23.236,181165,),0,0,1
8:23.353,181207,(,0,0,2
8:23.467,181248,t,0,0,0
8:23.544,181276,),0,0,2
8:24.128,181486,(,0,0,0
8:24.156,181496,p,0,0,0
8:24.192,181509,),0,0,0
8:24.239,181526,(,0,0,1
8:24.283,181542,N,0,0,0
8:24.314,181553,),0,0,1
8:24.447,181601,(,0,0,2
8:24.539,181634,t,0,0,0
8:24.622,181664,),0,0,2
8:25.197,181871,(,0,0,0
8:25.225,181881,p,0,0,0
8:25.256,181892,),0,0,0
8:25.322,181916,(,0,0,1
8:25.364,181931,N,0,0,0
8:25.397,181943,),0,0,1
8:25.536,181993,(,0,0,2
8:25.631,182027,t,0,0,0
8:25.719,182059,),0,0,2
8:26.325,182277,(,0,0,0
8:26.356,182288,p,0,0,0
8:26.389,182300,),0,0,0
8:26.456,182324,(,0,0,1
8:26.500,182340,N,0,0,0
8:26.531,182351,),0,0,1
8:26.683,182406,(,0,0,2
8:26.772,182438,t,0,0,0
8:26.858,182469,),0,0,2
8:27.467,182688,(,0,0,0
8:27.497,182699,p,0,0,0
8:27.533,182712,),0,0,0
8:27.597,182735,(,0,0,1
8:27.642,182751,N,0,0,0
8:27.678,182764,),0,0,1
8:27.822,182816,(,0,0,2
8:27.914,182849,t,0,0,0
8:28.003,182881,),0,0,2
8:28.614,183101,(,0,0,0
8:28.644,183112,p,0,0,0
8:28.678,183124,),0,0,0
8:28.739,183146,(,0,0,1
8:28.786,183163,N,0,0,0
8:28.819,183175,),0,0,1
8:28.967,183228,(,0,0,2
8:29.064,183263,t,0,0,0
8:29.150,183294,),0,0,2
8:29.744,183508,(,0,0,0
8:29.775,183519,p,0,0,0
8:29.811,183532,),0,0,0
8:29.869,183553,(,0,0,1
8:29.911,183568,N,0,0,0
8:29.944,183580,),0,0,1
8:30.086,183631,(,0,0,2
8:30.175,183663,t,0,0,0
8:30.253,183691,),0,0,2
8:30.839,183902,(,0,0,0
8:30.867,183912,p,0,0,0
8:30.900,183924,),0,0,0
8:30.961,183946,(,0,0,1
8:31.000,183960,N,0,0,0
8:31.031,183971,),0,0,1
8:31.167,184020,(,0,0,2
8:31.253,184051,t,0,0,0
8:31.339,184082,),0,0,2
8:31.922,184292,(,0,0,0
8:31.956,184304,p,0,0,0
8:31.989,184316,),0,0,0
8:32.056,184340,(,0,0,1
8:32.097,184355,N,0,0,0
8:32.131,184367,),0,0,1
8:32.272,184418,(,0,0,2
8:32.367,184452,t,0,0,0
8:32.447,184481,),0,0,2
8:34.272,185138,(,0,0,0
8:34.306,185150,p,0,0,0
8:34.339,185162,),0,0,0
8:34.406,185186,(,0,0,1
8:34.447,185201,N,0,0,0
8:34.481,185213,),0,0,1
8:34.622,185264,(,0,0,2
8:34.725,185301,t,0,0,0
8:34.817,185334,),0,0,2
8:35.442,185559,(,0,0,0
8:35.472,185570,p,0,0,0
8:35.506,185582,),0,0,0
8:35.567,185604,(,0,0,1
8:35.608,185619,N,0,0,0
8:35.642,185631,),0,0,1
8:35.772,185678,(,0,0,2
8:35.864,185711,t,0,0,0
8:35.947,185741,),0,0,2
8:36.539,185954,(,0,0,0
8:36.567,185964,p,0,0,0
8:36.603,185977,),0,0,0
8:36.661,185998,(,0,0,1
8:36.700,186012,N,0,0,0
8:36.731,186023,),0,0,1
8:36.853,186067,(,0,0,2
8:36.956,186104,t,0,0,0
8:37.044,186136,),0,0,2
8:37.636,186349,(,0,0,0
8:37.664,186359,p,0,0,0
8:37.694,186370,),0,0,0
8:37.758,186393,(,0,0,1
8:37.800,186408,N,0,0,0
8:37.833,186420,),0,0,1
8:37.983,186474,(,0,0,2
8:38.072,186506,t,0,0,0
8:38.158,186537,),0,0,2
8:38.811,186772,(,0,0,0
8:38.842,186783,p,0,0,0
8:38.878,186796,),0,0,0
8:38.947,186821,(,0,0,1
8:38.992,186837,N,0,0,0
8:39.025,186849,),0,0,1
8:39.172,186902,(,0,0,2
8:39.272,186938,t,0,0,0
8:39.364,186971,),0,0,2
8:40.000,187200,(,0,0,0
8:40.031,187211,p,0,0,0
8:40.064,187223,),0,0,0
8:40.133,187248,(,0,0,1
8:40.178,187264,N,0,0,0
8:40.211,187276,),0,0,1
8:40.350,187326,(,0,0,2
8:40.453,187363,t,0,0,0
8:40.539,187394,),0,0,2
8:41.142,187611,(,0,0,0
8:41.175,187623,p,0,0,0
8:41.206,187634,),0,0,0
8:41.269,187657,(,0,0,1
8:41.311,187672,N,0,0,0
8:41.342,187683,),0,0,1
8:41.472,187730,(,0,0,2
8:41.575,187767,t,0,0,0
8:41.664,187799,),0,0,2
8:42.244,188008,(,0,0,0
8:42.272,188018,p,0,0,0
8:42.311,188032,),0,0,0
8:42.369,188053,(,0,0,1
8:42.411,188068,N,0,0,0
8:42.442,188079,),0,0,1
8:42.572,188126,(,0,0,2
8:42.667,188160,t,0,0,0
8:42.744,188188,),0,0,2
8:43.322,188396,(,0,0,0
8:43.350,188406,p,0,0,0
8:43.383,188418,),0,0,0
8:43.450,188442,(,0,0,1
8:43.489,188456,N,0,0,0
8:43.522,188468,),0,0,1
8:43.669,188521,(,0,0,2
8:43.753,188551,t,0,0,0
8:43.842,188583,),0,0,2
8:45.533,189192,(,0,0,0
8:45.600,189216,p,0,0,0
8:45.636,189229,),0,0,0
8:45.711,189256,(,0,0,1
8:45.750,189270,N,0,0,0
8:45.783,189282,),0,0,1
8:45.942,189339,(,0,0,2
8:46.031,189371,t,0,0,0
8:46.131,189407,),0,0,2
8:46.700,189612,(,0,0,0
8:46.733,189624,p,0,0,0
8:46.767,189636,),0,0,0
8:46.836,189661,(,0,0,1
8:46.875,189675,N,0,0,0
8:46.908,189687,),0,0,1
8:47.053,189739,(,0,0,2
8:47.144,189772,t,0,0,0
8:47.228,189802,),0,0,2
8:48.878,190396,(,0,0,0
8:48.917,190410,p,0,0,0
8:48.939,190418,),0,0,0
8:49.011,190444,(,0,0,1
8:49.053,190459,N,0,0,0
8:49.086,190471,),0,0,1
8:49.225,190521,(,0,0,2
8:49.317,190554,t,0,0,0
8:49.408,190587,),0,0,2
8:49.967,190788,(,0,0,0
8:49.997,190799,p,0,0,0
8:50.031,190811,),0,0,0
8:50.092,190833,(,0,0,1
8:50.133,190848,N,0,0,0
8:50.167,190860,),0,0,1
8:50.306,190910,(,0,0,2
8:50.408,190947,t,0,0,0
8:50.503,190981,),0,0,2
8:53.428,192034,(,0,0,0
8:53.456,192044,p,0,0,0
8:53.489,192056,),0,0,0
8:53.553,192079,(,0,0,1
8:53.592,192093,N,0,0,0
8:53.625,192105,),0,0,1
8:53.764,192155,(,0,0,2
8:53.864,192191,t,0,0,0
8:53.947,192221,),0,0,2
8:54.528,192430,(,0,0,0
8:54.558,192441,p,0,0,0
8:54.589,192452,),0,0,0
8:54.647,192473,(,0,0,1
8:54.686,192487,N,0,0,0
8:54.719,192499,),0,0,1
8:54.853,192547,(,0,0,2
8:54.950,192582,t,0,0,0
8:55.031,192611,),0,0,2
8:57.875,193635,(,0,0,0
8:57.908,193647,p,0,0,0
8:57.947,193661,),0,0,0
8:58.014,193685,(,0,0,1
8:58.053,193699,N,0,0,0
8:58.083,193710,),0,0,1
8:58.253,193771,(,0,0,2
8:58.333,193800,t,0,0,0
8:58.417,193830,),0,0,2
8:59.017,194046,(,0,0,0
8:59.047,194057,p,0,0,0
8:59.078,194068,),0,0,0
8:59.139,194090,(,0,0,1
8:59.181,194105,N,0,0,0
8:59.211,194116,),0,0,1
8:59.347,194165,(,0,0,2
8:59.442,194199,t,0,0,0
8:59.522,194228,),0,0,2
9:01.153,194815,(,0,0,0
9:01.183,194826,p,0,0,0
9:01.217,194838,),0,0,0
9:01.272,194858,(,0,0,1
9:01.314,194873,N,0,0,0
9:01.344,194884,),0,0,1
9:01.483,194934,(,0,0,2
9:01.575,194967,t,0,0,0
9:01.658,194997,),0,0,2
9:03.417,195630,(,0,0,0
9:03.444,195640,p,0,0,0
9:03.481,195653,),0,0,0
9:03.547,195677,(,0,0,1
9:03.589,195692,N,0,0,0
9:03.622,195704,),0,0,1
9:03.764,195755,(,0,0,2
9:03.861,195790,t,0,0,0
9:03.947,195821,),0,0,2
9:13.472,199250,(,0,0,0
9:13.511,199264,p,0,0,0
9:13.539,199274,),0,0,0
9:13.589,199292,(,0,0,1
9:13.642,199311,N,0,0,0
9:13.678,199324,),0,0,1
9:13.822,199376,(,0,0,2
9:13.900,199404,t,0,0,0
9:13.994,199438,),0,0,2
9:14.544,199636,(,0,0,0
9:14.575,199647,p,0,0,0
9:14.617,199662,),0,0,0
9:14.664,199679,(,0,0,1
9:14.719,199699,N,0,0,0
9:14.753,199711,),0,0,1
9:14.911,199768,(,0,0,2
9:14.997,199799,t,0,0,0
9:15.089,199832,),0,0,2
9:15.667,200040,(,0,0,0
9:15.703,200053,p,0,0,0
9:15.731,200063,),0,0,0
9:15.797,200087,(,0,0,1
9:15.853,200107,N,0,0,0
9:15.889,200120,),0,0,1
9:16.033,200172,(,0,0,2
9:16.133,200208,t,0,0,0
9:16.225,200241,),0,0,2
9:16.583,200370,(,0,0,0
9:16.644,200392,p,0,0,0
9:16.661,200398,),0,0,0
9:16.881,200477,(,0,0,1
9:16.939,200498,N,0,0,0
9:16.972,200510,),0,0,1
9:17.106,200558,(,0,0,2
9:17.211,200596,t,0,0,0
9:17.311,200632,),0,0,2
9:17.725,200781,(,0,0,0
9:17.806,200810,p,0,0,0
9:17.839,200822,),0,0,0
9:17.889,200840,(,0,0,1
9:17.939,200858,N,0,0,0
9:17.972,200870,),0,0,1
9:18.103,200917,(,0,0,2
9:18.200,200952,t,0,0,0
9:18.294,200986,),0,0,2
9:18.761,201154,(,0,0,0
9:18.797,201167,p,0,0,0
9:18.828,201178,),0,0,0
9:18.881,201197,(,0,0,1
9:18.931,201215,N,0,0,0
9:18.967,201228,),0,0,1
9:19.100,201276,(,0,0,2
9:19.192,201309,t,0,0,0
9:19.278,201340,),0,0,2
9:19.767,201516,(,0,0,0
9:19.800,201528,p,0,0,0
9:19.833,201540,),0,0,0
9:19.883,201558,(,0,0,1
9:19.939,201578,N,0,0,0
9:19.972,201590,),0,0,1
9:20.122,201644,(,0,0,2
9:20.211,201676,t,0,0,5
9:20.319,201715,t,0,0,5
9:20.364,201731,),0,0,2
9:20.814,201893,(,0,0,0
9:20.847,201905,p,0,0,0
9:20.878,201916,),0,0,0
9:20.942,201939,(,0,0,1
9:20.994,201958,N,0,0,0
9:21.033,201972,),0,0,1
9:21.178,202024,(,0,0,2
9:21.281,202061,t,0,0,5
9:21.631,202187,t,0,0,5
9:21.681,202205,),0,0,2
9:21.758,202233,(,0,0,0
9:21.803,202249,p,0,0,0
9:21.869,202273,),0,0,0
9:22.014,202325,(,0,0,1
9:22.067,202344,N,0,0,0
9:22.103,202357,),0,0,1
9:22.244,202408,(,0,0,2
9:22.344,202444,t,0,0,5
9:22.539,202514,t,0,0,5
9:22.583,202530,),0,0,2
9:22.917,202650,(,0,0,0
9:22.953,202663,p,0,0,0
9:22.978,202672,),0,0,0
9:23.042,202695,(,0,0,1
9:23.092,202713,N,0,0,0
9:23.125,202725,),0,0,1
9:23.264,202775,(,0,0,2
9:23.353,202807,t,0,0,0
9:23.453,202843,),0,0,2
9:23.900,203004,(,0,0,0
9:23.928,203014,p,0,0,0
9:23.967,203028,),0,0,0
9:24.017,203046,(,0,0,1
9:24.067,203064,N,0,0,0
9:24.097,203075,),0,0,1
9:24.242,203127,(,0,0,2
9:24.328,203158,t,0,0,0
9:24.406,203186,),0,0,2
9:24.825,203337,(,0,0,0
9:24.936,203377,p,0,0,0
9:24.967,203388,),0,0,0
9:25.022,203408,(,0,0,1
9:25.075,203427,N,0,0,0
9:25.108,203439,),0,0,1
9:25.250,203490,(,0,0,2
9:25.342,203523,t,0,0,0
9:25.419,203551,),0,0,2
9:25.942,203739,(,0,0,0
9:25.972,203750,p,0,0,0
9:26.006,203762,),0,0,0
9:26.067,203784,(,0,0,1
9:26.119,203803,N,0,0,0
9:26.156,203816,),0,0,1
9:26.319,203875,(,0,0,2
9:26.408,203907,t,0,0,0
9:26.508,203943,),0,0,2
9:27.078,204148,(,0,0,0
9:27.106,204158,p,0,0,0
9:27.136,204169,),0,0,0
9:27.194,204190,(,0,0,1
9:27.247,204209,N,0,0,0
9:27.283,204222,),0,0,1
9:27.447,204281,(,0,0,2
9:27.539,204314,t,0,0,0
9:27.625,204345,),0,0,2
9:28.347,204605,(,0,0,1
9:28.403,204625,N,0,0,0
9:28.436,204637,),0,0,1
9:28.583,204690,(,0,0,2
9:28.678,204724,t,0,0,0
9:28.775,204759,),0,0,2
9:32.772,206198,(,0,0,1
9:32.822,206216,N,0,0,0
9:32.856,206228,),0,0,1
9:32.997,206279,(,0,0,2
9:33.100,206316,t,0,0,0
9:33.192,206349,),0,0,2
9:36.083,207390,(,0,0,0
9:36.114,207401,p,0,0,0
9:36.147,207413,),0,0,0
9:36.197,207431,(,0,0,1
9:36.242,207447,N,0,0,0
9:36.272,207458,),0,0,1
9:36.406,207506,(,0,0,2
9:36.506,207542,t,0,0,0
9:36.583,207570,),0,0,2
9:37.150,207774,(,0,0,0
9:37.181,207785,p,0,0,0
9:37.219,207799,),0,0,0
9:37.267,207816,(,0,0,1
9:37.317,207834,N,0,0,0
9:37.347,207845,),0,0,1
9:37.503,207901,(,0,0,2
9:37.586,207931,t,0,0,0
9:37.669,207961,),0,0,2
9:38.228,208162,(,0,0,0
9:38.264,208175,p,0,0,0
9:38.300,208188,),0,0,0
9:38.361,208210,(,0,0,1
9:38.411,208228,N,0,0,0
9:38.442,208239,),0,0,1
9:38.611,208300,(,0,0,2
9:38.700,208332,t,0,0,5
9:39.194,208510,t,0,0,5
9:39.228,208522,),0,0,2
9:39.317,208554,(,0,0,0
9:39.364,208571,p,0,0,0
9:39.394,208582,),0,0,0
9:39.467,208608,(,0,0,1
9:39.522,208628,N,0,0,0
9:39.553,208639,),0,0,1
9:39.725,208701,(,0,0,2
9:39.806,208730,t,0,0,0
9:39.897,208763,),0,0,2
9:40.533,208992,(,0,0,1
9:40.586,209011,N,0,0,0
9:40.617,209022,),0,0,1
9:40.758,209073,(,0,0,2
9:40.858,209109,t,0,0,0
9:40.950,209142,),0,0,2
9:41.447,209321,(,0,0,0
9:41.472,209330,p,0,0,0
9:41.506,209342,),0,0,0
9:41.564,209363,(,0,0,1
9:41.617,209382,N,0,0,0
9:41.644,209392,),0,0,1
9:41.881,209477,(,0,0,2
9:42.083,209550,t,0,0,1
9:42.217,209598,),0,0,2
9:44.442,210399,(,0,0,0
9:44.497,210419,p,0,0,0
9:44.561,210442,),0,0,0
9:44.633,210468,(,0,0,1
9:44.678,210484,N,0,0,0
9:44.711,210496,),0,0,1
9:44.897,210563,(,0,0,2
9:44.961,210586,t,0,0,0
9:45.044,210616,),0,0,2
9:45.539,210794,(,0,0,0
9:45.567,210804,p,0,0,0
9:45.617,210822,),0,0,0
9:45.661,210838,(,0,0,1
9:45.717,210858,N,0,0,0
9:45.750,210870,),0,0,1
9:45.908,210927,(,0,0,2
9:45.994,210958,t,0,0,0
9:46.081,210989,),0,0,2
9:46.558,211161,(,0,0,0
9:46.586,211171,p,0,0,0
9:46.614,211181,),0,0,0
9:46.683,211206,(,0,0,1
9:46.733,211224,N,0,0,0
9:46.761,211234,),0,0,1
9:46.919,211291,(,0,0,2
9:47.006,211322,t,0,0,5
9:47.453,211483,t,0,0,5
9:47.483,211494,),0,0,2
9:48.456,211844,(,0,0,0
9:48.494,211858,p,0,0,0
9:48.531,211871,),0,0,0
9:48.578,211888,(,0,0,1
9:48.625,211905,N,0,0,0
9:48.656,211916,),0,0,1
9:48.825,211977,(,0,0,2
9:48.883,211998,t,0,0,5
9:49.350,212166,t,0,0,5
9:49.397,212183,),0,0,2
9:50.342,212523,(,0,0,0
9:50.372,212534,p,0,0,0
9:50.414,212549,),0,0,0
9:50.450,212562,(,0,0,1
9:50.506,212582,N,0,0,0
9:50.539,212594,),0,0,1
9:50.703,212653,(,0,0,2
9:50.783,212682,t,0,0,5
9:50.914,212729,t,0,0,5
9:50.947,212741,),0,0,2
9:51.303,212869,(,0,0,0
9:51.328,212878,p,0,0,0
9:51.367,212892,),0,0,0
9:51.425,212913,(,0,0,1
9:51.472,212930,N,0,0,0
9:51.508,212943,),0,0,1
9:51.661,212998,(,0,0,2
9:51.747,213029,t,0,0,0
9:51.833,213060,),0,0,2
9:52.272,213218,(,0,0,0
9:52.306,213230,p,0,0,0
9:52.333,213240,),0,0,0
9:52.389,213260,(,0,0,1
9:52.442,213279,N,0,0,0
9:52.475,213291,),0,0,1
9:52.614,213341,(,0,0,2
9:52.719,213379,t,0,0,0
9:52.808,213411,),0,0,2
9:53.217,213558,(,0,0,0
9:53.247,213569,p,0,0,0
9:53.292,213585,),0,0,0
9:53.328,213598,(,0,0,1
9:53.383,213618,N,0,0,0
9:53.414,213629,),0,0,1
9:53.542,213675,(,0,0,2
9:53.642,213711,t,0,0,5
9:53.767,213756,t,0,0,5
9:53.797,213767,),0,0,2
9:54.119,213883,(,0,0,0
9:54.156,213896,p,0,0,0
9:54.192,213909,),0,0,0
9:54.231,213923,(,0,0,1
9:54.281,213941,N,0,0,0
9:54.308,213951,),0,0,1
9:54.453,214003,(,0,0,2
9:54.525,214029,t,0,0,5
9:54.703,214093,t,0,0,5
9:54.731,214103,),0,0,2
9:54.944,214180,(,0,0,0
9:54.972,214190,p,0,0,0
9:54.997,214199,),0,0,0
9:55.111,214240,(,0,0,1
9:55.167,214260,N,0,0,0
9:55.200,214272,),0,0,1
9:55.317,214314,(,0,0,2
9:55.417,214350,t,0,0,5
9:55.911,214528,t,0,0,5
9:55.947,214541,),0,0,2
9:56.994,214918,(,0,0,1
9:57.047,214937,N,0,0,0
9:57.081,214949,),0,0,1
9:57.214,214997,(,0,0,2
9:57.317,215034,t,0,0,5
9:57.422,215072,t,0,0,5
9:57.478,215092,),0,0,2
9:57.861,215230,(,0,0,0
9:57.894,215242,p,0,0,0
9:57.931,215255,),0,0,0
9:57.981,215273,(,0,0,1
9:58.036,215293,N,0,0,0
9:58.069,215305,),0,0,1
9:58.219,215359,(,0,0,2
9:58.317,215394,t,0,0,5
9:58.519,215467,t,0,0,5
9:58.558,215481,),0,0,2
9:58.725,215541,(,0,0,0
9:58.764,215555,p,0,0,0
9:58.800,215568,),0,0,0
9:58.939,215618,(,0,0,1
9:58.994,215638,N,0,0,0
9:59.031,215651,),0,0,1
9:59.161,215698,(,0,0,2
9:59.258,215733,t,0,0,0
9:59.336,215761,),0,0,2
10:01.556,216560,(,0,0,0
10:01.600,216576,p,0,0,0
10:01.650,216594,),0,0,0
10:01.703,216613,(,0,0,1
10:01.756,216632,N,0,0,0
10:01.789,216644,),0,0,1
10:01.933,216696,(,0,0,2
10:02.022,216728,t,0,0,5
10:02.361,216850,t,0,0,5
10:02.519,216907,),0,0,2
10:03.431,217235,(,0,0,0
10:03.481,217253,p,0,0,0
10:03.533,217272,),0,0,0
10:03.597,217295,(,0,0,1
10:03.647,217313,N,0,0,0
10:03.681,217325,),0,0,1
10:03.817,217374,(,0,0,2
10:03.925,217413,t,0,0,5
10:04.275,217539,t,0,0,5
10:04.392,217581,),0,0,2
10:05.258,217893,(,0,0,0
10:05.297,217907,p,0,0,0
10:05.383,217938,),0,0,0
10:05.428,217954,(,0,0,1
10:05.481,217973,N,0,0,0
10:05.511,217984,),0,0,1
10:05.653,218035,(,0,0,2
10:05.739,218066,t,0,0,0
10:05.819,218095,),0,0,2
10:06.167,218220,(,0,0,0
10:06.211,218236,p,0,0,0
10:06.256,218252,),0,0,0
10:06.328,218278,(,0,0,1
10:06.375,218295,N,0,0,0
10:06.408,218307,),0,0,1
10:07.003,218521,(,0,0,2
10:07.036,218533,t,0,0,0
10:07.106,218558,),0,0,2
10:07.922,218852,(,0,0,0
10:07.975,218871,p,0,0,0
10:08.028,218890,),0,0,0
10:08.083,218910,(,0,0,1
10:08.139,218930,N,0,0,0
10:08.172,218942,),0,0,1
10:08.306,218990,(,0,0,2
10:08.425,219033,t,0,0,5
10:08.508,219063,t,0,0,5
10:08.667,219120,),0,0,2
10:08.853,219187,(,0,0,0
10:08.903,219205,p,0,0,0
10:08.961,219226,),0,0,0
10:09.025,219249,(,0,0,1
10:09.075,219267,N,0,0,0
10:09.108,219279,),0,0,1
10:09.333,219360,(,0,0,2
10:09.369,219373,t,0,0,5
10:09.481,219413,t,0,0,5
10:09.542,219435,),0,0,2
10:09.794,219526,(,0,0,0
10:09.836,219541,p,0,0,0
10:09.894,219562,),0,0,0
10:09.964,219587,(,0,0,1
10:10.019,219607,N,0,0,0
10:10.053,219619,),0,0,1
10:10.150,219654,(,0,0,2
10:10.303,219709,t,0,0,0
10:10.378,219736,),0,0,2
10:10.744,219868,(,0,0,0
10:10.775,219879,p,0,0,0
10:10.808,219891,),0,0,0
10:10.903,219925,(,0,0,1
10:10.958,219945,N,0,0,0
10:10.989,219956,),0,0,1
10:11.133,220008,(,0,0,2
10:11.222,220040,t,0,0,0
10:11.306,220070,),0,0,2
10:11.636,220189,(,0,0,0
10:11.678,220204,p,0,0,0
10:11.736,220225,),0,0,0
10:11.794,220246,(,0,0,1
10:11.850,220266,N,0,0,0
10:11.881,220277,),0,0,1
10:12.031,220331,(,0,0,2
10:12.108,220359,t,0,0,0
10:12.178,220384,),0,0,2
10:12.494,220498,(,0,0,0
10:12.589,220532,p,0,0,0
10:12.633,220548,),0,0,0
10:12.661,220558,(,0,0,1
10:12.706,220574,N,0,0,0
10:12.839,220622,),0,0,1
10:12.906,220646,(,0,0,2
10:12.961,220666,t,0,0,5
10:13.069,220705,t,0,0,5
10:13.131,220727,),0,0,2
10:13.394,220822,(,0,0,0
10:13.422,220832,p,0,0,0
10:13.472,220850,),0,0,0
10:13.531,220871,(,0,0,1
10:13.583,220890,N,0,0,0
10:13.617,220902,),0,0,1
10:13.750,220950,(,0,0,2
10:13.844,220984,t,0,0,0
10:13.939,221018,),0,0,2
10:14.292,221145,(,0,0,0
10:14.336,221161,p,0,0,0
10:14.397,221183,),0,0,0
10:14.456,221204,(,0,0,1
10:14.508,221223,N,0,0,0
10:14.542,221235,),0,0,1
10:14.667,221280,(,0,0,2
10:14.778,221320,t,0,0,0
10:14.856,221348,),0,0,2
10:15.233,221484,(,0,0,0
10:15.278,221500,p,0,0,0
10:15.336,221521,),0,0,0
10:15.400,221544,(,0,0,1
10:15.453,221563,N,0,0,0
10:15.486,221575,),0,0,1
10:15.644,221632,(,0,0,2
10:15.722,221660,t,0,0,0
10:15.800,221688,),0,0,2
10:16.131,221807,(,0,0,0
10:16.217,221838,p,0,0,0
10:16.286,221863,),0,0,0
10:16.333,221880,(,0,0,1
10:16.403,221905,N,0,0,0
10:16.439,221918,),0,0,1
10:16.583,221970,(,0,0,2
10:16.675,222003,t,0,0,5
10:16.786,222043,t,0,0,5
10:16.872,222074,),0,0,2
10:17.089,222152,(,0,0,0
10:17.139,222170,p,0,0,0
10:17.189,222188,),0,0,0
10:17.261,222214,(,0,0,1
10:17.314,222233,N,0,0,0
10:17.347,222245,),0,0,1
10:17.908,222447,(,0,0,2
10:17.944,222460,t,0,0,0
10:17.992,222477,),0,0,2
10:18.853,222787,(,0,0,0
10:18.917,222810,p,0,0,0
10:18.978,222832,),0,0,0
10:19.033,222852,(,0,0,1
10:19.081,222869,N,0,0,0
10:19.114,222881,),0,0,1
10:19.242,222927,(,0,0,2
10:19.350,222966,t,0,0,5
10:19.447,223001,t,0,0,5
10:19.522,223028,),0,0,2
10:19.806,223130,(,0,0,0
10:19.861,223150,p,0,0,0
10:19.919,223171,),0,0,0
10:19.978,223192,(,0,0,1
10:20.028,223210,N,0,0,0
10:20.061,223222,),0,0,1
10:20.197,223271,(,0,0,2
10:20.294,223306,t,0,0,0
10:20.372,223334,),0,0,2
10:20.733,223464,(,0,0,0
10:20.789,223484,p,0,0,0
10:20.853,223507,),0,0,0
10:20.917,223530,(,0,0,1
10:20.969,223549,N,0,0,0
10:21.003,223561,),0,0,1
10:21.111,223600,(,0,0,2
10:21.244,223648,t,0,0,0
10:21.372,223694,),0,0,2
10:21.697,223811,(,0,0,0
10:21.753,223831,p,0,0,0
10:21.808,223851,),0,0,0
10:21.872,223874,(,0,0,1
10:21.922,223892,N,0,0,0
10:21.956,223904,),0,0,1
10:22.072,223946,(,0,0,2
10:22.203,223993,t,0,0,0
10:22.297,224027,),0,0,2
10:22.642,224151,(,0,0,0
10:22.692,224169,p,0,0,0
10:22.744,224188,),0,0,0
10:22.811,224212,(,0,0,1
10:22.864,224231,N,0,0,0
10:22.897,224243,),0,0,1
10:23.489,224456,(,0,0,2
10:23.525,224469,t,0,0,5
10:23.589,224492,t,0,0,5
10:23.647,224513,),0,0,2
10:24.461,224806,(,0,0,0
10:24.508,224823,p,0,0,0
10:24.567,224844,),0,0,0
10:24.622,224864,(,0,0,1
10:24.672,224882,N,0,0,0
10:24.706,224894,),0,0,1
10:24.858,224949,(,0,0,2
10:24.944,224980,t,0,0,5
10:25.053,225019,t,0,0,5
10:25.086,225031,),0,0,2
10:25.369,225133,(,0,0,0
10:25.444,225160,p,0,0,0
10:25.489,225176,),0,0,0
10:25.556,225200,(,0,0,1
10:25.611,225220,N,0,0,0
10:25.642,225231,),0,0,1
10:25.781,225281,(,0,0,2
10:25.872,225314,t,0,0,5
10:25.967,225348,t,0,0,5
10:26.025,225369,),0,0,2
10:26.325,225477,(,0,0,0
10:26.372,225494,p,0,0,0
10:26.425,225513,),0,0,0
10:26.494,225538,(,0,0,1
10:26.550,225558,N,0,0,0
10:26.583,225570,),0,0,1
10:26.700,225612,(,0,0,2
10:26.828,225658,t,0,0,5
10:27.164,225779,t,0,0,5
10:27.217,225798,),0,0,2
10:27.292,225825,(,0,0,0
10:27.336,225841,p,0,0,0
10:27.397,225863,),0,0,0
10:27.467,225888,(,0,0,1
10:27.519,225907,N,0,0,0
10:27.550,225918,),0,0,1
10:27.622,225944,(,0,0,2
10:27.792,226005,t,0,0,0
10:27.881,226037,),0,0,2
10:28.258,226173,(,0,0,0
10:28.311,226192,p,0,0,0
10:28.381,226217,),0,0,0
10:28.436,226237,(,0,0,1
10:28.486,226255,N,0,0,0
10:28.519,226267,),0,0,1
10:29.150,226494,(,0,0,2
10:29.181,226505,t,0,0,0
10:29.222,226520,),0,0,2
10:30.142,226851,(,0,0,0
10:30.192,226869,p,0,0,0
10:30.244,226888,),0,0,0
10:30.308,226911,(,0,0,1
10:30.356,226928,N,0,0,0
10:30.386,226939,),0,0,1
10:30.508,226983,(,0,0,2
10:30.611,227020,t,0,0,5
10:30.692,227049,t,0,0,5
10:30.781,227081,),0,0,2
10:31.042,227175,(,0,0,0
10:31.094,227194,p,0,0,0
10:31.147,227213,),0,0,0
10:31.211,227236,(,0,0,1
10:31.258,227253,N,0,0,0
10:31.292,227265,),0,0,1
10:31.442,227319,(,0,0,2
10:31.517,227346,t,0,0,0
10:31.597,227375,),0,0,2
10:31.947,227501,(,0,0,0
10:32.006,227522,p,0,0,0
10:32.072,227546,),0,0,0
10:32.122,227564,(,0,0,1
10:32.178,227584,N,0,0,0
10:32.211,227596,),0,0,1
10:32.392,227661,(,0,0,2
10:32.453,227683,t,0,0,0
10:32.544,227716,),0,0,2
10:32.883,227838,(,0,0,0
10:32.931,227855,p,0,0,0
10:33.008,227883,),0,0,0
10:33.069,227905,(,0,0,1
10:33.125,227925,N,0,0,0
10:33.158,227937,),0,0,1
10:33.281,227981,(,0,0,2
10:33.403,228025,t,0,0,5
10:33.519,228067,t,0,0,5
10:33.578,228088,),0,0,2
10:33.864,228191,(,0,0,0
10:33.911,228208,p,0,0,0
10:34.011,228244,),0,0,0
10:34.050,228258,(,0,0,1
10:34.100,228276,N,0,0,0
10:34.133,228288,),0,0,1
10:34.797,228527,(,0,0,2
10:34.833,228540,t,0,0,0
10:34.908,228567,),0,0,2
10:35.772,228878,(,0,0,0
10:35.822,228896,p,0,0,0
10:35.878,228916,),0,0,0
10:35.936,228937,(,0,0,1
10:35.983,228954,N,0,0,0
10:36.014,228965,),0,0,1
10:36.144,229012,(,0,0,2
10:36.239,229046,t,0,0,0
10:36.342,229083,),0,0,2
10:36.644,229192,(,0,0,0
10:36.697,229211,p,0,0,0
10:36.736,229225,),0,0,0
10:36.808,229251,(,0,0,1
10:36.858,229269,N,0,0,0
10:36.989,229316,),0,0,1
10:37.008,229323,(,0,0,2
10:37.114,229361,t,0,0,0
10:37.189,229388,),0,0,2
10:37.539,229514,(,0,0,0
10:37.594,229534,p,0,0,0
10:37.644,229552,),0,0,0
10:37.714,229577,(,0,0,1
10:37.764,229595,N,0,0,0
10:37.797,229607,),0,0,1
10:37.947,229661,(,0,0,2
10:38.039,229694,t,0,0,0
10:38.131,229727,),0,0,2
10:38.492,229857,(,0,0,0
10:38.547,229877,p,0,0,0
10:38.614,229901,),0,0,0
10:38.672,229922,(,0,0,1
10:38.728,229942,N,0,0,0
10:38.761,229954,),0,0,1
10:38.883,229998,(,0,0,2
10:39.003,230041,t,0,0,0
10:39.094,230074,),0,0,2
10:39.464,230207,(,0,0,0
10:39.514,230225,p,0,0,0
10:39.556,230240,),0,0,0
10:39.636,230269,(,0,0,1
10:39.683,230286,N,0,0,0
10:39.717,230298,),0,0,1
10:39.858,230349,(,0,0,2
10:39.953,230383,t,0,0,0
10:40.036,230413,),0,0,2
10:40.383,230538,(,0,0,0
10:40.436,230557,p,0,0,0
10:40.494,230578,),0,0,0
10:40.564,230603,(,0,0,1
10:40.614,230621,N,0,0,0
10:40.647,230633,),0,0,1
10:40.783,230682,(,0,0,2
10:40.883,230718,t,0,0,0
10:40.969,230749,),0,0,2
10:41.306,230870,(,0,0,0
10:41.356,230888,p,0,0,0
10:41.408,230907,),0,0,0
10:41.475,230931,(,0,0,1
10:41.525,230949,N,0,0,0
10:41.556,230960,),0,0,1
10:41.689,231008,(,0,0,2
10:41.789,231044,t,0,0,0
10:41.864,231071,),0,0,2
10:42.181,231185,(,0,0,0
10:42.233,231204,p,0,0,0
10:42.286,231223,),0,0,0
10:42.347,231245,(,0,0,1
10:42.394,231262,N,0,0,0
10:42.425,231273,),0,0,1
10:42.544,231316,(,0,0,2
10:42.653,231355,t,0,0,0
10:42.736,231385,),0,0,2
10:43.056,231500,(,0,0,0
10:43.106,231518,p,0,0,0
10:43.156,231536,),0,0,0
10:43.217,231558,(,0,0,1
10:43.269,231577,N,0,0,0
10:43.300,231588,),0,0,1
10:43.411,231628,(,0,0,2
10:43.528,231670,t,0,0,0
10:43.617,231702,),0,0,2
10:43.947,231821,(,0,0,0
10:44.000,231840,p,0,0,0
10:44.053,231859,),0,0,0
10:44.117,231882,(,0,0,1
10:44.169,231901,N,0,0,0
10:44.203,231913,),0,0,1
10:44.339,231962,(,0,0,2
10:44.433,231996,t,0,0,0
10:44.517,232026,),0,0,2
10:44.864,232151,(,0,0,0
10:44.914,232169,p,0,0,0
10:44.981,232193,),0,0,0
10:45.039,232214,(,0,0,1
10:45.092,232233,N,0,0,0
10:45.125,232245,),0,0,1
10:45.731,232463,(,0,0,2
10:45.764,232475,t,0,0,5
10:45.814,232493,t,0,0,5
10:45.892,232521,),0,0,2
10:46.739,232826,(,0,0,0
10:46.789,232844,p,0,0,0
10:46.844,232864,),0,0,0
10:46.911,232888,(,0,0,1
10:46.961,232906,N,0,0,0
10:46.994,232918,),0,0,1
10:47.114,232961,(,0,0,2
10:47.239,233006,t,0,0,5
10:47.353,233047,t,0,0,5
10:47.408,233067,),0,0,2
10:47.683,233166,(,0,0,0
10:47.731,233183,p,0,0,0
10:47.775,233199,),0,0,0
10:47.839,233222,(,0,0,1
10:47.886,233239,N,0,0,0
10:47.917,233250,),0,0,1
10:48.036,233293,(,0,0,2
10:48.142,233331,t,0,0,0
10:48.217,233358,),0,0,2
10:48.547,233477,(,0,0,0
10:48.594,233494,p,0,0,0
10:48.650,233514,),0,0,0
10:48.706,233534,(,0,0,1
10:48.758,233553,N,0,0,0
10:48.792,233565,),0,0,1
10:48.900,233604,(,0,0,2
10:49.014,233645,t,0,0,0
10:49.092,233673,),0,0,2
10:49.406,233786,(,0,0,0
10:49.456,233804,p,0,0,0
10:49.511,233824,),0,0,0
10:49.572,233846,(,0,0,1
10:49.619,233863,N,0,0,0
10:49.650,233874,),0,0,1
10:49.800,233928,(,0,0,2
10:49.881,233957,t,0,0,0
10:49.961,233986,),0,0,2
10:50.306,234110,(,0,0,0
10:50.353,234127,p,0,0,0
10:50.406,234146,),0,0,0
10:50.469,234169,(,0,0,1
10:50.525,234189,N,0,0,0
10:50.558,234201,),0,0,1
10:50.672,234242,(,0,0,2
10:50.797,234287,t,0,0,0
10:50.892,234321,),0,0,2
10:51.242,234447,(,0,0,0
10:51.286,234463,p,0,0,0
10:51.339,234482,),0,0,0
10:51.403,234505,(,0,0,1
10:51.458,234525,N,0,0,0
10:51.489,234536,),0,0,1
10:51.625,234585,(,0,0,2
10:51.728,234622,t,0,0,0
10:51.817,234654,),0,0,2
10:52.181,234785,(,0,0,0
10:52.231,234803,p,0,0,0
10:52.286,234823,),0,0,0
10:52.353,234847,(,0,0,1
10:52.400,234864,N,0,0,0
10:52.433,234876,),0,0,1
10:52.553,234919,(,0,0,2
10:52.672,234962,t,0,0,0
10:52.753,234991,),0,0,2
10:53.144,235132,(,0,0,0
10:53.194,235150,p,0,0,0
10:53.247,235169,),0,0,0
10:53.308,235191,(,0,0,1
10:53.361,235210,N,0,0,0
10:53.392,235221,),0,0,1
10:53.506,235262,(,0,0,2
10:53.622,235304,t,0,0,0
10:53.706,235334,),0,0,2
10:54.042,235455,(,0,0,0
10:54.092,235473,p,0,0,0
10:54.144,235492,),0,0,0
10:54.208,235515,(,0,0,1
10:54.256,235532,N,0,0,0
10:54.286,235543,),0,0,1
10:54.392,235581,(,0,0,2
10:54.514,235625,t,0,0,0
10:54.592,235653,),0,0,2
10:54.942,235779,(,0,0,0
10:54.986,235795,p,0,0,0
10:55.044,235816,),0,0,0
10:55.097,235835,(,0,0,1
10:55.147,235853,N,0,0,0
10:55.178,235864,),0,0,1
10:55.275,235899,(,0,0,2
10:55.400,235944,t,0,0,0
10:55.478,235972,),0,0,2
10:55.836,236101,(,0,0,0
10:55.883,236118,p,0,0,0
10:55.939,236138,),0,0,0
10:56.006,236162,(,0,0,1
10:56.056,236180,N,0,0,0
10:56.086,236191,),0,0,1
10:56.211,236236,(,0,0,2
10:56.328,236278,t,0,0,0
10:56.408,236307,),0,0,2
10:56.794,236446,(,0,0,0
10:56.847,236465,p,0,0,0
10:56.900,236484,),0,0,0
10:56.981,236513,(,0,0,1
10:57.028,236530,N,0,0,0
10:57.119,236563,),0,0,1
10:57.247,236609,(,0,0,2
10:57.306,236630,t,0,0,0
10:57.378,236656,),0,0,2
10:57.767,236796,(,0,0,0
10:57.819,236815,p,0,0,0
10:57.875,236835,),0,0,0
10:57.947,236861,(,0,0,1
10:57.994,236878,N,0,0,0
10:58.028,236890,),0,0,1
10:58.144,236932,(,0,0,2
10:58.275,236979,t,0,0,0
10:58.361,237010,),0,0,2
10:58.722,237140,(,0,0,0
10:58.772,237158,p,0,0,0
10:58.825,237177,),0,0,0
10:58.881,237197,(,0,0,1
10:58.933,237216,N,0,0,0
10:58.964,237227,),0,0,1
10:59.083,237270,(,0,0,2
10:59.206,237314,t,0,0,0
10:59.283,237342,),0,0,2
10:59.644,237472,(,0,0,0
10:59.694,237490,p,0,0,0
10:59.750,237510,),0,0,0
10:59.806,237530,(,0,0,1
10:59.853,237547,N,0,0,0
10:59.886,237559,),0,0,1
10:59.986,237595,(,0,0,2
11:00.114,237641,t,0,0,0
11:00.189,237668,),0,0,2
11:00.542,237795,(,0,0,0
11:00.586,237811,p,0,0,0
11:00.639,237830,),0,0,0
11:00.694,237850,(,0,0,1
11:00.747,237869,N,0,0,0
11:00.775,237879,),0,0,1
11:00.878,237916,(,0,0,2
11:01.000,237960,t,0,0,0
11:01.083,237990,),0,0,2
11:01.431,238115,(,0,0,0
11:01.481,238133,p,0,0,0
11:01.533,238152,),0,0,0
11:01.594,238174,(,0,0,1
11:01.647,238193,N,0,0,0
11:01.678,238204,),0,0,1
11:02.258,238413,(,0,0,2
11:02.292,238425,t,0,0,5
11:02.361,238450,t,0,0,5
11:02.422,238472,),0,0,2
11:03.303,238789,(,0,0,0
11:03.358,238809,p,0,0,0
11:03.442,238839,),0,0,0
11:03.467,238848,(,0,0,1
11:03.531,238871,N,0,0,0
11:03.564,238883,),0,0,1
11:03.714,238937,(,0,0,2
11:03.831,238979,t,0,0,5
11:04.086,239071,t,0,0,5
11:04.161,239098,),0,0,2
11:04.211,239116,(,0,0,0
11:04.244,239128,p,0,0,0
11:04.364,239171,),0,0,0
11:04.428,239194,(,0,0,1
11:04.478,239212,N,0,0,0
11:04.508,239223,),0,0,1
11:04.583,239250,(,0,0,2
11:04.694,239290,t,0,0,0
11:04.822,239336,),0,0,2
11:05.181,239465,(,0,0,0
11:05.225,239481,p,0,0,0
11:05.281,239501,),0,0,0
11:05.350,239526,(,0,0,1
11:05.394,239542,N,0,0,0
11:05.519,239587,),0,0,1
11:05.553,239599,(,0,0,2
11:05.661,239638,t,0,0,5
11:05.839,239702,t,0,0,5
11:05.878,239716,),0,0,2
11:06.078,239788,(,0,0,0
11:06.133,239808,p,0,0,0
11:06.186,239827,),0,0,0
11:06.244,239848,(,0,0,1
11:06.294,239866,N,0,0,0
11:06.325,239877,),0,0,1
11:06.406,239906,(,0,0,2
11:06.550,239958,t,0,0,5
11:06.814,240053,t,0,0,5
11:06.844,240064,),0,0,2
11:06.950,240102,(,0,0,0
11:06.997,240119,p,0,0,0
11:07.047,240137,),0,0,0
11:07.111,240160,(,0,0,1
11:07.158,240177,N,0,0,0
11:07.189,240188,),0,0,1
11:07.317,240234,(,0,0,2
11:07.422,240272,t,0,0,0
11:07.486,240295,),0,0,2
11:07.822,240416,(,0,0,0
11:07.867,240432,p,0,0,0
11:07.919,240451,),0,0,0
11:07.978,240472,(,0,0,1
11:08.025,240489,N,0,0,0
11:08.056,240500,),0,0,1
11:08.208,240555,(,0,0,2
11:08.300,240588,t,0,0,0
11:08.400,240624,),0,0,2
11:09.583,241050,(,0,0,0
11:09.625,241065,p,0,0,0
11:09.661,241078,),0,0,0
11:09.803,241129,(,0,0,1
11:09.847,241145,N,0,0,0
11:09.978,241192,),0,0,1
11:10.208,241275,(,0,0,2
11:10.261,241294,t,0,0,4
11:10.322,241316,t,0,0,4
11:10.356,241328,),0,0,2
11:10.519,241387,(,0,0,0
11:10.569,241405,p,0,0,0
11:10.628,241426,),0,0,0
11:10.694,241450,(,0,0,1
11:10.744,241468,N,0,0,0
11:10.778,241480,),0,0,1
11:10.828,241498,(,0,0,2
11:10.892,241521,t,0,0,4
11:11.017,241566,t,0,0,4
11:11.092,241593,),0,0,2
11:11.419,241711,(,0,0,0
11:11.467,241728,p,0,0,0
11:11.522,241748,),0,0,0
11:11.586,241771,(,0,0,1
11:11.633,241788,N,0,0,0
11:11.664,241799,),0,0,1
11:11.783,241842,(,0,0,2
11:11.894,241882,t,0,0,0
11:11.969,241909,),0,0,2
11:12.278,242020,(,0,0,0
11:12.328,242038,p,0,0,0
11:12.372,242054,),0,0,0
11:12.431,242075,(,0,0,1
11:12.481,242093,N,0,0,0
11:12.511,242104,),0,0,1
11:12.639,242150,(,0,0,2
11:12.733,242184,t,0,0,0
11:12.814,242213,),0,0,2
11:13.119,242323,(,0,0,0
11:13.172,242342,p,0,0,0
11:13.233,242364,),0,0,0
11:13.283,242382,(,0,0,1
11:13.336,242401,N,0,0,0
11:13.369,242413,),0,0,1
11:13.483,242454,(,0,0,2
11:13.589,242492,t,0,0,5
11:13.661,242518,t,0,0,5
11:13.728,242542,),0,0,2
11:14.014,242645,(,0,0,0
11:14.058,242661,p,0,0,0
11:14.144,242692,),0,0,0
11:14.175,242703,(,0,0,1
11:14.231,242723,N,0,0,0
11:14.261,242734,),0,0,1
11:14.394,242782,(,0,0,2
11:14.494,242818,t,0,0,0
11:14.603,242857,),0,0,2
11:14.931,242975,(,0,0,0
11:14.981,242993,p,0,0,0
11:15.044,243016,),0,0,0
11:15.103,243037,(,0,0,1
11:15.158,243057,N,0,0,0
11:15.194,243070,),0,0,1
11:15.333,243120,(,0,0,2
11:15.450,243162,t,0,0,0
11:15.539,243194,),0,0,2
11:15.883,243318,(,0,0,0
11:15.942,243339,p,0,0,0
11:16.000,243360,),0,0,0
11:16.053,243379,(,0,0,1
11:16.108,243399,N,0,0,0
11:16.142,243411,),0,0,1
11:16.244,243448,(,0,0,2
11:16.378,243496,t,0,0,0
11:16.456,243524,),0,0,2
11:16.794,243646,(,0,0,0
11:16.844,243664,p,0,0,0
11:16.903,243685,),0,0,0
11:16.967,243708,(,0,0,1
11:17.017,243726,N,0,0,0
11:17.047,243737,),0,0,1
11:17.158,243777,(,0,0,2
11:17.272,243818,t,0,0,0
11:17.347,243845,),0,0,2
11:21.250,245250,(,0,0,0
11:21.303,245269,p,0,0,0
11:21.353,245287,),0,0,0
11:21.419,245311,(,0,0,1
11:21.472,245330,N,0,0,0
11:21.503,245341,),0,0,1
11:21.631,245387,(,0,0,2
11:21.742,245427,t,0,0,0
11:21.811,245452,),0,0,2
11:23.064,245903,(,0,0,0
11:23.117,245922,p,0,0,0
11:23.161,245938,),0,0,0
11:23.225,245961,(,0,0,1
11:23.275,245979,N,0,0,0
11:23.306,245990,),0,0,1
11:23.425,246033,(,0,0,2
11:23.539,246074,t,0,0,0
11:23.614,246101,),0,0,2
11:23.944,246220,(,0,0,0
11:23.992,246237,p,0,0,0
11:24.044,246256,),0,0,0
11:24.108,246279,(,0,0,1
11:24.156,246296,N,0,0,0
11:24.297,246347,),0,0,1
11:24.344,246364,(,0,0,2
11:24.414,246389,t,0,0,5
11:24.675,246483,t,0,0,5
11:24.872,246554,),0,0,2
11:25.722,246860,(,0,0,0
11:25.769,246877,p,0,0,0
11:25.825,246897,),0,0,0
11:25.889,246920,(,0,0,1
11:25.939,246938,N,0,0,0
11:25.969,246949,),0,0,1
11:26.081,246989,(,0,0,2
11:26.203,247033,t,0,0,0
11:26.281,247061,),0,0,2
11:28.547,247877,(,0,0,0
11:28.597,247895,p,0,0,0
11:28.653,247915,),0,0,0
11:28.717,247938,(,0,0,1
11:28.767,247956,N,0,0,0
11:28.939,248018,),0,0,1
11:28.950,248022,(,0,0,2
11:29.036,248053,t,0,0,5
11:29.417,248190,t,0,0,5
11:29.539,248234,),0,0,2
11:30.425,248553,(,0,0,0
11:30.475,248571,p,0,0,0
11:30.525,248589,),0,0,0
11:30.583,248610,(,0,0,1
11:30.633,248628,N,0,0,0
11:30.664,248639,),0,0,1
11:30.764,248675,(,0,0,2
11:30.883,248718,t,0,0,0
11:30.956,248744,),0,0,2
11:31.319,248875,(,0,0,0
11:31.367,248892,p,0,0,0
11:31.419,248911,),0,0,0
11:31.483,248934,(,0,0,1
11:31.531,248951,N,0,0,0
11:31.561,248962,),0,0,1
11:31.650,248994,(,0,0,2
11:31.783,249042,t,0,0,0
11:31.858,249069,),0,0,2
11:32.267,249216,(,0,0,0
11:32.322,249236,p,0,0,0
11:32.375,249255,),0,0,0
11:32.436,249277,(,0,0,1
11:32.492,249297,N,0,0,0
11:32.522,249308,),0,0,1
11:32.636,249349,(,0,0,2
11:32.764,249395,t,0,0,0
11:32.847,249425,),0,0,2
11:33.253,249571,(,0,0,0
11:33.303,249589,p,0,0,0
11:33.361,249610,),0,0,0
11:33.433,249636,(,0,0,1
11:33.486,249655,N,0,0,0
11:33.522,249668,),0,0,1
11:33.625,249705,(,0,0,2
11:33.769,249757,t,0,0,0
11:33.858,249789,),0,0,2
11:34.336,249961,(,0,0,0
11:34.381,249977,p,0,0,0
11:34.439,249998,),0,0,0
11:34.503,250021,(,0,0,1
11:34.556,250040,N,0,0,0
11:34.586,250051,),0,0,1
11:34.725,250101,(,0,0,2
11:34.833,250140,t,0,0,5
11:34.928,250174,t,0,0,5
11:34.981,250193,),0,0,2
11:35.283,250302,(,0,0,0
11:35.333,250320,p,0,0,0
11:35.381,250337,),0,0,0
11:35.450,250362,(,0,0,1
11:35.494,250378,N,0,0,0
11:35.525,250389,),0,0,1
11:35.647,250433,(,0,0,2
11:35.742,250467,t,0,0,0
11:35.819,250495,),0,0,2
11:36.239,250646,(,0,0,0
11:36.281,250661,p,0,0,0
11:36.328,250678,),0,0,0
11:36.389,250700,(,0,0,1
11:36.439,250718,N,0,0,0
11:36.469,250729,),0,0,1
11:36.547,250757,(,0,0,2
11:36.692,250809,t,0,0,0
11:36.767,250836,),0,0,2
11:37.181,250985,(,0,0,0
11:37.228,251002,p,0,0,0
11:37.275,251019,),0,0,0
11:37.342,251043,(,0,0,1
11:37.386,251059,N,0,0,0
11:37.417,251070,),0,0,1
11:37.539,251114,(,0,0,2
11:37.636,251149,t,0,0,0
11:37.719,251179,),0,0,2
11:38.197,251351,(,0,0,0
11:38.236,251365,p,0,0,0
11:38.306,251390,),0,0,0
11:38.372,251414,(,0,0,1
11:38.419,251431,N,0,0,0
11:38.453,251443,),0,0,1
11:38.567,251484,(,0,0,2
11:38.692,251529,t,0,0,0
11:38.781,251561,),0,0,2
11:39.217,251718,(,0,0,0
11:39.269,251737,p,0,0,0
11:39.328,251758,),0,0,0
11:39.411,251788,(,0,0,1
11:39.464,251807,N,0,0,0
11:39.497,251819,),0,0,1
11:39.617,251862,(,0,0,2
11:39.736,251905,t,0,0,0
11:39.819,251935,),0,0,2
11:40.269,252097,(,0,0,0
11:40.336,252121,p,0,0,0
11:40.392,252141,),0,0,0
11:40.461,252166,(,0,0,1
11:40.514,252185,N,0,0,0
11:40.544,252196,),0,0,1
11:40.675,252243,(,0,0,2
11:40.783,252282,t,0,0,0
11:40.872,252314,),0,0,2
11:41.308,252471,(,0,0,0
11:41.358,252489,p,0,0,0
11:41.422,252512,),0,0,0
11:41.478,252532,(,0,0,1
11:41.528,252550,N,0,0,0
11:41.561,252562,),0,0,1
11:41.667,252600,(,0,0,2
11:41.786,252643,t,0,0,0
11:41.869,252673,),0,0,2
11:42.325,252837,(,0,0,0
11:42.367,252852,p,0,0,0
11:42.428,252874,),0,0,0
11:42.489,252896,(,0,0,1
11:42.536,252913,N,0,0,0
11:42.569,252925,),0,0,1
11:42.681,252965,(,0,0,2
11:42.797,253007,t,0,0,5
11:42.900,253044,t,0,0,5
11:42.969,253069,),0,0,2
11:43.314,253193,(,0,0,0
11:43.375,253215,p,0,0,0
11:43.433,253236,),0,0,0
11:43.497,253259,(,0,0,1
11:43.544,253276,N,0,0,0
11:43.575,253287,),0,0,1
11:43.683,253326,(,0,0,2
11:43.806,253370,t,0,0,0
11:43.894,253402,),0,0,2
11:44.386,253579,(,0,0,0
11:44.433,253596,p,0,0,0
11:44.497,253619,),0,0,0
11:44.558,253641,(,0,0,1
11:44.611,253660,N,0,0,0
11:44.642,253671,),0,0,1
11:44.789,253724,(,0,0,2
11:44.881,253757,t,0,0,5
11:44.969,253789,t,0,0,5
11:45.039,253814,),0,0,2
11:45.444,253960,(,0,0,0
11:45.494,253978,p,0,0,0
11:45.558,254001,),0,0,0
11:45.625,254025,(,0,0,1
11:45.678,254044,N,0,0,0
11:45.708,254055,),0,0,1
11:45.842,254103,(,0,0,2
11:45.950,254142,t,0,0,0
11:46.028,254170,),0,0,2
11:46.533,254352,(,0,0,0
11:46.578,254368,p,0,0,0
11:46.639,254390,),0,0,0
11:46.706,254414,(,0,0,1
11:46.756,254432,N,0,0,0
11:46.789,254444,),0,0,1
11:46.922,254492,(,0,0,2
11:47.019,254527,t,0,0,0
11:47.111,254560,),0,0,2
11:47.561,254722,(,0,0,0
11:47.608,254739,p,0,0,0
11:47.669,254761,),0,0,0
11:47.733,254784,(,0,0,1
11:47.781,254801,N,0,0,0
11:47.811,254812,),0,0,1
11:47.908,254847,(,0,0,2
11:48.033,254892,t,0,0,0
11:48.111,254920,),0,0,2
11:48.611,255100,(,0,0,0
11:48.650,255114,p,0,0,0
11:48.711,255136,),0,0,0
11:48.772,255158,(,0,0,1
11:48.822,255176,N,0,0,0
11:48.853,255187,),0,0,1
11:48.969,255229,(,0,0,2
11:49.069,255265,t,0,0,0
11:49.153,255295,),0,0,2
11:49.617,255462,(,0,0,0
11:49.653,255475,p,0,0,0
11:49.717,255498,),0,0,0
11:49.781,255521,(,0,0,1
11:49.833,255540,N,0,0,0
11:49.864,255551,),0,0,1
11:49.967,255588,(,0,0,2
11:50.086,255631,t,0,0,0
11:50.167,255660,),0,0,2
11:50.672,255842,(,0,0,0
11:50.719,255859,p,0,0,0
11:50.775,255879,),0,0,0
11:50.853,255907,(,0,0,1
11:50.906,255926,N,0,0,0
11:50.936,255937,),0,0,1
11:51.053,255979,(,0,0,2
11:51.183,256026,t,0,0,0
11:51.269,256057,),0,0,2
11:51.786,256243,(,0,0,0
11:51.828,256258,p,0,0,0
11:51.903,256285,),0,0,0
11:51.972,256310,(,0,0,1
11:52.025,256329,N,0,0,0
11:52.056,256340,),0,0,1
11:52.189,256388,(,0,0,2
11:52.292,256425,t,0,0,0
11:52.381,256457,),0,0,2
11:52.875,256635,(,0,0,0
11:52.936,256657,p,0,0,0
11:53.003,256681,),0,0,0
11:53.067,256704,(,0,0,1
11:53.117,256722,N,0,0,0
11:53.147,256733,),0,0,1
11:53.261,256774,(,0,0,2
11:53.375,256815,t,0,0,0
11:53.464,256847,),0,0,2
11:53.933,257016,(,0,0,0
11:53.978,257032,p,0,0,0
11:54.033,257052,),0,0,0
11:54.100,257076,(,0,0,1
11:54.147,257093,N,0,0,0
11:54.178,257104,),0,0,1
11:54.311,257152,(,0,0,2
11:54.400,257184,t,0,0,0
11:54.489,257216,),0,0,2
11:54.956,257384,(,0,0,0
11:55.006,257402,p,0,0,0
11:55.061,257422,),0,0,0
11:55.125,257445,(,0,0,1
11:55.175,257463,N,0,0,0
11:55.208,257475,),0,0,1
11:55.319,257515,(,0,0,2
11:55.433,257556,t,0,0,0
11:55.519,257587,),0,0,2
11:56.008,257763,(,0,0,0
11:56.056,257780,p,0,0,0
11:56.122,257804,),0,0,0
11:56.181,257825,(,0,0,1
11:56.236,257845,N,0,0,0
11:56.267,257856,),0,0,1
11:56.400,257904,(,0,0,2
11:56.511,257944,t,0,0,0
11:56.600,257976,),0,0,2
11:57.122,258164,(,0,0,0
11:57.172,258182,p,0,0,0
11:57.236,258205,),0,0,0
11:57.303,258229,(,0,0,1
11:57.356,258248,N,0,0,0
11:57.389,258260,),0,0,1
11:57.522,258308,(,0,0,2
11:57.639,258350,t,0,0,0
11:57.725,258381,),0,0,2
11:58.258,258573,(,0,0,0
11:58.297,258587,p,0,0,0
11:58.367,258612,),0,0,0
11:58.428,258634,(,0,0,1
11:58.483,258654,N,0,0,0
11:58.514,258665,),0,0,1
11:58.639,258710,(,0,0,2
11:58.756,258752,t,0,0,0
11:58.842,258783,),0,0,2
11:59.333,258960,(,0,0,0
11:59.378,258976,p,0,0,0
11:59.444,259000,),0,0,0
11:59.503,259021,(,0,0,1
11:59.550,259038,N,0,0,0
11:59.581,259049,),0,0,1
11:59.700,259092,(,0,0,2
11:59.800,259128,t,0,0,0
11:59.881,259157,),0,0,2
12:00.383,259338,(,0,0,0
12:00.425,259353,p,0,0,0
12:00.492,259377,),0,0,0
12:00.553,259399,(,0,0,1
12:00.600,259416,N,0,0,0
12:00.631,259427,),0,0,1
12:00.761,259474,(,0,0,2
12:00.864,259511,t,0,0,0
12:00.947,259541,),0,0,2
12:01.419,259711,(,0,0,0
12:01.467,259728,p,0,0,0
12:01.536,259753,),0,0,0
12:01.594,259774,(,0,0,1
12:01.644,259792,N,0,0,0
12:01.675,259803,),0,0,1
12:01.792,259845,(,0,0,2
12:01.906,259886,t,0,0,0
12:01.992,259917,),0,0,2
12:03.633,260508,(,0,0,0
12:03.675,260523,p,0,0,0
12:03.736,260545,),0,0,0
12:03.800,260568,(,0,0,1
12:03.853,260587,N,0,0,0
12:03.886,260599,),0,0,1
12:04.000,260640,(,0,0,2
12:04.125,260685,t,0,0,0
12:04.217,260718,),0,0,2
12:05.803,261289,(,0,0,0
12:05.842,261303,p,0,0,0
12:05.897,261323,),0,0,0
12:05.961,261346,(,0,0,1
12:06.014,261365,N,0,0,0
12:06.044,261376,),0,0,1
12:06.167,261420,(,0,0,2
12:06.275,261459,t,0,0,0
12:06.367,261492,),0,0,2
12:06.847,261665,(,0,0,0
12:06.903,261685,p,0,0,0
12:06.961,261706,),0,0,0
12:07.022,261728,(,0,0,1
12:07.069,261745,N,0,0,0
12:07.100,261756,),0,0,1
12:07.222,261800,(,0,0,2
12:07.319,261835,t,0,0,0
12:07.400,261864,),0,0,2
12:07.908,262047,(,0,0,0
12:07.956,262064,p,0,0,0
12:08.014,262085,),0,0,0
12:08.083,262110,(,0,0,1
12:08.133,262128,N,0,0,0
12:08.164,262139,),0,0,1
12:08.294,262186,(,0,0,2
12:08.394,262222,t,0,0,0
12:08.483,262254,),0,0,2
12:08.992,262437,(,0,0,0
12:09.033,262452,p,0,0,0
12:09.108,262479,),0,0,0
12:09.175,262503,(,0,0,1
12:09.225,262521,N,0,0,0
12:09.256,262532,),0,0,1
12:09.378,262576,(,0,0,2
12:09.503,262621,t,0,0,0
12:09.589,262652,),0,0,2
12:11.214,263237,(,0,0,0
12:11.258,263253,p,0,0,0
12:11.333,263280,),0,0,0
12:11.389,263300,(,0,0,1
12:11.439,263318,N,0,0,0
12:11.469,263329,),0,0,1
12:11.586,263371,(,0,0,2
12:11.692,263409,t,0,0,5
12:11.789,263444,t,0,0,5
12:11.864,263471,),0,0,2
12:12.239,263606,(,0,0,0
12:12.283,263622,p,0,0,0
12:12.350,263646,),0,0,0
12:12.408,263667,(,0,0,1
12:12.461,263686,N,0,0,0
12:12.492,263697,),0,0,1
12:12.636,263749,(,0,0,2
12:12.714,263777,t,0,0,0
12:12.806,263810,),0,0,2
12:13.250,263970,(,0,0,0
12:13.303,263989,p,0,0,0
12:13.361,264010,),0,0,0
12:13.433,264036,(,0,0,1
12:13.481,264053,N,0,0,0
12:13.511,264064,),0,0,1
12:13.625,264105,(,0,0,2
12:13.733,264144,t,0,0,0
12:13.819,264175,),0,0,2
12:14.308,264351,(,0,0,0
12:14.358,264369,p,0,0,0
12:14.411,264388,),0,0,0
12:14.489,264416,(,0,0,1
12:14.544,264436,N,0,0,0
12:14.578,264448,),0,0,1
12:14.700,264492,(,0,0,2
12:14.822,264536,t,0,0,0
12:14.911,264568,),0,0,2
12:15.414,264749,(,0,0,0
12:15.472,264770,p,0,0,0
12:15.544,264796,),0,0,0
12:15.608,264819,(,0,0,1
12:15.661,264838,N,0,0,0
12:15.692,264849,),0,0,1
12:15.750,264870,t,0,0,2
12:15.933,264936,),0,0,2
12:15.958,264945,(,0,0,0
12:16.031,264971,p,0,0,0
12:16.067,264984,),0,0,0
12:16.097,264995,(,0,0,1
12:16.156,265016,N,0,0,0
12:16.256,265052,),0,0,1
12:16.286,265063,(,0,0,2
12:16.314,265073,t,0,0,1
12:16.417,265110,),0,0,2
12:16.511,265144,(,0,0,1
12:16.550,265158,N,0,0,0
12:16.592,265173,),0,0,1
12:16.642,265191,(,0,0,2
12:16.772,265238,t,0,0,4
12:17.125,265365,t,0,0,4
12:17.147,265373,),0,0,2
12:18.281,265781,(,0,0,0
12:18.308,265791,p,0,0,0
12:18.350,265806,),0,0,0
12:18.372,265814,(,0,0,1
12:18.419,265831,N,0,0,0
12:18.453,265843,),0,0,1
12:19.214,266117,(,0,0,0
12:19.261,266134,p,0,0,0
12:19.311,266152,),0,0,0
12:19.383,266178,(,0,0,1
12:19.433,266196,N,0,0,0
12:19.467,266208,),0,0,1
12:19.583,266250,(,0,0,2
12:19.683,266286,t,0,0,5
12:19.797,266327,t,0,0,5
12:19.853,266347,),0,0,2
12:20.242,266487,(,0,0,0
12:20.300,266508,p,0,0,0
12:20.358,266529,),0,0,0
12:20.428,266554,(,0,0,1
12:20.483,266574,N,0,0,0
12:20.517,266586,),0,0,1
12:20.669,266641,(,0,0,2
12:20.747,266669,t,0,0,5
12:21.106,266798,t,0,0,5
12:21.206,266834,),0,0,2
12:36.794,272446,(,0,0,0
12:36.850,272466,p,0,0,0
12:36.908,272487,),0,0,0
12:36.969,272509,(,0,0,1
12:37.025,272529,N,0,0,0
12:37.058,272541,),0,0,1
12:37.186,272587,(,0,0,2
12:37.278,272620,t,0,0,0
12:37.356,272648,),0,0,2
12:51.483,277734,(,0,0,0
12:51.539,277754,p,0,0,0
12:51.589,277772,),0,0,0
12:51.675,277803,(,0,0,1
12:51.731,277823,N,0,0,0
12:51.764,277835,),0,0,1
12:51.900,277884,(,0,0,2
12:52.003,277921,t,0,0,0
12:52.100,277956,),0,0,2
12:54.383,278778,(,0,0,0
12:54.425,278793,p,0,0,0
12:54.489,278816,),0,0,0
12:54.544,278836,(,0,0,1
12:54.592,278853,N,0,0,0
12:54.622,278864,),0,0,1
12:54.725,278901,(,0,0,2
12:54.861,278950,t,0,0,5
12:54.947,278981,t,0,0,5
12:55.022,279008,),0,0,2
12:56.575,279567,(,0,0,0
12:56.614,279581,p,0,0,0
12:56.686,279607,),0,0,0
12:56.758,279633,(,0,0,1
12:56.811,279652,N,0,0,0
12:56.842,279663,),0,0,1
12:56.928,279694,(,0,0,2
12:57.081,279749,t,0,0,0
12:57.172,279782,),0,0,2
12:57.708,279975,(,0,0,0
12:57.747,279989,p,0,0,0
12:57.814,280013,),0,0,0
12:57.886,280039,(,0,0,1
12:57.939,280058,N,0,0,0
12:57.972,280070,),0,0,1
12:58.094,280114,(,0,0,2
12:58.206,280154,t,0,0,0
12:58.289,280184,),0,0,2
12:59.247,280529,(,0,0,0
12:59.314,280553,p,0,0,0
12:59.383,280578,),0,0,0
12:59.492,280617,(,0,0,1
12:59.539,280634,N,0,0,0
12:59.569,280645,),0,0,1
12:59.689,280688,(,0,0,2
12:59.778,280720,t,0,0,0
12:59.853,280747,),0,0,2
13:01.658,281397,(,0,0,0
13:01.700,281412,p,0,0,0
13:01.769,281437,),0,0,0
13:01.836,281461,(,0,0,1
13:01.889,281480,N,0,0,0
13:01.922,281492,),0,0,1
13:02.044,281536,(,0,0,2
13:02.153,281575,t,0,0,0
13:02.242,281607,),0,0,2
13:09.628,284266,(,0,0,0
13:09.686,284287,p,0,0,0
13:09.750,284310,),0,0,0
13:09.825,284337,(,0,0,1
13:09.878,284356,N,0,0,0
13:09.911,284368,),0,0,1
13:10.022,284408,(,0,0,2
13:10.156,284456,t,0,0,0
13:10.250,284490,),0,0,2
13:11.800,285048,(,0,0,0
13:11.853,285067,p,0,0,0
13:11.925,285093,),0,0,0
13:11.978,285112,(,0,0,1
13:12.025,285129,N,0,0,0
13:12.058,285141,),0,0,1
13:12.175,285183,(,0,0,2
13:12.278,285220,t,0,0,5
13:12.767,285396,t,0,0,5
13:12.867,285432,),0,0,2
13:30.628,291826,(,0,0,0
13:30.678,291844,p,0,0,0
13:30.736,291865,),0,0,0
13:30.800,291888,(,0,0,1
13:30.853,291907,N,0,0,0
13:30.883,291918,),0,0,1
13:31.003,291961,(,0,0,2
13:31.100,291996,t,0,0,0
13:31.186,292027,),0,0,2
13:32.772,292598,(,0,0,0
13:32.825,292617,p,0,0,0
13:32.881,292637,),0,0,0
13:32.958,292665,(,0,0,1
13:33.014,292685,N,0,0,0
13:33.050,292698,),0,0,1
13:33.214,292757,(,0,0,2
13:33.297,292787,t,0,0,5
13:33.389,292820,t,0,0,5
13:33.561,292882,),0,0,2
13:34.992,293397,(,0,0,0
13:35.042,293415,p,0,0,0
13:35.092,293433,),0,0,0
13:35.161,293458,(,0,0,1
13:35.214,293477,N,0,0,0
13:35.247,293489,),0,0,1
13:35.683,293646,(,0,0,2
13:35.750,293670,t,0,0,1
13:35.853,293707,),0,0,2
13:36.033,293772,(,0,0,1
13:36.256,293852,N,0,0,0
13:36.325,293877,),0,0,1
13:36.442,293919,(,0,0,2
13:36.508,293943,t,0,0,5
13:36.631,293987,t,0,0,5
13:36.661,293998,),0,0,2
13:37.058,294141,(,0,0,0
13:37.108,294159,p,0,0,0
13:37.156,294176,),0,0,0
13:37.225,294201,(,0,0,1
13:37.278,294220,N,0,0,0
13:37.314,294233,),0,0,1
13:37.453,294283,(,0,0,2
13:37.544,294316,t,0,0,0
13:37.642,294351,),0,0,2
13:40.372,295334,(,0,0,0
13:40.414,295349,p,0,0,0
13:40.489,295376,),0,0,0
13:40.547,295397,(,0,0,1
13:40.600,295416,N,0,0,0
13:40.633,295428,),0,0,1
13:40.739,295466,(,0,0,2
13:40.869,295513,t,0,0,0
13:40.967,295548,),0,0,2
13:41.447,295721,(,0,0,0
13:41.500,295740,p,0,0,0
13:41.561,295762,),0,0,0
13:41.633,295788,(,0,0,1
