Elapsedtime,sample,Type,Sub,Chan,Num
0:00.900,324,(,0,0,0
0:00.947,341,p,0,0,0
0:01.017,366,),0,0,0
0:01.117,402,(,0,0,1
0:01.192,429,N,0,0,0
0:01.339,482,),0,0,1
0:01.342,483,t,0,0,2
0:01.433,516,),0,0,2
0:01.614,581,(,0,0,0
0:01.636,589,p,0,0,0
0:01.661,598,),0,0,0
0:01.725,621,(,0,0,1
0:01.831,659,N,0,0,0
0:01.967,708,),0,0,1
0:02.008,723,(,0,0,2
0:02.069,745,t,0,0,5
0:02.144,772,t,0,0,5
0:02.183,786,),0,0,2
0:02.217,798,(,0,0,0
0:02.247,809,p,0,0,0
0:02.292,825,),0,0,0
0:02.322,836,(,0,0,1
0:02.392,861,N,0,0,0
0:02.536,913,),0,0,1
0:02.556,920,(,0,0,2
0:02.622,944,t,0,0,0
0:02.656,956,),0,0,2
0:02.706,974,(,0,0,1
0:02.781,1001,N,0,0,0
0:02.931,1055,),0,0,1
0:03.014,1085,(,0,0,2
0:03.044,1096,t,0,0,1
0:03.064,1103,),0,0,2
0:03.289,1184,(,0,0,0
0:03.328,1198,p,0,0,0
0:03.367,1212,),0,0,0
0:03.458,1245,(,0,0,1
0:03.525,1269,N,0,0,0
0:03.631,1307,),0,0,1
0:03.700,1332,(,0,0,2
0:03.817,1374,t,0,0,0
0:03.914,1409,),0,0,2
0:03.931,1415,(,0,0,0
0:03.964,1427,p,0,0,0
0:03.997,1439,),0,0,0
0:04.025,1449,(,0,0,1
0:04.117,1482,N,0,0,0
0:04.183,1506,),0,0,1
0:04.233,1524,(,0,0,2
0:04.400,1584,t,0,0,0
0:04.503,1621,),0,0,2
0:04.600,1656,(,0,0,0
0:04.633,1668,p,0,0,0
0:04.678,1684,),0,0,0
0:04.697,1691,(,0,0,1
0:04.769,1717,N,0,0,0
0:04.839,1742,),0,0,1
0:04.900,1764,(,0,0,2
0:05.019,1807,t,0,0,0
0:05.047,1817,),0,0,2
0:05.092,1833,(,0,0,1
0:05.203,1873,N,0,0,0
0:05.258,1893,),0,0,1
0:05.358,1929,(,0,0,2
0:05.381,1937,t,0,0,5
0:05.511,1984,t,0,0,5
0:05.553,1999,),0,0,2
0:05.561,2002,(,0,0,0
0:05.614,2021,p,0,0,0
0:05.644,2032,),0,0,0
0:05.683,2046,(,0,0,1
0:05.833,2100,N,0,0,0
0:05.939,2138,),0,0,1
0:06.017,2166,(,0,0,2
0:06.147,2213,t,0,0,0
0:06.247,2249,),0,0,2
0:06.372,2294,(,0,0,0
0:06.444,2320,p,0,0,0
0:06.508,2343,),0,0,0
0:06.536,2353,(,0,0,1
0:06.575,2367,N,0,0,0
0:06.625,2385,),0,0,1
0:06.792,2445,(,0,0,2
0:06.875,2475,t,0,0,1
0:06.986,2515,),0,0,2
0:07.125,2565,(,0,0,0
0:07.147,2573,p,0,0,0
0:07.181,2585,),0,0,0
0:07.283,2622,(,0,0,1
0:07.383,2658,N,0,0,0
0:07.497,2699,),0,0,1
0:07.533,2712,(,0,0,0
0:07.606,2738,p,0,0,0
0:07.642,2751,),0,0,0
0:07.689,2768,(,0,0,1
0:07.753,2791,N,0,0,0
0:07.806,2810,),0,0,1
0:07.981,2873,(,0,0,2
0:08.039,2894,t,0,0,1
0:08.139,2930,),0,0,2
0:08.472,3050,(,0,0,0
0:08.494,3058,p,0,0,0
0:08.528,3070,),0,0,0
0:08.578,3088,(,0,0,1
0:08.683,3126,N,0,0,0
0:08.828,3178,),0,0,1
0:08.878,3196,(,0,0,2
0:08.978,3232,t,0,0,0
0:09.022,3248,),0,0,2
0:09.086,3271,(,0,0,0
0:09.114,3281,p,0,0,0
0:09.136,3289,),0,0,0
0:09.189,3308,(,0,0,1
0:09.256,3332,N,0,0,0
0:09.322,3356,(,0,0,0
0:09.386,3379,p,0,0,0
0:09.417,3390,),0,0,1
0:09.439,3398,),0,0,0
0:09.542,3435,(,0,0,1
0:09.614,3461,N,0,0,0
0:09.769,3517,),0,0,1
0:09.775,3519,(,0,0,2
0:09.822,3536,t,0,0,5
0:09.897,3563,t,0,0,5
0:09.931,3575,),0,0,2
0:10.247,3689,(,0,0,1
0:10.311,3712,N,0,0,0
0:10.356,3728,),0,0,1
0:10.475,3771,(,0,0,2
0:10.600,3816,t,0,0,0
0:10.700,3852,),0,0,2
0:10.819,3895,(,0,0,0
0:10.906,3926,p,0,0,0
0:10.978,3952,),0,0,0
0:11.028,3970,(,0,0,1
0:11.086,3991,N,0,0,0
0:11.228,4042,),0,0,1
0:11.256,4052,(,0,0,2
0:11.314,4073,t,0,0,0
0:11.350,4086,),0,0,2
0:11.494,4138,(,0,0,0
0:11.528,4150,p,0,0,0
0:11.556,4160,),0,0,0
0:11.689,4208,(,0,0,1
0:11.764,4235,N,0,0,0
0:11.939,4298,),0,0,1
0:12.053,4339,(,0,0,2
0:12.142,4371,t,0,0,0
0:12.222,4400,),0,0,2
0:12.319,4435,(,0,0,0
0:12.369,4453,p,0,0,0
0:12.439,4478,),0,0,0
0:12.508,4503,(,0,0,1
0:12.611,4540,N,0,0,0
0:12.644,4552,),0,0,1
0:12.694,4570,(,0,0,2
0:12.739,4586,t,0,0,1
0:12.847,4625,),0,0,2
0:12.983,4674,(,0,0,1
0:13.117,4722,N,0,0,0
0:13.208,4755,(,0,0,0
0:13.272,4778,),0,0,1
0:13.278,4780,p,0,0,0
0:13.342,4803,),0,0,0
0:13.428,4834,(,0,0,1
0:13.494,4858,N,0,0,0
0:13.606,4898,),0,0,1
0:13.633,4908,(,0,0,2
0:13.689,4928,t,0,0,5
0:13.853,4987,t,0,0,5
0:13.900,5004,),0,0,2
0:14.022,5048,(,0,0,1
0:14.114,5081,N,0,0,0
0:14.156,5096,),0,0,1
0:14.206,5114,t,0,0,2
0:14.328,5158,),0,0,2
0:14.517,5226,(,0,0,1
0:14.572,5246,N,0,0,0
0:14.611,5260,),0,0,1
0:14.686,5287,(,0,0,2
0:14.772,5318,t,0,0,0
0:14.819,5335,),0,0,2
0:14.892,5361,(,0,0,0
0:14.928,5374,p,0,0,0
0:15.006,5402,),0,0,0
0:15.025,5409,(,0,0,1
0:15.092,5433,N,0,0,0
0:15.133,5448,),0,0,1
0:15.244,5488,(,0,0,2
0:15.342,5523,t,0,0,0
0:15.400,5544,),0,0,2
0:15.464,5567,(,0,0,0
0:15.500,5580,p,0,0,0
0:15.550,5598,),0,0,0
0:15.614,5621,(,0,0,1
0:15.689,5648,N,0,0,0
0:15.731,5663,),0,0,1
0:15.839,5702,(,0,0,2
0:15.908,5727,t,0,0,0
0:15.950,5742,),0,0,2
0:16.022,5768,(,0,0,1
0:16.089,5792,N,0,0,0
0:16.283,5862,),0,0,1
0:16.339,5882,(,0,0,2
0:16.367,5892,t,0,0,5
0:16.469,5929,t,0,0,5
0:16.494,5938,),0,0,2
0:16.650,5994,(,0,0,1
0:16.747,6029,N,0,0,0
0:16.789,6044,),0,0,1
0:16.875,6075,t,0,0,2
0:16.989,6116,),0,0,2
0:17.164,6179,(,0,0,1
0:17.217,6198,N,0,0,0
0:17.361,6250,),0,0,1
0:17.386,6259,(,0,0,2
0:17.436,6277,t,0,0,0
0:17.506,6302,),0,0,2
0:17.517,6306,(,0,0,0
0:17.594,6334,p,0,0,0
0:17.672,6362,),0,0,0
0:17.775,6399,(,0,0,1
0:17.867,6432,N,0,0,0
0:18.031,6491,),0,0,1
0:18.033,6492,t,0,0,2
0:18.108,6519,),0,0,2
0:18.358,6609,(,0,0,0
0:18.389,6620,p,0,0,0
0:18.428,6634,),0,0,0
0:18.578,6688,(,0,0,1
0:18.636,6709,N,0,0,0
0:18.772,6758,),0,0,1
0:18.808,6771,(,0,0,2
0:18.897,6803,t,0,0,0
0:19.003,6841,),0,0,2
0:19.219,6919,(,0,0,1
0:19.283,6942,N,0,0,0
0:19.331,6959,),0,0,1
0:19.417,6990,(,0,0,2
0:19.506,7022,t,0,0,0
0:19.639,7070,),0,0,2
0:19.794,7126,(,0,0,0
0:19.856,7148,p,0,0,0
0:19.889,7160,),0,0,0
0:20.136,7249,(,0,0,1
0:20.214,7277,N,0,0,0
0:20.256,7292,),0,0,1
0:20.331,7319,(,0,0,2
0:20.439,7358,t,0,0,0
0:20.472,7370,),0,0,2
0:21.011,7564,(,0,0,1
0:21.072,7586,N,0,0,0
0:21.117,7602,),0,0,1
0:21.200,7632,(,0,0,2
0:21.300,7668,t,0,0,0
0:21.394,7702,),0,0,2
0:21.461,7726,(,0,0,1
0:21.525,7749,N,0,0,0
0:21.564,7763,),0,0,1
0:21.653,7795,(,0,0,2
0:21.733,7824,t,0,0,0
0:21.783,7842,),0,0,2
0:21.828,7858,(,0,0,1
0:21.892,7881,N,0,0,0
0:22.086,7951,),0,0,1
0:22.578,8128,(,0,0,1
0:22.644,8152,N,0,0,0
0:22.692,8169,),0,0,1
0:22.794,8206,t,0,0,2
0:22.881,8237,),0,0,2
0:23.006,8282,(,0,0,1
0:23.086,8311,N,0,0,0
0:23.244,8368,),0,0,1
0:23.650,8514,(,0,0,1
0:23.719,8539,N,0,0,0
0:23.769,8557,),0,0,1
0:23.842,8583,t,0,0,2
0:23.964,8627,),0,0,2
0:24.583,8850,(,0,0,1
0:24.650,8874,N,0,0,0
0:24.828,8938,),0,0,1
0:24.853,8947,(,0,0,2
0:24.947,8981,t,0,0,0
0:25.014,9005,),0,0,2
0:25.206,9074,(,0,0,1
0:25.311,9112,N,0,0,0
0:25.464,9167,),0,0,1
0:25.469,9169,(,0,0,2
0:25.556,9200,t,0,0,0
0:25.631,9227,),0,0,2
0:25.750,9270,(,0,0,1
0:25.811,9292,N,0,0,0
0:25.861,9310,),0,0,1
0:25.956,9344,(,0,0,2
0:26.039,9374,t,0,0,0
0:26.086,9391,),0,0,2
0:26.119,9403,(,0,0,1
0:26.197,9431,N,0,0,0
0:26.242,9447,),0,0,1
0:26.339,9482,(,0,0,2
0:26.422,9512,t,0,0,0
0:26.467,9528,),0,0,2
0:26.800,9648,(,0,0,1
0:26.861,9670,N,0,0,0
0:26.908,9687,),0,0,1
0:27.000,9720,(,0,0,2
0:27.092,9753,t,0,0,0
0:27.128,9766,),0,0,2
0:27.389,9860,(,0,0,0
0:27.442,9879,p,0,0,0
0:27.489,9896,),0,0,0
0:27.581,9929,(,0,0,1
0:27.639,9950,N,0,0,0
0:27.769,9997,),0,0,1
0:27.811,10012,(,0,0,2
0:27.908,10047,t,0,0,0
0:28.017,10086,),0,0,2
0:28.178,10144,(,0,0,1
0:28.239,10166,N,0,0,0
0:28.283,10182,),0,0,1
0:28.392,10221,(,0,0,2
0:28.467,10248,t,0,0,0
0:28.575,10287,),0,0,2
0:29.092,10473,(,0,0,1
0:29.153,10495,N,0,0,0
0:29.197,10511,),0,0,1
0:29.306,10550,t,0,0,2
0:29.392,10581,),0,0,2
0:29.572,10646,(,0,0,0
0:29.622,10664,p,0,0,0
0:29.692,10689,),0,0,0
0:29.714,10697,(,0,0,1
0:29.803,10729,N,0,0,0
0:29.839,10742,(,0,0,0
0:29.883,10758,p,0,0,0
0:29.911,10768,),0,0,1
0:29.917,10770,),0,0,0
0:30.014,10805,(,0,0,1
0:30.078,10828,N,0,0,0
0:30.244,10888,),0,0,1
0:30.269,10897,(,0,0,2
0:30.303,10909,t,0,0,5
0:30.525,10989,t,0,0,5
0:30.567,11004,),0,0,2
0:30.686,11047,(,0,0,1
0:30.775,11079,N,0,0,0
0:30.819,11095,),0,0,1
0:30.936,11137,(,0,0,2
0:31.019,11167,t,0,0,0
0:31.081,11189,),0,0,2
0:31.397,11303,(,0,0,1
0:31.500,11340,N,0,0,0
0:31.550,11358,),0,0,1
0:31.675,11403,(,0,0,2
0:31.758,11433,t,0,0,0
0:31.847,11465,),0,0,2
0:32.303,11629,(,0,0,1
0:32.364,11651,N,0,0,0
0:32.408,11667,),0,0,1
0:32.539,11714,(,0,0,2
0:32.603,11737,t,0,0,0
0:32.728,11782,),0,0,2
0:32.769,11797,(,0,0,0
0:32.811,11812,p,0,0,0
0:32.853,11827,),0,0,0
0:32.872,11834,(,0,0,1
0:32.933,11856,N,0,0,0
0:33.081,11909,),0,0,1
0:33.100,11916,(,0,0,2
0:33.161,11938,t,0,0,0
0:33.253,11971,),0,0,2
0:33.289,11984,(,0,0,1
0:33.378,12016,N,0,0,0
0:33.528,12070,),0,0,1
0:33.556,12080,(,0,0,2
0:33.589,12092,t,0,0,0
0:33.631,12107,),0,0,2
0:33.825,12177,(,0,0,0
0:33.875,12195,p,0,0,0
0:33.931,12215,),0,0,0
0:34.028,12250,(,0,0,1
0:34.097,12275,N,0,0,0
0:34.144,12292,),0,0,1
0:34.275,12339,(,0,0,2
0:34.375,12375,t,0,0,0
0:34.467,12408,),0,0,2
0:34.625,12465,(,0,0,0
0:34.653,12475,p,0,0,0
0:34.697,12491,),0,0,0
0:34.733,12504,(,0,0,1
0:34.792,12525,N,0,0,0
0:34.833,12540,),0,0,1
0:34.936,12577,(,0,0,2
0:35.011,12604,t,0,0,0
0:35.053,12619,),0,0,2
0:35.100,12636,(,0,0,0
0:35.172,12662,p,0,0,0
0:35.200,12672,),0,0,0
0:35.367,12732,(,0,0,1
0:35.428,12754,N,0,0,0
0:35.469,12769,),0,0,1
0:35.603,12817,(,0,0,2
0:35.661,12838,t,0,0,0
0:35.781,12881,),0,0,2
0:35.983,12954,(,0,0,1
0:36.083,12990,N,0,0,0
0:36.178,13024,),0,0,1
0:36.275,13059,(,0,0,2
0:36.347,13085,t,0,0,0
0:36.378,13096,),0,0,2
0:36.417,13110,(,0,0,0
0:36.467,13128,p,0,0,0
0:36.508,13143,),0,0,0
0:36.592,13173,(,0,0,1
0:36.656,13196,N,0,0,0
0:36.708,13215,),0,0,1
0:36.797,13247,(,0,0,2
0:36.903,13285,t,0,0,0
0:36.967,13308,),0,0,2
0:37.289,13424,(,0,0,0
0:37.331,13439,p,0,0,0
0:37.369,13453,),0,0,0
0:37.514,13505,(,0,0,1
0:37.608,13539,N,0,0,0
0:37.653,13555,),0,0,1
0:37.797,13607,(,0,0,2
0:37.922,13652,t,0,0,0
0:38.000,13680,),0,0,2
0:38.019,13687,(,0,0,0
0:38.058,13701,p,0,0,0
0:38.133,13728,),0,0,0
0:38.203,13753,(,0,0,1
0:38.267,13776,N,0,0,0
0:38.314,13793,),0,0,1
0:38.417,13830,(,0,0,2
0:38.492,13857,t,0,0,0
0:38.581,13889,),0,0,2
0:38.856,13988,(,0,0,1
0:38.928,14014,N,0,0,0
0:39.061,14062,),0,0,1
0:39.089,14072,(,0,0,2
0:39.153,14095,t,0,0,0
0:39.189,14108,),0,0,2
0:39.597,14255,(,0,0,1
0:39.689,14288,N,0,0,0
0:39.733,14304,),0,0,1
0:39.872,14354,(,0,0,2
0:39.928,14374,t,0,0,0
0:39.964,14387,),0,0,2
0:40.325,14517,(,0,0,0
0:40.358,14529,p,0,0,0
0:40.386,14539,),0,0,0
0:40.453,14563,(,0,0,1
0:40.522,14588,N,0,0,0
0:40.672,14642,),0,0,1
0:40.700,14652,(,0,0,2
0:40.750,14670,t,0,0,0
0:40.794,14686,),0,0,2
0:40.994,14758,(,0,0,1
0:41.069,14785,N,0,0,0
0:41.114,14801,),0,0,1
0:41.219,14839,(,0,0,0
0:41.292,14865,p,0,0,0
0:41.358,14889,),0,0,0
0:41.386,14899,(,0,0,1
0:41.458,14925,N,0,0,0
0:41.503,14941,),0,0,1
0:41.589,14972,t,0,0,2
0:41.669,15001,),0,0,2
0:42.094,15154,(,0,0,0
0:42.142,15171,p,0,0,0
0:42.181,15185,),0,0,0
0:42.258,15213,(,0,0,1
0:42.336,15241,N,0,0,0
0:42.411,15268,),0,0,1
0:42.492,15297,(,0,0,2
0:42.511,15304,t,0,0,1
0:42.594,15334,),0,0,2
0:42.808,15411,(,0,0,1
0:42.869,15433,N,0,0,0
0:42.919,15451,),0,0,1
0:43.006,15482,t,0,0,2
0:43.111,15520,),0,0,2
0:43.156,15536,(,0,0,0
0:43.247,15569,p,0,0,0
0:43.303,15589,),0,0,0
0:43.353,15607,(,0,0,1
0:43.411,15628,N,0,0,0
0:43.458,15645,),0,0,1
0:43.578,15688,(,0,0,2
0:43.667,15720,t,0,0,0
0:43.725,15741,),0,0,2
0:44.003,15841,(,0,0,0
0:44.028,15850,p,0,0,0
0:44.064,15863,),0,0,0
0:44.178,15904,(,0,0,1
0:44.244,15928,N,0,0,0
0:44.311,15952,),0,0,1
0:44.378,15976,t,0,0,2
0:44.467,16008,),0,0,2
0:44.567,16044,(,0,0,1
0:44.633,16068,N,0,0,0
0:44.681,16085,),0,0,1
0:44.736,16105,(,0,0,2
0:44.833,16140,t,0,0,0
0:44.908,16167,),0,0,2
0:45.067,16224,(,0,0,0
0:45.086,16231,p,0,0,0
0:45.119,16243,),0,0,0
0:45.231,16283,(,0,0,1
0:45.289,16304,N,0,0,0
0:45.400,16344,),0,0,1
0:45.456,16364,(,0,0,2
0:45.475,16371,t,0,0,4
0:45.517,16386,t,0,0,4
0:45.558,16401,),0,0,2
0:45.786,16483,(,0,0,0
0:45.808,16491,p,0,0,0
0:45.831,16499,),0,0,0
0:45.983,16554,(,0,0,1
0:46.103,16597,N,0,0,0
0:46.253,16651,),0,0,1
0:46.428,16714,(,0,0,2
0:46.450,16722,t,0,0,5
0:46.511,16744,t,0,0,5
0:46.600,16776,),0,0,2
0:46.608,16779,(,0,0,0
0:46.625,16785,p,0,0,0
0:46.694,16810,),0,0,0
0:46.733,16824,(,0,0,1
0:46.825,16857,N,0,0,0
0:46.897,16883,),0,0,1
0:46.922,16892,(,0,0,2
0:47.014,16925,t,0,0,0
0:47.075,16947,),0,0,2
0:47.083,16950,(,0,0,0
0:47.089,16952,p,0,0,0
0:47.144,16972,),0,0,0
0:47.153,16975,(,0,0,1
0:47.347,17045,N,0,0,0
0:47.503,17101,),0,0,1
0:47.581,17129,(,0,0,2
0:47.614,17141,t,0,0,1
0:47.644,17152,),0,0,2
0:47.783,17202,(,0,0,0
0:47.800,17208,p,0,0,0
0:47.822,17216,),0,0,0
0:47.881,17237,(,0,0,1
0:47.981,17273,N,0,0,0
0:48.106,17318,(,0,0,0
0:48.136,17329,p,0,0,0
0:48.139,17330,),0,0,1
0:48.158,17337,),0,0,0
0:48.311,17392,(,0,0,1
0:48.414,17429,N,0,0,0
0:48.453,17443,),0,0,1
0:48.542,17475,(,0,0,2
0:48.619,17503,t,0,0,0
0:48.753,17551,),0,0,2
0:48.817,17574,(,0,0,0
0:48.861,17590,p,0,0,0
0:48.900,17604,),0,0,0
0:48.947,17621,(,0,0,1
0:49.028,17650,N,0,0,0
0:49.161,17698,),0,0,1
0:49.208,17715,(,0,0,2
0:49.231,17723,t,0,0,1
0:49.297,17747,),0,0,2
0:49.558,17841,(,0,0,0
0:49.581,17849,p,0,0,0
0:49.600,17856,),0,0,0
0:49.697,17891,(,0,0,1
0:49.747,17909,N,0,0,0
0:49.778,17920,),0,0,1
0:49.889,17960,(,0,0,2
0:49.981,17993,t,0,0,0
0:50.078,18028,),0,0,2
0:50.444,18160,(,0,0,0
0:50.469,18169,p,0,0,0
0:50.500,18180,),0,0,0
0:50.569,18205,(,0,0,1
0:50.633,18228,N,0,0,0
0:50.664,18239,),0,0,1
0:50.767,18276,(,0,0,2
0:50.858,18309,t,0,0,0
0:50.925,18333,),0,0,2
0:50.942,18339,(,0,0,0
0:50.983,18354,p,0,0,0
0:51.067,18384,),0,0,0
0:51.111,18400,(,0,0,1
0:51.203,18433,N,0,0,0
0:51.244,18448,),0,0,1
0:51.311,18472,(,0,0,2
0:51.403,18505,t,0,0,0
0:51.467,18528,),0,0,2
0:51.536,18553,(,0,0,0
0:51.611,18580,p,0,0,0
0:51.672,18602,),0,0,0
0:51.697,18611,(,0,0,1
0:51.778,18640,N,0,0,0
0:51.975,18711,),0,0,1
0:51.989,18716,(,0,0,2
0:52.128,18766,t,0,0,1
0:52.258,18813,),0,0,2
0:52.306,18830,(,0,0,0
0:52.347,18845,p,0,0,0
0:52.397,18863,),0,0,0
0:52.467,18888,(,0,0,1
0:52.528,18910,N,0,0,0
0:52.564,18923,),0,0,1
0:52.644,18952,(,0,0,2
0:52.803,19009,t,0,0,0
0:52.900,19044,),0,0,2
0:53.261,19174,(,0,0,0
0:53.319,19195,p,0,0,0
0:53.400,19224,),0,0,0
0:53.428,19234,(,0,0,1
0:53.492,19257,N,0,0,0
0:53.606,19298,(,0,0,0
0:53.689,19328,),0,0,1
0:53.697,19331,p,0,0,0
0:53.753,19351,),0,0,0
0:53.767,19356,(,0,0,1
0:53.867,19392,N,0,0,0
0:53.908,19407,),0,0,1
0:54.014,19445,(,0,0,2
0:54.094,19474,t,0,0,0
0:54.158,19497,),0,0,2
0:54.758,19713,(,0,0,1
0:54.836,19741,N,0,0,0
0:54.886,19759,),0,0,1
0:55.219,19879,(,0,0,2
0:55.258,19893,t,0,0,1
0:55.322,19916,),0,0,2
0:55.408,19947,(,0,0,0
0:55.475,19971,p,0,0,0
0:55.544,19996,),0,0,0
0:55.739,20066,(,0,0,1
0:55.831,20099,N,0,0,0
0:55.872,20114,),0,0,1
0:55.947,20141,(,0,0,2
0:56.078,20188,t,0,0,0
0:56.114,20201,),0,0,2
0:56.125,20205,(,0,0,0
0:56.164,20219,p,0,0,0
0:56.236,20245,),0,0,0
0:56.278,20260,(,0,0,1
0:56.372,20294,N,0,0,0
0:56.411,20308,),0,0,1
0:56.514,20345,t,0,0,2
0:56.597,20375,),0,0,2
0:56.753,20431,(,0,0,1
0:56.814,20453,N,0,0,0
0:56.925,20493,(,0,0,0
0:57.011,20524,),0,0,1
0:57.017,20526,p,0,0,0
0:57.061,20542,),0,0,0
0:57.097,20555,(,0,0,1
0:57.169,20581,N,0,0,0
0:57.294,20626,(,0,0,0
0:57.342,20643,),0,0,1
0:57.372,20654,p,0,0,0
0:57.422,20672,),0,0,0
0:57.439,20678,(,0,0,1
0:57.522,20708,N,0,0,0
0:57.711,20776,),0,0,1
0:57.719,20779,(,0,0,2
0:57.775,20799,t,0,0,1
0:57.808,20811,),0,0,2
0:57.983,20874,(,0,0,1
0:58.047,20897,N,0,0,0
0:58.147,20933,),0,0,1
0:58.172,20942,t,0,0,2
0:58.283,20982,),0,0,2
0:58.347,21005,(,0,0,1
0:58.422,21032,N,0,0,0
0:58.469,21049,),0,0,1
0:58.694,21130,(,0,0,1
0:58.769,21157,N,0,0,0
0:58.892,21201,),0,0,1
0:59.028,21250,(,0,0,1
0:59.106,21278,N,0,0,0
0:59.214,21317,),0,0,1
0:59.217,21318,t,0,0,2
0:59.300,21348,),0,0,2
0:59.394,21382,(,0,0,1
0:59.461,21406,N,0,0,0
0:59.508,21423,),0,0,1
0:59.583,21450,t,0,0,2
0:59.689,21488,),0,0,2
0:59.911,21568,(,0,0,0
0:59.942,21579,p,0,0,0
0:59.975,21591,),0,0,0
1:00.225,21681,(,0,0,1
1:00.292,21705,N,0,0,0
1:00.336,21721,),0,0,1
1:00.450,21762,t,0,0,2
1:00.556,21800,),0,0,2
1:00.661,21838,(,0,0,1
1:00.722,21860,N,0,0,0
1:00.789,21884,),0,0,1
1:00.847,21905,(,0,0,2
1:00.917,21930,t,0,0,0
1:00.983,21954,),0,0,2
1:01.158,22017,(,0,0,0
1:01.253,22051,p,0,0,0
1:01.314,22073,),0,0,0
1:01.431,22115,(,0,0,1
1:01.494,22138,N,0,0,0
1:01.542,22155,),0,0,1
1:01.647,22193,(,0,0,2
1:01.722,22220,t,0,0,0
1:01.750,22230,),0,0,2
1:01.961,22306,(,0,0,0
1:02.033,22332,p,0,0,0
1:02.092,22353,),0,0,0
1:02.114,22361,(,0,0,1
1:02.183,22386,N,0,0,0
1:02.314,22433,(,0,0,0
1:02.378,22456,),0,0,1
1:02.386,22459,p,0,0,0
1:02.439,22478,),0,0,0
1:02.458,22485,(,0,0,1
1:02.533,22512,N,0,0,0
1:02.678,22564,(,0,0,0
1:02.733,22584,),0,0,1
1:02.739,22586,p,0,0,0
1:02.769,22597,),0,0,0
1:02.856,22628,(,0,0,1
1:02.911,22648,N,0,0,0
1:03.108,22719,),0,0,1
1:03.175,22743,(,0,0,1
1:03.239,22766,N,0,0,0
1:03.433,22836,),0,0,1
1:03.494,22858,(,0,0,1
1:03.561,22882,N,0,0,0
1:03.725,22941,),0,0,1
1:03.769,22957,(,0,0,2
1:03.817,22974,t,0,0,1
1:03.844,22984,),0,0,2
1:04.272,23138,(,0,0,0
1:04.336,23161,p,0,0,0
1:04.408,23187,),0,0,0
1:04.553,23239,(,0,0,1
1:04.617,23262,N,0,0,0
1:04.653,23275,),0,0,1
1:04.944,23380,(,0,0,1
1:05.028,23410,N,0,0,0
1:05.078,23428,),0,0,1
1:05.133,23448,(,0,0,2
1:05.222,23480,t,0,0,0
1:05.450,23562,),0,0,2
1:05.600,23616,(,0,0,1
1:05.667,23640,N,0,0,0
1:05.708,23655,),0,0,1
1:05.967,23748,(,0,0,1
1:06.025,23769,N,0,0,0
1:06.069,23785,),0,0,1
1:06.125,23805,(,0,0,2
1:06.231,23843,t,0,0,0
1:06.358,23889,),0,0,2
1:06.772,24038,(,0,0,1
1:06.869,24073,N,0,0,0
1:06.983,24114,),0,0,1
1:07.017,24126,t,0,0,2
1:07.144,24172,),0,0,2
1:07.222,24200,(,0,0,1
1:07.292,24225,N,0,0,0
1:07.444,24280,),0,0,1
1:07.472,24290,(,0,0,2
1:07.506,24302,t,0,0,0
1:07.561,24322,),0,0,2
1:07.597,24335,(,0,0,1
1:07.669,24361,N,0,0,0
1:07.708,24375,),0,0,1
1:07.806,24410,(,0,0,2
1:07.886,24439,t,0,0,0
1:07.942,24459,),0,0,2
1:08.428,24634,(,0,0,0
1:08.461,24646,p,0,0,0
1:08.586,24691,),0,0,0
1:08.614,24701,(,0,0,1
1:08.678,24724,N,0,0,0
1:08.719,24739,),0,0,1
1:08.864,24791,(,0,0,0
1:08.928,24814,p,0,0,0
1:09.011,24844,),0,0,0
1:09.072,24866,(,0,0,1
1:09.117,24882,N,0,0,0
1:09.231,24923,(,0,0,0
1:09.303,24949,),0,0,1
1:09.306,24950,p,0,0,0
1:09.358,24969,),0,0,0
1:09.378,24976,(,0,0,1
1:09.447,25001,N,0,0,0
1:09.639,25070,),0,0,1
1:09.650,25074,(,0,0,2
1:09.797,25127,t,0,0,1
1:09.828,25138,),0,0,2
1:10.139,25250,(,0,0,0
1:10.172,25262,p,0,0,0
1:10.194,25270,),0,0,0
1:10.214,25277,(,0,0,1
1:10.278,25300,N,0,0,0
1:10.317,25314,),0,0,1
1:10.458,25365,(,0,0,0
1:10.464,25367,p,0,0,0
1:10.564,25403,),0,0,0
1:10.592,25413,(,0,0,1
1:10.667,25440,N,0,0,0
1:10.708,25455,),0,0,1
1:10.778,25480,(,0,0,2
1:10.847,25505,t,0,0,0
1:10.931,25535,),0,0,2
1:11.247,25649,(,0,0,1
1:11.314,25673,N,0,0,0
1:11.469,25729,),0,0,1
1:11.472,25730,t,0,0,2
1:11.558,25761,),0,0,2
1:12.150,25974,(,0,0,1
1:12.219,25999,N,0,0,0
1:12.336,26041,),0,0,1
1:12.350,26046,(,0,0,2
1:12.456,26084,t,0,0,0
1:12.525,26109,),0,0,2
1:12.978,26272,(,0,0,1
1:13.053,26299,N,0,0,0
1:13.103,26317,),0,0,1
1:13.181,26345,(,0,0,2
1:13.292,26385,t,0,0,0
1:13.331,26399,),0,0,2
1:13.603,26497,(,0,0,0
1:13.675,26523,p,0,0,0
1:13.742,26547,),0,0,0
1:13.767,26556,(,0,0,1
1:13.858,26589,N,0,0,0
1:14.017,26646,),0,0,1
1:14.019,26647,t,0,0,3
1:14.156,26696,),0,0,2
1:14.261,26734,(,0,0,0
1:14.325,26757,p,0,0,0
1:14.406,26786,),0,0,0
1:14.439,26798,(,0,0,1
1:14.497,26819,N,0,0,0
1:14.536,26833,),0,0,1
1:14.628,26866,(,0,0,2
1:14.742,26907,t,0,0,0
1:14.769,26917,),0,0,2
1:14.856,26948,(,0,0,1
1:14.922,26972,N,0,0,0
1:15.031,27011,),0,0,1
1:15.072,27026,(,0,0,2
1:15.108,27039,t,0,0,0
1:15.189,27068,),0,0,2
1:15.356,27128,(,0,0,0
1:15.383,27138,p,0,0,0
1:15.406,27146,),0,0,0
1:15.542,27195,(,0,0,1
1:15.600,27216,N,0,0,0
1:15.639,27230,),0,0,1
1:15.703,27253,t,0,0,2
1:15.825,27297,),0,0,2
1:16.211,27436,(,0,0,0
1:16.247,27449,p,0,0,0
1:16.367,27492,),0,0,0
1:16.381,27497,(,0,0,1
1:16.436,27517,N,0,0,0
1:16.478,27532,),0,0,1
1:16.569,27565,(,0,0,2
1:16.650,27594,t,0,0,0
1:16.692,27609,),0,0,2
1:17.017,27726,(,0,0,0
1:17.100,27756,p,0,0,0
1:17.164,27779,),0,0,0
1:17.178,27784,(,0,0,1
1:17.297,27827,N,0,0,0
1:17.342,27843,),0,0,1
1:17.417,27870,t,0,0,2
1:17.522,27908,),0,0,2
1:17.633,27948,(,0,0,1
1:17.706,27974,N,0,0,0
1:17.906,28046,),0,0,1
1:17.908,28047,t,0,0,3
1:18.011,28084,),0,0,2
1:18.122,28124,(,0,0,0
1:18.194,28150,p,0,0,0
1:18.267,28176,),0,0,0
1:18.314,28193,(,0,0,1
1:18.381,28217,N,0,0,0
1:18.425,28233,),0,0,1
1:18.514,28265,t,0,0,2
1:18.614,28301,),0,0,2
1:18.756,28352,(,0,0,0
1:18.836,28381,p,0,0,0
1:18.906,28406,),0,0,0
1:18.928,28414,(,0,0,1
1:19.028,28450,N,0,0,0
1:19.072,28466,),0,0,1
1:19.128,28486,(,0,0,2
1:19.256,28532,t,0,0,0
1:19.297,28547,),0,0,2
1:19.372,28574,(,0,0,0
1:19.414,28589,p,0,0,0
1:19.461,28606,),0,0,0
1:19.483,28614,(,0,0,1
1:19.542,28635,N,0,0,0
1:19.586,28651,),0,0,1
1:19.675,28683,(,0,0,2
1:19.769,28717,t,0,0,0
1:19.889,28760,),0,0,2
1:19.911,28768,(,0,0,0
1:19.978,28792,p,0,0,0
1:20.044,28816,),0,0,0
1:20.108,28839,(,0,0,1
1:20.167,28860,N,0,0,0
1:20.328,28918,(,0,0,0
1:20.353,28927,),0,0,1
1:20.397,28943,p,0,0,0
1:20.469,28969,),0,0,0
1:20.564,29003,(,0,0,1
1:20.619,29023,N,0,0,0
1:20.661,29038,),0,0,1
1:20.744,29068,(,0,0,2
1:20.822,29096,t,0,0,0
1:20.889,29120,),0,0,2
1:21.419,29311,(,0,0,1
1:21.500,29340,N,0,0,0
1:21.544,29356,),0,0,1
1:21.631,29387,(,0,0,2
1:21.733,29424,t,0,0,0
1:21.756,29432,),0,0,2
1:21.931,29495,(,0,0,1
1:21.994,29518,N,0,0,0
1:22.192,29589,),0,0,1
1:22.200,29592,(,0,0,2
1:22.281,29621,t,0,0,1
1:22.386,29659,),0,0,2
1:22.500,29700,(,0,0,0
1:22.550,29718,p,0,0,0
1:22.617,29742,),0,0,0
1:22.664,29759,(,0,0,1
1:22.731,29783,N,0,0,0
1:22.775,29799,),0,0,1
1:22.878,29836,(,0,0,2
1:22.969,29869,t,0,0,0
1:23.011,29884,),0,0,2
1:23.103,29917,(,0,0,0
1:23.150,29934,p,0,0,0
1:23.192,29949,),0,0,0
1:23.406,30026,(,0,0,1
1:23.503,30061,N,0,0,0
1:23.650,30114,),0,0,1
1:23.658,30117,(,0,0,2
1:23.722,30140,t,0,0,0
1:23.772,30158,),0,0,2
1:24.033,30252,(,0,0,1
1:24.108,30279,N,0,0,0
1:24.150,30294,),0,0,1
1:24.211,30316,(,0,0,2
1:24.303,30349,t,0,0,0
1:24.364,30371,),0,0,2
1:24.700,30492,(,0,0,0
1:24.731,30503,p,0,0,0
1:24.764,30515,),0,0,0
1:24.894,30562,(,0,0,1
1:24.972,30590,N,0,0,0
1:25.056,30620,),0,0,1
1:25.097,30635,(,0,0,2
1:25.200,30672,t,0,0,0
1:25.247,30689,),0,0,2
1:25.328,30718,(,0,0,1
1:25.397,30743,N,0,0,0
1:25.442,30759,),0,0,1
1:25.536,30793,(,0,0,2
1:25.617,30822,t,0,0,0
1:25.708,30855,),0,0,2
1:26.053,30979,(,0,0,1
1:26.133,31008,N,0,0,0
1:26.175,31023,),0,0,1
1:26.283,31062,(,0,0,2
1:26.364,31091,t,0,0,0
1:26.411,31108,),0,0,2
1:26.425,31113,(,0,0,0
1:26.500,31140,p,0,0,0
1:26.581,31169,),0,0,0
1:26.714,31217,(,0,0,1
1:26.800,31248,N,0,0,0
1:26.981,31313,),0,0,1
1:27.011,31324,(,0,0,2
1:27.169,31381,t,0,0,1
1:27.208,31395,),0,0,2
1:27.478,31492,(,0,0,0
1:27.547,31517,p,0,0,0
1:27.589,31532,),0,0,0
1:27.644,31552,(,0,0,1
1:27.711,31576,N,0,0,0
1:27.903,31645,),0,0,1
1:27.908,31647,(,0,0,2
1:27.956,31664,t,0,0,4
1:28.006,31682,t,0,0,4
1:28.067,31704,),0,0,2
1:28.386,31819,(,0,0,1
1:28.469,31849,N,0,0,0
1:28.508,31863,),0,0,1
1:28.600,31896,(,0,0,2
1:28.694,31930,t,0,0,0
1:28.742,31947,),0,0,2
1:28.753,31951,(,0,0,0
1:28.783,31962,p,0,0,0
1:28.817,31974,),0,0,0
1:28.853,31987,(,0,0,1
1:28.911,32008,N,0,0,0
1:29.106,32078,),0,0,1
1:29.122,32084,(,0,0,2
1:29.242,32127,t,0,0,1
1:29.350,32166,),0,0,2
1:29.494,32218,(,0,0,1
1:29.561,32242,N,0,0,0
1:29.606,32258,),0,0,1
1:29.714,32297,t,0,0,2
1:29.811,32332,),0,0,2
1:30.003,32401,(,0,0,0
1:30.125,32445,p,0,0,0
1:30.178,32464,),0,0,0
1:30.222,32480,(,0,0,1
1:30.319,32515,N,0,0,0
1:30.367,32532,),0,0,1
1:30.497,32579,(,0,0,2
1:30.558,32601,t,0,0,0
1:30.633,32628,),0,0,2
1:30.844,32704,(,0,0,1
1:30.911,32728,N,0,0,0
1:30.953,32743,),0,0,1
1:31.069,32785,(,0,0,2
1:31.147,32813,t,0,0,0
1:31.239,32846,),0,0,2
1:31.269,32857,(,0,0,0
1:31.319,32875,p,0,0,0
1:31.375,32895,),0,0,0
1:31.556,32960,(,0,0,1
1:31.622,32984,N,0,0,0
1:31.661,32998,),0,0,1
1:31.764,33035,t,0,0,2
1:31.858,33069,),0,0,2
1:31.875,33075,(,0,0,1
1:32.031,33131,N,0,0,0
1:32.094,33154,),0,0,1
1:32.139,33170,(,0,0,2
1:32.228,33202,t,0,0,0
1:32.322,33236,),0,0,2
1:32.519,33307,(,0,0,0
1:32.589,33332,p,0,0,0
1:32.650,33354,),0,0,0
1:32.711,33376,(,0,0,1
1:32.789,33404,N,0,0,0
1:32.831,33419,),0,0,1
1:32.892,33441,(,0,0,2
1:32.975,33471,t,0,0,0
1:33.044,33496,),0,0,2
1:33.417,33630,(,0,0,0
1:33.461,33646,p,0,0,0
1:33.494,33658,),0,0,0
1:33.719,33739,(,0,0,1
1:33.783,33762,N,0,0,0
1:33.950,33822,),0,0,1
1:33.992,33837,(,0,0,2
1:34.025,33849,t,0,0,0
1:34.053,33859,),0,0,2
1:34.094,33874,(,0,0,1
1:34.200,33912,N,0,0,0
1:34.286,33943,),0,0,1
1:34.297,33947,(,0,0,2
1:34.381,33977,t,0,0,0
1:34.522,34028,),0,0,2
1:34.917,34170,(,0,0,0
1:34.944,34180,p,0,0,0
1:35.036,34213,),0,0,0
1:35.133,34248,(,0,0,1
1:35.239,34286,N,0,0,0
1:35.375,34335,),0,0,1
1:35.425,34353,(,0,0,2
1:35.553,34399,t,0,0,0
1:35.658,34437,),0,0,2
1:35.833,34500,(,0,0,0
1:35.903,34525,p,0,0,0
1:35.958,34545,),0,0,0
1:35.975,34551,(,0,0,1
1:36.058,34581,N,0,0,0
1:36.122,34604,),0,0,1
1:36.153,34615,(,0,0,2
1:36.267,34656,t,0,0,0
1:36.297,34667,),0,0,2
1:36.331,34679,(,0,0,1
1:36.447,34721,N,0,0,0
1:36.569,34765,),0,0,1
1:36.622,34784,(,0,0,2
1:36.722,34820,t,0,0,0
1:36.822,34856,),0,0,2
1:36.975,34911,(,0,0,0
1:37.031,34931,p,0,0,0
1:37.069,34945,),0,0,0
1:37.097,34955,(,0,0,1
1:37.178,34984,N,0,0,0
1:37.350,35046,),0,0,1
1:37.364,35051,(,0,0,2
1:37.383,35058,t,0,0,0
1:37.478,35092,),0,0,2
1:37.525,35109,(,0,0,1
1:37.608,35139,N,0,0,0
1:37.678,35164,),0,0,1
1:37.703,35173,(,0,0,2
1:37.803,35209,t,0,0,0
1:37.944,35260,),0,0,2
1:38.483,35454,(,0,0,0
1:38.514,35465,p,0,0,0
1:38.536,35473,),0,0,0
1:38.639,35510,(,0,0,1
1:38.697,35531,N,0,0,0
1:38.739,35546,),0,0,1
1:38.864,35591,(,0,0,2
1:38.933,35616,t,0,0,0
1:38.956,35624,),0,0,2
1:39.006,35642,(,0,0,1
1:39.064,35663,N,0,0,0
1:39.200,35712,(,0,0,0
1:39.278,35740,p,0,0,0
1:39.281,35741,),0,0,1
1:39.306,35750,),0,0,0
1:39.331,35759,(,0,0,1
1:39.422,35792,N,0,0,0
1:39.578,35848,),0,0,1
1:39.608,35859,(,0,0,2
1:39.647,35873,t,0,0,0
1:39.683,35886,),0,0,2
1:39.719,35899,(,0,0,1
1:39.803,35929,N,0,0,0
1:39.964,35987,(,0,0,0
1:40.003,36001,),0,0,1
1:40.058,36021,p,0,0,0
1:40.136,36049,),0,0,0
1:40.153,36055,(,0,0,1
1:40.217,36078,N,0,0,0
1:40.386,36139,),0,0,1
1:40.567,36204,(,0,0,0
1:40.625,36225,p,0,0,0
1:40.658,36237,),0,0,0
1:40.736,36265,(,0,0,1
1:40.819,36295,N,0,0,0
1:40.969,36349,),0,0,1
1:41.011,36364,(,0,0,2
1:41.089,36392,t,0,0,0
1:41.156,36416,),0,0,2
1:41.347,36485,(,0,0,0
1:41.375,36495,p,0,0,0
1:41.408,36507,),0,0,0
1:41.433,36516,(,0,0,1
1:41.539,36554,N,0,0,0
1:41.592,36573,),0,0,1
1:41.694,36610,t,0,0,2
1:41.775,36639,),0,0,2
1:42.342,36843,(,0,0,0
1:42.369,36853,p,0,0,0
1:42.392,36861,),0,0,0
1:42.419,36871,(,0,0,1
1:42.550,36918,N,0,0,0
1:42.619,36943,),0,0,1
1:42.681,36965,(,0,0,2
1:42.708,36975,t,0,0,4
1:42.853,37027,t,0,0,4
1:42.878,37036,),0,0,2
1:43.331,37199,(,0,0,0
1:43.383,37218,p,0,0,0
1:43.442,37239,),0,0,0
1:43.494,37258,(,0,0,1
1:43.594,37294,N,0,0,0
1:43.742,37347,),0,0,1
1:43.817,37374,(,0,0,2
1:43.883,37398,t,0,0,1
1:43.931,37415,),0,0,2
1:44.017,37446,(,0,0,0
1:44.061,37462,p,0,0,0
1:44.114,37481,),0,0,0
1:44.208,37515,(,0,0,1
1:44.278,37540,N,0,0,0
1:44.456,37604,),0,0,1
1:44.469,37609,(,0,0,2
1:44.567,37644,t,0,0,1
1:44.658,37677,),0,0,2
1:44.681,37685,(,0,0,0
1:44.717,37698,p,0,0,0
1:44.761,37714,),0,0,0
1:44.836,37741,(,0,0,1
1:44.908,37767,N,0,0,0
1:45.025,37809,(,0,0,0
1:45.053,37819,),0,0,1
1:45.092,37833,p,0,0,0
1:45.147,37853,),0,0,0
1:45.203,37873,(,0,0,1
1:45.258,37893,N,0,0,0
1:45.361,37930,),0,0,1
1:45.511,37984,(,0,0,1
1:45.556,38000,N,0,0,0
1:45.639,38030,),0,0,1
1:45.831,38099,(,0,0,1
1:45.886,38119,N,0,0,0
1:45.997,38159,),0,0,1
1:46.025,38169,(,0,0,2
1:46.058,38181,t,0,0,5
1:46.175,38223,t,0,0,5
1:46.200,38232,),0,0,2
1:46.447,38321,(,0,0,0
1:46.475,38331,p,0,0,0
1:46.514,38345,),0,0,0
1:46.547,38357,(,0,0,1
1:46.647,38393,N,0,0,0
1:46.811,38452,),0,0,1
1:46.836,38461,(,0,0,2
1:46.875,38475,t,0,0,5
1:46.925,38493,t,0,0,5
1:46.950,38502,),0,0,2
1:47.111,38560,(,0,0,0
1:47.147,38573,p,0,0,0
1:47.175,38583,),0,0,0
1:47.236,38605,(,0,0,1
1:47.314,38633,N,0,0,0
1:47.483,38694,),0,0,1
1:47.664,38759,(,0,0,0
1:47.700,38772,p,0,0,0
1:47.767,38796,),0,0,0
1:47.883,38838,(,0,0,1
1:47.967,38868,N,0,0,0
1:48.075,38907,(,0,0,0
1:48.144,38932,),0,0,1
1:48.150,38934,p,0,0,0
1:48.197,38951,),0,0,0
1:48.233,38964,(,0,0,1
1:48.336,39001,N,0,0,0
1:48.436,39037,),0,0,1
1:48.617,39102,(,0,0,1
1:48.681,39125,N,0,0,0
1:48.717,39138,),0,0,1
1:48.819,39175,(,0,0,0
1:48.894,39202,p,0,0,0
1:48.953,39223,),0,0,0
1:49.003,39241,(,0,0,1
1:49.081,39269,N,0,0,0
1:49.153,39295,),0,0,1
1:49.189,39308,(,0,0,2
1:49.275,39339,t,0,0,0
1:49.339,39362,),0,0,2
1:49.397,39383,(,0,0,0
1:49.422,39392,p,0,0,0
1:49.444,39400,),0,0,0
1:49.567,39444,(,0,0,1
1:49.636,39469,N,0,0,0
1:49.831,39539,),0,0,1
1:49.908,39567,(,0,0,2
1:49.939,39578,t,0,0,1
1:49.964,39587,),0,0,2
1:50.283,39702,(,0,0,0
1:50.336,39721,p,0,0,0
1:50.417,39750,),0,0,0
1:50.439,39758,(,0,0,1
1:50.503,39781,N,0,0,0
1:50.531,39791,),0,0,1
1:50.603,39817,t,0,0,2
1:50.689,39848,),0,0,2
1:50.789,39884,(,0,0,1
1:50.903,39925,N,0,0,0
1:51.033,39972,(,0,0,0
1:51.075,39987,),0,0,1
1:51.081,39989,p,0,0,0
1:51.133,40008,),0,0,0
1:51.156,40016,(,0,0,1
1:51.228,40042,N,0,0,0
1:51.264,40055,),0,0,1
1:51.314,40073,(,0,0,2
1:51.408,40107,t,0,0,0
1:51.456,40124,),0,0,2
1:51.578,40168,(,0,0,0
1:51.647,40193,p,0,0,0
1:51.678,40204,),0,0,0
1:51.756,40232,(,0,0,1
1:51.828,40258,N,0,0,0
1:51.947,40301,),0,0,1
1:51.969,40309,(,0,0,2
1:52.022,40328,t,0,0,0
1:52.081,40349,),0,0,2
1:52.100,40356,(,0,0,1
1:52.194,40390,N,0,0,0
1:52.219,40399,),0,0,1
1:52.292,40425,(,0,0,2
1:52.392,40461,t,0,0,0
1:52.447,40481,),0,0,2
1:52.744,40588,(,0,0,0
1:52.783,40602,p,0,0,0
1:52.861,40630,),0,0,0
1:52.964,40667,(,0,0,1
1:53.061,40702,N,0,0,0
1:53.156,40736,(,0,0,0
1:53.250,40770,),0,0,1
1:53.256,40772,p,0,0,0
1:53.319,40795,),0,0,0
1:53.378,40816,(,0,0,1
1:53.481,40853,N,0,0,0
1:53.578,40888,),0,0,1
1:53.594,40894,(,0,0,2
1:53.678,40924,t,0,0,0
1:53.822,40976,),0,0,2
1:54.311,41152,(,0,0,0
1:54.347,41165,p,0,0,0
1:54.392,41181,),0,0,0
1:54.475,41211,(,0,0,1
1:54.558,41241,N,0,0,0
1:54.597,41255,),0,0,1
1:54.714,41297,(,0,0,2
1:54.797,41327,t,0,0,0
1:54.861,41350,),0,0,2
1:54.878,41356,(,0,0,1
1:54.981,41393,N,0,0,0
1:55.036,41413,),0,0,1
1:55.092,41433,(,0,0,2
1:55.200,41472,t,0,0,0
1:55.331,41519,),0,0,2
1:55.458,41565,(,0,0,0
1:55.492,41577,p,0,0,0
1:55.550,41598,),0,0,0
1:55.642,41631,(,0,0,1
1:55.717,41658,N,0,0,0
1:55.839,41702,(,0,0,0
1:55.908,41727,),0,0,1
1:55.922,41732,p,0,0,0
1:55.964,41747,),0,0,0
1:56.061,41782,(,0,0,1
1:56.142,41811,N,0,0,0
1:56.325,41877,),0,0,1
1:56.336,41881,t,0,0,3
1:56.394,41902,),0,0,2
1:56.767,42036,(,0,0,0
1:56.806,42050,p,0,0,0
1:56.864,42071,),0,0,0
1:56.947,42101,(,0,0,1
1:57.017,42126,N,0,0,0
1:57.053,42139,),0,0,1
1:57.125,42165,(,0,0,2
1:57.231,42203,t,0,0,0
1:57.322,42236,),0,0,2
1:57.644,42352,(,0,0,0
1:57.719,42379,p,0,0,0
1:57.786,42403,),0,0,0
1:57.808,42411,(,0,0,1
1:57.875,42435,N,0,0,0
1:58.014,42485,),0,0,1
1:58.075,42507,(,0,0,2
1:58.122,42524,t,0,0,1
1:58.178,42544,),0,0,2
1:58.247,42569,(,0,0,0
1:58.278,42580,p,0,0,0
1:58.361,42610,),0,0,0
1:58.394,42622,(,0,0,1
1:58.494,42658,N,0,0,0
1:58.675,42723,),0,0,1
1:58.694,42730,(,0,0,2
1:58.817,42774,t,0,0,1
1:58.861,42790,),0,0,2
1:58.931,42815,(,0,0,0
1:58.956,42824,p,0,0,0
1:59.006,42842,),0,0,0
1:59.117,42882,(,0,0,1
1:59.203,42913,N,0,0,0
1:59.239,42926,),0,0,1
1:59.331,42959,(,0,0,0
1:59.403,42985,p,0,0,0
1:59.483,43014,),0,0,0
1:59.531,43031,(,0,0,1
1:59.589,43052,N,0,0,0
1:59.622,43064,),0,0,1
1:59.703,43093,(,0,0,2
1:59.792,43125,t,0,0,0
1:59.917,43170,),0,0,2
2:00.475,43371,(,0,0,1
2:00.556,43400,N,0,0,0
2:00.728,43462,),0,0,1
2:00.783,43482,(,0,0,2
2:00.853,43507,t,0,0,1
2:00.936,43537,),0,0,2
2:01.089,43592,(,0,0,0
2:01.181,43625,p,0,0,0
2:01.244,43648,),0,0,0
2:01.292,43665,(,0,0,1
2:01.347,43685,N,0,0,0
2:01.514,43745,(,0,0,0
2:01.567,43764,),0,0,1
2:01.572,43766,p,0,0,0
2:01.617,43782,),0,0,0
2:01.681,43805,(,0,0,1
2:01.781,43841,N,0,0,0
2:01.903,43885,(,0,0,0
2:01.956,43904,),0,0,1
2:01.967,43908,p,0,0,0
2:02.025,43929,),0,0,0
2:02.108,43959,(,0,0,1
2:02.183,43986,N,0,0,0
2:02.378,44056,),0,0,1
2:02.389,44060,(,0,0,2
2:02.500,44100,t,0,0,1
2:02.539,44114,),0,0,2
2:02.739,44186,(,0,0,1
2:02.839,44222,N,0,0,0
2:03.039,44294,),0,0,1
2:03.100,44316,(,0,0,2
2:03.128,44326,t,0,0,0
2:03.164,44339,),0,0,2
2:03.236,44365,(,0,0,0
2:03.264,44375,p,0,0,0
2:03.306,44390,),0,0,0
2:03.372,44414,(,0,0,1
2:03.489,44456,N,0,0,0
2:03.664,44519,),0,0,1
2:03.881,44597,(,0,0,1
2:03.953,44623,N,0,0,0
2:04.042,44655,(,0,0,0
2:04.106,44678,),0,0,1
2:04.119,44683,p,0,0,0
2:04.175,44703,),0,0,0
2:04.247,44729,(,0,0,1
2:04.322,44756,N,0,0,0
2:04.411,44788,(,0,0,0
2:04.503,44821,),0,0,1
2:04.506,44822,p,0,0,0
2:04.547,44837,),0,0,0
2:04.606,44858,(,0,0,1
2:04.675,44883,N,0,0,0
2:04.739,44906,),0,0,1
2:04.769,44917,(,0,0,2
2:04.856,44948,t,0,0,0
2:04.936,44977,),0,0,2
2:05.000,45000,(,0,0,1
2:05.089,45032,N,0,0,0
2:05.253,45091,),0,0,1
2:05.394,45142,(,0,0,2
2:05.422,45152,t,0,0,1
2:05.453,45163,),0,0,2
2:05.600,45216,(,0,0,0
2:05.650,45234,p,0,0,0
2:05.672,45242,),0,0,0
2:05.725,45261,(,0,0,1
2:05.797,45287,N,0,0,0
2:05.992,45357,),0,0,1
2:06.486,45535,(,0,0,1
2:06.569,45565,N,0,0,0
2:06.697,45611,(,0,0,0
2:06.758,45633,),0,0,1
2:06.769,45637,p,0,0,0
2:06.822,45656,),0,0,0
2:06.922,45692,(,0,0,1
2:07.022,45728,N,0,0,0
2:07.117,45762,),0,0,1
2:07.133,45768,(,0,0,2
2:07.219,45799,t,0,0,0
2:07.397,45863,),0,0,2
2:07.472,45890,(,0,0,0
2:07.544,45916,p,0,0,0
2:07.636,45949,),0,0,0
2:07.678,45964,(,0,0,1
2:07.761,45994,N,0,0,0
2:07.864,46031,(,0,0,0
2:07.933,46056,),0,0,1
2:07.942,46059,p,0,0,0
2:07.989,46076,),0,0,0
2:08.025,46089,(,0,0,1
2:08.100,46116,N,0,0,0
2:08.189,46148,),0,0,1
2:08.206,46154,(,0,0,2
2:08.300,46188,t,0,0,0
2:08.408,46227,),0,0,2
2:08.600,46296,(,0,0,1
2:08.706,46334,N,0,0,0
2:08.742,46347,),0,0,1
2:08.792,46365,(,0,0,2
2:08.883,46398,t,0,0,0
2:08.942,46419,),0,0,2
2:09.008,46443,(,0,0,1
2:09.053,46459,N,0,0,0
2:09.231,46523,),0,0,1
2:09.278,46540,(,0,0,2
2:09.331,46559,t,0,0,1
2:09.375,46575,),0,0,2
2:09.608,46659,(,0,0,0
2:09.636,46669,p,0,0,0
2:09.672,46682,),0,0,0
2:09.714,46697,(,0,0,1
2:09.808,46731,N,0,0,0
2:09.908,46767,(,0,0,0
2:09.981,46793,),0,0,1
2:09.989,46796,p,0,0,0
2:10.039,46814,),0,0,0
2:10.103,46837,(,0,0,1
2:10.161,46858,N,0,0,0
2:10.247,46889,),0,0,1
2:10.264,46895,(,0,0,2
2:10.353,46927,t,0,0,0
2:10.461,46966,),0,0,2
2:10.475,46971,(,0,0,0
2:10.528,46990,p,0,0,0
2:10.561,47002,),0,0,0
2:10.647,47033,(,0,0,1
2:10.725,47061,N,0,0,0
2:10.764,47075,),0,0,1
2:10.808,47091,(,0,0,2
2:10.906,47126,t,0,0,0
2:10.961,47146,),0,0,2
2:11.106,47198,(,0,0,1
2:11.206,47234,N,0,0,0
2:11.325,47277,(,0,0,0
2:11.389,47300,p,0,0,0
2:11.389,47300,),0,0,1
2:11.439,47318,),0,0,0
2:11.472,47330,(,0,0,1
2:11.519,47347,N,0,0,0
2:11.722,47420,),0,0,1
2:11.814,47453,t,0,0,3
2:11.903,47485,),0,0,2
2:12.017,47526,(,0,0,0
2:12.061,47542,p,0,0,0
2:12.097,47555,),0,0,0
2:12.119,47563,(,0,0,1
2:12.203,47593,N,0,0,0
2:12.400,47664,),0,0,1
2:12.411,47668,(,0,0,2
2:12.528,47710,t,0,0,1
2:12.578,47728,),0,0,2
2:13.222,47960,(,0,0,0
2:13.250,47970,p,0,0,0
2:13.297,47987,),0,0,0
2:13.325,47997,(,0,0,1
2:13.406,48026,N,0,0,0
2:13.506,48062,(,0,0,0
2:13.578,48088,),0,0,1
2:13.619,48103,p,0,0,0
2:13.683,48126,),0,0,0
2:13.789,48164,(,0,0,1
2:13.875,48195,N,0,0,0
2:13.967,48228,),0,0,1
2:13.992,48237,(,0,0,2
2:14.067,48264,t,0,0,0
2:14.203,48313,),0,0,2
2:14.364,48371,(,0,0,1
2:14.444,48400,N,0,0,0
2:14.625,48465,),0,0,1
2:14.639,48470,(,0,0,2
2:14.744,48508,t,0,0,1
2:14.822,48536,),0,0,2
2:15.108,48639,(,0,0,0
2:15.181,48665,p,0,0,0
2:15.275,48699,),0,0,0
2:15.289,48704,(,0,0,1
2:15.381,48737,N,0,0,0
2:15.564,48803,),0,0,1
2:15.633,48828,(,0,0,2
2:15.703,48853,t,0,0,0
2:15.761,48874,),0,0,2
2:16.050,48978,(,0,0,0
2:16.114,49001,p,0,0,0
2:16.186,49027,),0,0,0
2:16.200,49032,(,0,0,1
2:16.275,49059,N,0,0,0
2:16.403,49105,(,0,0,0
2:16.461,49126,),0,0,1
2:16.469,49129,p,0,0,0
2:16.556,49160,),0,0,0
2:16.597,49175,(,0,0,1
2:16.633,49188,N,0,0,0
2:16.708,49215,),0,0,1
2:16.728,49222,(,0,0,2
2:16.825,49257,t,0,0,0
2:16.922,49292,),0,0,2
2:16.983,49314,(,0,0,0
2:17.061,49342,p,0,0,0
2:17.092,49353,),0,0,0
2:17.197,49391,(,0,0,1
2:17.275,49419,N,0,0,0
2:17.403,49465,(,0,0,0
2:17.456,49484,),0,0,1
2:17.478,49492,p,0,0,0
2:17.556,49520,),0,0,0
2:17.611,49540,(,0,0,1
2:17.661,49558,N,0,0,0
2:17.747,49589,),0,0,1
2:17.775,49599,(,0,0,2
2:17.886,49639,t,0,0,0
2:17.933,49656,),0,0,2
2:17.947,49661,(,0,0,1
2:18.053,49699,N,0,0,0
2:18.147,49733,),0,0,1
2:18.153,49735,(,0,0,2
2:18.239,49766,t,0,0,0
2:18.292,49785,),0,0,2
2:18.608,49899,(,0,0,1
2:18.714,49937,N,0,0,0
2:18.897,50003,),0,0,1
2:18.919,50011,(,0,0,0
2:19.008,50043,p,0,0,0
2:19.067,50064,),0,0,0
2:19.106,50078,(,0,0,1
2:19.219,50119,N,0,0,0
2:19.414,50189,),0,0,1
2:19.431,50195,(,0,0,2
2:19.531,50231,t,0,0,1
2:19.592,50253,),0,0,2
2:19.853,50347,(,0,0,0
2:19.911,50368,p,0,0,0
2:19.997,50399,),0,0,0
2:20.019,50407,(,0,0,1
2:20.133,50448,N,0,0,0
2:20.322,50516,),0,0,1
2:20.700,50652,(,0,0,0
2:20.761,50674,p,0,0,0
2:20.833,50700,),0,0,0
2:20.881,50717,(,0,0,1
2:20.953,50743,N,0,0,0
2:21.147,50813,),0,0,1
2:21.153,50815,t,0,0,3
2:21.239,50846,),0,0,2
2:21.544,50956,(,0,0,0
2:21.583,50970,p,0,0,0
2:21.617,50982,),0,0,0
2:21.708,51015,(,0,0,1
2:21.814,51053,N,0,0,0
2:21.844,51064,),0,0,1
2:21.944,51100,(,0,0,0
2:22.003,51121,p,0,0,0
2:22.089,51152,),0,0,0
2:22.119,51163,(,0,0,1
2:22.183,51186,N,0,0,0
2:22.258,51213,),0,0,1
2:22.269,51217,(,0,0,2
2:22.369,51253,t,0,0,0
2:22.447,51281,),0,0,2
2:22.656,51356,(,0,0,0
2:22.708,51375,p,0,0,0
2:22.767,51396,),0,0,0
2:22.783,51402,(,0,0,1
2:22.856,51428,N,0,0,0
2:22.889,51440,),0,0,1
2:22.964,51467,(,0,0,2
2:23.053,51499,t,0,0,0
2:23.175,51543,),0,0,2
2:23.194,51550,(,0,0,0
2:23.253,51571,p,0,0,0
2:23.283,51582,),0,0,0
2:23.400,51624,(,0,0,1
2:23.481,51653,N,0,0,0
2:23.525,51669,),0,0,1
2:23.606,51698,(,0,0,2
2:23.694,51730,t,0,0,0
2:23.772,51758,),0,0,2
2:23.892,51801,(,0,0,0
2:23.956,51824,p,0,0,0
2:23.975,51831,),0,0,0
2:24.094,51874,(,0,0,1
2:24.183,51906,N,0,0,0
2:24.358,51969,),0,0,1
2:24.378,51976,(,0,0,2
2:24.519,52027,t,0,0,1
2:24.606,52058,),0,0,2
2:24.706,52094,(,0,0,0
2:24.750,52110,p,0,0,0
2:24.797,52127,),0,0,0
2:24.856,52148,(,0,0,1
2:24.939,52178,N,0,0,0
2:25.125,52245,),0,0,1
2:25.139,52250,(,0,0,2
2:25.325,52317,t,0,0,1
2:25.453,52363,),0,0,2
2:25.514,52385,(,0,0,0
2:25.558,52401,p,0,0,0
2:25.614,52421,),0,0,0
2:25.733,52464,(,0,0,1
2:25.792,52485,N,0,0,0
2:25.822,52496,),0,0,1
2:25.931,52535,(,0,0,2
2:26.000,52560,t,0,0,0
2:26.075,52587,),0,0,2
2:26.850,52866,(,0,0,0
2:26.897,52883,p,0,0,0
2:26.928,52894,),0,0,0
2:26.961,52906,(,0,0,1
2:27.036,52933,N,0,0,0
2:27.203,52993,),0,0,1
2:27.247,53009,t,0,0,3
2:27.328,53038,),0,0,2
2:27.456,53084,(,0,0,0
2:27.547,53117,p,0,0,0
2:27.569,53125,),0,0,0
2:27.611,53140,(,0,0,1
2:27.689,53168,N,0,0,0
2:27.878,53236,),0,0,1
2:27.881,53237,t,0,0,3
2:27.983,53274,),0,0,2
2:28.131,53327,(,0,0,1
2:28.203,53353,N,0,0,0
2:28.392,53421,),0,0,1
2:28.408,53427,(,0,0,2
2:28.506,53462,t,0,0,1
2:28.547,53477,),0,0,2
2:28.972,53630,(,0,0,0
2:29.006,53642,p,0,0,0
2:29.064,53663,),0,0,0
2:29.169,53701,(,0,0,1
2:29.297,53747,N,0,0,0
2:29.497,53819,),0,0,1
2:29.506,53822,(,0,0,2
2:29.642,53871,t,0,0,1
2:29.758,53913,),0,0,2
2:30.158,54057,(,0,0,0
2:30.189,54068,p,0,0,0
2:30.217,54078,),0,0,0
2:30.269,54097,(,0,0,1
2:30.361,54130,N,0,0,0
2:30.408,54147,),0,0,1
2:30.553,54199,(,0,0,2
2:30.589,54212,t,0,0,0
2:30.706,54254,),0,0,2
2:30.719,54259,(,0,0,0
2:30.761,54274,p,0,0,0
2:30.797,54287,),0,0,0
2:30.828,54298,(,0,0,1
2:30.911,54328,N,0,0,0
2:31.058,54381,(,0,0,0
2:31.075,54387,),0,0,1
2:31.114,54401,p,0,0,0
2:31.147,54413,),0,0,0
2:31.214,54437,(,0,0,1
2:31.308,54471,N,0,0,0
2:31.378,54496,),0,0,1
2:31.419,54511,(,0,0,2
2:31.439,54518,t,0,0,4
2:31.522,54548,t,0,0,4
2:31.547,54557,),0,0,2
2:31.839,54662,(,0,0,0
2:31.861,54670,p,0,0,0
2:31.897,54683,),0,0,0
2:31.972,54710,(,0,0,1
2:32.067,54744,N,0,0,0
2:32.178,54784,),0,0,1
2:32.211,54796,t,0,0,2
2:32.308,54831,),0,0,2
2:32.378,54856,(,0,0,0
2:32.411,54868,p,0,0,0
2:32.442,54879,),0,0,0
2:32.494,54898,(,0,0,1
2:32.561,54922,N,0,0,0
2:32.608,54939,),0,0,1
2:32.692,54969,(,0,0,2
2:32.775,54999,t,0,0,0
2:32.822,55016,),0,0,2
2:33.108,55119,(,0,0,1
2:33.164,55139,N,0,0,0
2:33.264,55175,),0,0,1
2:33.319,55195,(,0,0,2
2:33.436,55237,t,0,0,0
2:33.528,55270,),0,0,2
2:33.769,55357,(,0,0,0
2:33.800,55368,p,0,0,0
2:33.833,55380,),0,0,0
2:33.886,55399,(,0,0,1
2:33.950,55422,N,0,0,0
2:33.994,55438,),0,0,1
2:34.069,55465,t,0,0,2
2:34.186,55507,),0,0,2
2:34.581,55649,(,0,0,1
2:34.642,55671,N,0,0,0
2:34.778,55720,(,0,0,0
2:34.839,55742,),0,0,1
2:34.847,55745,p,0,0,0
2:34.872,55754,),0,0,0
2:34.950,55782,(,0,0,1
2:35.022,55808,N,0,0,0
2:35.214,55877,),0,0,1
2:35.231,55883,(,0,0,0
2:35.283,55902,p,0,0,0
2:35.322,55916,),0,0,0
2:35.425,55953,(,0,0,1
2:35.489,55976,N,0,0,0
2:35.531,55991,),0,0,1
2:35.589,56012,(,0,0,2
2:35.742,56067,t,0,0,0
2:35.847,56105,),0,0,2
2:35.886,56119,(,0,0,0
2:35.944,56140,p,0,0,0
2:35.978,56152,),0,0,0
2:36.128,56206,(,0,0,1
2:36.194,56230,N,0,0,0
2:36.328,56278,),0,0,1
2:36.331,56279,t,0,0,2
2:36.414,56309,),0,0,2
2:36.472,56330,(,0,0,1
2:36.583,56370,N,0,0,0
2:36.631,56387,),0,0,1
2:36.683,56406,t,0,0,2
2:36.792,56445,),0,0,2
2:36.872,56474,(,0,0,1
2:36.947,56501,N,0,0,0
2:37.014,56525,),0,0,1
2:37.064,56543,(,0,0,2
2:37.156,56576,t,0,0,0
2:37.278,56620,),0,0,2
2:37.689,56768,(,0,0,0
2:37.753,56791,p,0,0,0
2:37.819,56815,),0,0,0
2:37.828,56818,(,0,0,1
2:37.894,56842,N,0,0,0
2:37.939,56858,),0,0,1
2:38.036,56893,t,0,0,2
2:38.125,56925,),0,0,2
2:38.258,56973,(,0,0,1
2:38.350,57006,N,0,0,0
2:38.439,57038,),0,0,1
2:38.450,57042,(,0,0,2
2:38.536,57073,t,0,0,0
2:38.661,57118,),0,0,2
2:38.989,57236,(,0,0,1
2:39.078,57268,N,0,0,0
2:39.114,57281,),0,0,1
2:39.225,57321,t,0,0,2
2:39.328,57358,),0,0,2
2:39.731,57503,(,0,0,1
2:39.792,57525,N,0,0,0
2:39.836,57541,),0,0,1
2:39.925,57573,(,0,0,2
2:40.011,57604,t,0,0,0
2:40.125,57645,),0,0,2
2:40.486,57775,(,0,0,1
2:40.547,57797,N,0,0,0
2:40.697,57851,),0,0,1
2:40.728,57862,(,0,0,2
2:40.822,57896,t,0,0,0
2:40.922,57932,),0,0,2
2:41.167,58020,(,0,0,0
2:41.203,58033,p,0,0,0
2:41.236,58045,),0,0,0
2:41.261,58054,(,0,0,1
2:41.347,58085,N,0,0,0
2:41.386,58099,),0,0,1
2:41.444,58120,(,0,0,2
2:41.594,58174,t,0,0,0
2:41.719,58219,),0,0,2
2:41.800,58248,(,0,0,0
2:41.833,58260,p,0,0,0
2:41.867,58272,),0,0,0
2:42.006,58322,(,0,0,1
2:42.067,58344,N,0,0,0
2:42.231,58403,),0,0,1
2:42.267,58416,(,0,0,2
2:42.300,58428,t,0,0,0
2:42.347,58445,),0,0,2
2:42.472,58490,(,0,0,0
2:42.500,58500,p,0,0,0
2:42.533,58512,),0,0,0
2:42.650,58554,(,0,0,1
2:42.717,58578,N,0,0,0
2:42.764,58595,),0,0,1
2:42.850,58626,(,0,0,2
2:42.964,58667,t,0,0,0
2:43.014,58685,),0,0,2
2:43.308,58791,(,0,0,1
2:43.378,58816,N,0,0,0
2:43.419,58831,),0,0,1
2:43.528,58870,(,0,0,2
2:43.600,58896,t,0,0,0
2:43.678,58924,),0,0,2
2:43.781,58961,(,0,0,0
2:43.858,58989,p,0,0,0
2:43.886,58999,),0,0,0
2:43.972,59030,(,0,0,1
2:44.033,59052,N,0,0,0
2:44.225,59121,),0,0,1
2:44.358,59169,(,0,0,2
2:44.397,59183,t,0,0,1
2:44.467,59208,),0,0,2
2:44.669,59281,(,0,0,0
2:44.708,59295,p,0,0,0
2:44.800,59328,),0,0,0
2:44.811,59332,(,0,0,1
2:44.900,59364,N,0,0,0
2:45.036,59413,),0,0,1
2:45.044,59416,(,0,0,2
2:45.178,59464,t,0,0,0
2:45.242,59487,),0,0,2
2:45.553,59599,(,0,0,1
2:45.642,59631,N,0,0,0
2:45.681,59645,),0,0,1
2:45.769,59677,(,0,0,2
2:45.861,59710,t,0,0,0
2:45.911,59728,),0,0,2
2:46.175,59823,(,0,0,0
2:46.200,59832,p,0,0,0
2:46.258,59853,),0,0,0
2:46.278,59860,(,0,0,1
2:46.375,59895,N,0,0,0
2:46.558,59961,),0,0,1
2:46.594,59974,(,0,0,2
2:46.631,59987,t,0,0,1
2:46.678,60004,),0,0,2
2:46.697,60011,(,0,0,0
2:46.753,60031,p,0,0,0
2:46.797,60047,),0,0,0
2:46.886,60079,(,0,0,1
2:46.950,60102,N,0,0,0
2:46.989,60116,),0,0,1
2:47.081,60149,(,0,0,2
2:47.161,60178,t,0,0,0
2:47.231,60203,),0,0,2
2:47.617,60342,(,0,0,0
2:47.683,60366,p,0,0,0
2:47.739,60386,),0,0,0
2:47.761,60394,(,0,0,1
2:47.819,60415,N,0,0,0
2:47.861,60430,),0,0,1
2:47.964,60467,t,0,0,2
2:48.069,60505,),0,0,2
2:48.167,60540,(,0,0,0
2:48.200,60552,p,0,0,0
2:48.236,60565,),0,0,0
2:48.306,60590,(,0,0,1
2:48.361,60610,N,0,0,0
2:48.406,60626,),0,0,1
2:48.539,60674,(,0,0,2
2:48.611,60700,t,0,0,0
2:48.708,60735,),0,0,2
2:48.847,60785,(,0,0,1
2:48.911,60808,N,0,0,0
2:48.950,60822,),0,0,1
2:49.019,60847,(,0,0,2
2:49.128,60886,t,0,0,0
2:49.183,60906,),0,0,2
2:49.203,60913,(,0,0,0
2:49.231,60923,p,0,0,0
2:49.256,60932,),0,0,0
2:49.278,60940,(,0,0,1
2:49.347,60965,N,0,0,0
2:49.542,61035,),0,0,1
2:49.750,61110,(,0,0,0
2:49.792,61125,p,0,0,0
2:49.831,61139,),0,0,0
2:49.958,61185,(,0,0,1
2:50.025,61209,N,0,0,0
2:50.064,61223,),0,0,1
2:50.172,61262,(,0,0,2
2:50.261,61294,t,0,0,0
2:50.336,61321,),0,0,2
2:50.567,61404,(,0,0,0
2:50.606,61418,p,0,0,0
2:50.681,61445,),0,0,0
2:50.725,61461,(,0,0,1
2:50.817,61494,N,0,0,0
2:50.861,61510,),0,0,1
2:50.975,61551,(,0,0,2
2:51.078,61588,t,0,0,0
2:51.161,61618,),0,0,2
2:51.308,61671,(,0,0,1
2:51.364,61691,N,0,0,0
2:51.536,61753,),0,0,1
2:51.569,61765,(,0,0,2
2:51.622,61784,t,0,0,1
2:51.647,61793,),0,0,2
2:51.681,61805,(,0,0,0
2:51.739,61826,p,0,0,0
2:51.789,61844,),0,0,0
2:51.922,61892,(,0,0,1
2:51.958,61905,N,0,0,0
2:52.158,61977,),0,0,1
2:52.175,61983,(,0,0,2
2:52.250,62010,t,0,0,1
2:52.272,62018,),0,0,2
2:52.472,62090,(,0,0,1
2:52.544,62116,N,0,0,0
2:52.669,62161,),0,0,1
2:52.672,62162,t,0,0,2
2:52.758,62193,),0,0,2
2:52.903,62245,(,0,0,1
2:52.997,62279,N,0,0,0
2:53.039,62294,),0,0,1
2:53.153,62335,(,0,0,2
2:53.214,62357,t,0,0,0
2:53.339,62402,),0,0,2
2:53.547,62477,(,0,0,1
2:53.647,62513,N,0,0,0
2:53.692,62529,),0,0,1
2:53.817,62574,(,0,0,2
2:53.889,62600,t,0,0,0
2:53.917,62610,),0,0,2
2:54.183,62706,(,0,0,0
2:54.239,62726,p,0,0,0
2:54.314,62753,),0,0,0
2:54.336,62761,(,0,0,1
2:54.403,62785,N,0,0,0
2:54.442,62799,),0,0,1
2:54.531,62831,(,0,0,2
2:54.617,62862,t,0,0,0
2:54.706,62894,),0,0,2
2:54.989,62996,(,0,0,0
2:55.056,63020,p,0,0,0
2:55.142,63051,),0,0,0
2:55.156,63056,(,0,0,1
2:55.194,63070,N,0,0,0
2:55.236,63085,),0,0,1
2:55.336,63121,(,0,0,2
2:55.439,63158,t,0,0,0
2:55.514,63185,),0,0,2
2:55.531,63191,(,0,0,0
2:55.561,63202,p,0,0,0
2:55.597,63215,),0,0,0
2:55.642,63231,(,0,0,1
2:55.708,63255,N,0,0,0
2:55.867,63312,),0,0,1
2:55.944,63340,(,0,0,2
2:55.997,63359,t,0,0,1
2:56.028,63370,),0,0,2
2:56.256,63452,(,0,0,0
2:56.328,63478,p,0,0,0
2:56.372,63494,),0,0,0
2:56.447,63521,(,0,0,1
2:56.508,63543,N,0,0,0
2:56.553,63559,),0,0,1
2:56.669,63601,(,0,0,2
2:56.786,63643,t,0,0,0
2:56.869,63673,),0,0,2
2:57.017,63726,(,0,0,1
2:57.072,63746,N,0,0,0
2:57.114,63761,),0,0,1
2:57.183,63786,(,0,0,2
2:57.281,63821,t,0,0,0
2:57.369,63853,),0,0,2
2:57.439,63878,(,0,0,1
2:57.469,63889,N,0,0,0
2:57.647,63953,),0,0,1
2:57.742,63987,(,0,0,2
2:57.764,63995,t,0,0,4
2:57.800,64008,t,0,0,4
2:57.847,64025,),0,0,2
2:57.897,64043,(,0,0,0
2:57.986,64075,p,0,0,0
2:58.028,64090,),0,0,0
2:58.078,64108,(,0,0,1
2:58.142,64131,N,0,0,0
2:58.317,64194,),0,0,1
2:58.486,64255,(,0,0,0
2:58.514,64265,p,0,0,0
2:58.539,64274,),0,0,0
2:58.689,64328,(,0,0,1
2:58.756,64352,N,0,0,0
2:58.797,64367,),0,0,1
2:58.900,64404,(,0,0,2
2:59.014,64445,t,0,0,0
2:59.047,64457,),0,0,2
2:59.189,64508,(,0,0,0
2:59.233,64524,p,0,0,0
2:59.261,64534,),0,0,0
2:59.397,64583,(,0,0,1
2:59.464,64607,N,0,0,0
2:59.508,64623,),0,0,1
2:59.581,64649,(,0,0,2
2:59.681,64685,t,0,0,0
2:59.756,64712,),0,0,2
2:59.933,64776,(,0,0,0
2:59.961,64786,p,0,0,0
3:00.006,64802,),0,0,0
3:00.072,64826,(,0,0,1
3:00.144,64852,N,0,0,0
3:00.342,64923,),0,0,1
3:00.411,64948,(,0,0,2
3:00.439,64958,t,0,0,5
3:00.506,64982,),0,0,2
3:00.642,65031,(,0,0,1
3:00.733,65064,N,0,0,0
3:00.772,65078,),0,0,1
3:00.872,65114,(,0,0,2
3:00.958,65145,t,0,0,0
3:01.069,65185,),0,0,2
3:01.206,65234,(,0,0,0
3:01.239,65246,p,0,0,0
3:01.278,65260,),0,0,0
3:01.422,65312,(,0,0,1
3:01.500,65340,N,0,0,0
3:01.625,65385,),0,0,1
3:01.644,65392,(,0,0,2
3:01.728,65422,t,0,0,0
3:01.761,65434,),0,0,2
3:01.989,65516,(,0,0,0
3:02.064,65543,p,0,0,0
3:02.133,65568,),0,0,0
3:02.183,65586,(,0,0,1
3:02.247,65609,N,0,0,0
3:02.436,65677,),0,0,1
3:02.542,65715,(,0,0,2
3:02.625,65745,t,0,0,1
3:02.667,65760,),0,0,2
3:02.919,65851,(,0,0,1
3:02.989,65876,N,0,0,0
3:03.150,65934,),0,0,1
3:03.186,65947,(,0,0,2
3:03.203,65953,t,0,0,0
3:03.222,65960,),0,0,2
3:03.364,66011,(,0,0,1
3:03.450,66042,N,0,0,0
3:03.492,66057,),0,0,1
3:03.586,66091,(,0,0,2
3:03.667,66120,t,0,0,0
3:03.731,66143,),0,0,2
3:03.858,66189,(,0,0,1
3:03.914,66209,N,0,0,0
3:04.061,66262,),0,0,1
3:04.094,66274,(,0,0,2
3:04.133,66288,t,0,0,0
3:04.208,66315,),0,0,2
3:04.358,66369,(,0,0,0
3:04.389,66380,p,0,0,0
3:04.500,66420,),0,0,0
3:04.514,66425,(,0,0,1
3:04.608,66459,N,0,0,0
3:04.783,66522,),0,0,1
3:04.911,66568,(,0,0,2
3:04.947,66581,t,0,0,1
3:04.992,66597,),0,0,2
3:05.183,66666,(,0,0,1
3:05.250,66690,N,0,0,0
3:05.289,66704,),0,0,1
3:05.392,66741,(,0,0,2
3:05.467,66768,t,0,0,0
3:05.489,66776,),0,0,2
3:05.561,66802,(,0,0,0
3:05.608,66819,p,0,0,0
3:05.661,66838,),0,0,0
3:05.739,66866,(,0,0,1
3:05.797,66887,N,0,0,0
3:05.958,66945,),0,0,1
3:05.964,66947,(,0,0,2
3:06.014,66965,t,0,0,0
3:06.064,66983,),0,0,2
3:06.186,67027,(,0,0,1
3:06.275,67059,N,0,0,0
3:06.319,67075,),0,0,1
3:06.397,67103,(,0,0,2
3:06.486,67135,t,0,0,0
3:06.550,67158,),0,0,2
3:06.603,67177,(,0,0,1
3:06.683,67206,N,0,0,0
3:06.728,67222,),0,0,1
3:06.975,67311,t,0,0,2
3:07.011,67324,),0,0,2
3:07.219,67399,(,0,0,0
3:07.261,67414,p,0,0,0
3:07.344,67444,),0,0,0
3:07.414,67469,(,0,0,1
3:07.472,67490,N,0,0,0
3:07.511,67504,),0,0,1
3:07.608,67539,(,0,0,2
3:07.703,67573,t,0,0,0
3:07.756,67592,),0,0,2
3:08.197,67751,(,0,0,1
3:08.269,67777,N,0,0,0
3:08.314,67793,),0,0,1
3:08.417,67830,(,0,0,2
3:08.519,67867,t,0,0,0
3:08.561,67882,),0,0,2
3:08.700,67932,(,0,0,1
3:08.756,67952,N,0,0,0
3:08.803,67969,),0,0,1
3:08.875,67995,(,0,0,2
3:08.967,68028,t,0,0,0
3:09.033,68052,),0,0,2
3:09.108,68079,(,0,0,1
3:09.169,68101,N,0,0,0
3:09.208,68115,),0,0,1
3:09.292,68145,(,0,0,2
3:09.383,68178,t,0,0,0
3:09.428,68194,),0,0,2
3:09.711,68296,(,0,0,0
3:09.778,68320,p,0,0,0
3:09.814,68333,),0,0,0
3:09.875,68355,(,0,0,1
3:09.944,68380,N,0,0,0
3:09.986,68395,),0,0,1
3:10.089,68432,(,0,0,2
3:10.183,68466,t,0,0,0
3:10.278,68500,),0,0,2
3:10.294,68506,(,0,0,0
3:10.344,68524,p,0,0,0
3:10.428,68554,),0,0,0
3:10.558,68601,(,0,0,1
3:10.619,68623,N,0,0,0
3:10.756,68672,),0,0,1
3:10.797,68687,(,0,0,2
3:10.842,68703,t,0,0,0
3:10.892,68721,),0,0,2
3:11.008,68763,(,0,0,0
3:11.036,68773,p,0,0,0
3:11.100,68796,),0,0,0
3:11.242,68847,(,0,0,1
3:11.311,68872,N,0,0,0
3:11.356,68888,),0,0,1
3:11.431,68915,(,0,0,2
3:11.544,68956,t,0,0,0
3:11.656,68996,),0,0,2
3:12.014,69125,(,0,0,1
3:12.081,69149,N,0,0,0
3:12.264,69215,),0,0,1
3:12.297,69227,(,0,0,2
3:12.425,69273,t,0,0,1
3:12.461,69286,),0,0,2
3:12.717,69378,(,0,0,1
3:12.783,69402,N,0,0,0
3:12.825,69417,),0,0,1
3:12.958,69465,(,0,0,2
3:13.042,69495,t,0,0,0
3:13.158,69537,),0,0,2
3:13.344,69604,(,0,0,1
3:13.419,69631,N,0,0,0
3:13.578,69688,),0,0,1
3:13.611,69700,(,0,0,2
3:13.644,69712,t,0,0,0
3:13.714,69737,),0,0,2
3:14.064,69863,(,0,0,1
3:14.128,69886,N,0,0,0
3:14.172,69902,),0,0,1
3:14.456,70004,(,0,0,2
3:14.514,70025,t,0,0,1
3:14.697,70091,),0,0,2
3:14.908,70167,(,0,0,0
3:14.944,70180,p,0,0,0
3:14.989,70196,),0,0,0
3:15.100,70236,(,0,0,1
3:15.167,70260,N,0,0,0
3:15.208,70275,),0,0,1
3:15.303,70309,(,0,0,2
3:15.472,70370,t,0,0,0
3:15.558,70401,),0,0,2
3:15.653,70435,(,0,0,0
3:15.719,70459,p,0,0,0
3:15.783,70482,),0,0,0
3:15.833,70500,(,0,0,1
3:15.900,70524,N,0,0,0
3:15.939,70538,),0,0,1
3:16.039,70574,(,0,0,2
3:16.133,70608,t,0,0,0
3:16.189,70628,),0,0,2
3:16.433,70716,(,0,0,1
3:16.503,70741,N,0,0,0
3:16.547,70757,),0,0,1
3:16.639,70790,(,0,0,2
3:16.717,70818,t,0,0,0
3:16.847,70865,),0,0,2
3:16.975,70911,(,0,0,0
3:17.058,70941,p,0,0,0
3:17.125,70965,),0,0,0
3:17.142,70971,(,0,0,1
3:17.208,70995,N,0,0,0
3:17.250,71010,),0,0,1
3:17.350,71046,(,0,0,2
3:17.428,71074,t,0,0,0
3:17.469,71089,),0,0,2
3:17.486,71095,(,0,0,1
3:17.606,71138,N,0,0,0
3:17.653,71155,),0,0,1
3:17.700,71172,(,0,0,2
3:17.806,71210,t,0,0,0
3:17.914,71249,),0,0,2
3:17.983,71274,(,0,0,0
3:18.075,71307,p,0,0,0
3:18.133,71328,),0,0,0
3:18.239,71366,(,0,0,1
3:18.308,71391,N,0,0,0
3:18.467,71448,),0,0,1
3:18.469,71449,t,0,0,2
3:18.547,71477,),0,0,2
3:18.850,71586,(,0,0,1
3:18.939,71618,N,0,0,0
3:19.083,71670,),0,0,1
3:19.125,71685,(,0,0,2
3:19.164,71699,t,0,0,0
3:19.203,71713,),0,0,2
3:19.589,71852,(,0,0,0
3:19.633,71868,p,0,0,0
3:19.686,71887,),0,0,0
3:19.697,71891,(,0,0,1
3:19.786,71923,N,0,0,0
3:19.867,71952,),0,0,1
3:19.886,71959,t,0,0,2
3:20.014,72005,),0,0,2
3:20.169,72061,(,0,0,1
3:20.250,72090,N,0,0,0
3:20.442,72159,),0,0,1
3:20.556,72200,(,0,0,2
3:20.603,72217,t,0,0,1
3:20.658,72237,),0,0,2
3:20.922,72332,(,0,0,1
3:20.992,72357,N,0,0,0
3:21.111,72400,),0,0,1
3:21.122,72404,t,0,0,2
3:21.222,72440,),0,0,2
3:21.342,72483,(,0,0,1
3:21.439,72518,N,0,0,0
3:21.628,72586,),0,0,1
3:21.647,72593,(,0,0,2
3:21.706,72614,t,0,0,1
3:21.731,72623,),0,0,2
3:21.750,72630,(,0,0,0
3:21.833,72660,p,0,0,0
3:21.903,72685,),0,0,0
3:22.042,72735,(,0,0,1
3:22.106,72758,N,0,0,0
3:22.300,72828,),0,0,1
3:22.600,72936,(,0,0,1
3:22.661,72958,N,0,0,0
3:22.714,72977,),0,0,1
3:22.794,73006,(,0,0,2
3:22.881,73037,t,0,0,0
3:22.939,73058,),0,0,2
3:23.039,73094,(,0,0,0
3:23.075,73107,p,0,0,0
3:23.156,73136,),0,0,0
3:23.175,73143,(,0,0,1
3:23.250,73170,N,0,0,0
3:23.300,73188,),0,0,1
3:23.375,73215,(,0,0,2
3:23.469,73249,t,0,0,0
3:23.514,73265,),0,0,2
3:23.792,73365,(,0,0,1
3:23.864,73391,N,0,0,0
3:23.914,73409,),0,0,1
3:24.019,73447,(,0,0,2
3:24.097,73475,t,0,0,0
3:24.158,73497,),0,0,2
3:24.297,73547,(,0,0,0
3:24.381,73577,p,0,0,0
3:24.467,73608,),0,0,0
3:24.511,73624,(,0,0,1
3:24.583,73650,N,0,0,0
3:24.706,73694,(,0,0,0
3:24.769,73717,),0,0,1
3:24.806,73730,p,0,0,0
3:24.828,73738,),0,0,0
3:24.989,73796,(,0,0,1
3:25.069,73825,N,0,0,0
3:25.250,73890,),0,0,1
3:25.275,73899,t,0,0,3
3:25.319,73915,),0,0,2
3:25.456,73964,(,0,0,0
3:25.483,73974,p,0,0,0
3:25.547,73997,),0,0,0
3:25.597,74015,(,0,0,1
3:25.686,74047,N,0,0,0
3:25.736,74065,),0,0,1
3:25.831,74099,(,0,0,2
3:25.936,74137,t,0,0,0
3:25.989,74156,),0,0,2
3:26.047,74177,(,0,0,1
3:26.139,74210,N,0,0,0
3:26.339,74282,),0,0,1
3:26.350,74286,(,0,0,2
3:26.394,74302,t,0,0,1
3:26.456,74324,),0,0,2
3:26.572,74366,(,0,0,1
3:26.706,74414,N,0,0,0
3:26.883,74478,),0,0,1
3:27.550,74718,(,0,0,1
3:27.686,74767,N,0,0,0
3:27.772,74798,),0,0,1
3:27.794,74806,t,0,0,2
3:27.933,74856,),0,0,2
3:28.008,74883,(,0,0,1
3:28.119,74923,N,0,0,0
3:28.297,74987,),0,0,1
3:28.656,75116,(,0,0,1
3:28.756,75152,N,0,0,0
3:28.953,75223,),0,0,1
3:29.094,75274,(,0,0,2
3:29.147,75293,t,0,0,1
3:29.206,75314,),0,0,2
3:29.419,75391,(,0,0,0
3:29.453,75403,p,0,0,0
3:29.508,75423,),0,0,0
3:29.586,75451,(,0,0,1
3:29.661,75478,N,0,0,0
3:29.708,75495,),0,0,1
3:29.806,75530,(,0,0,2
3:29.897,75563,t,0,0,0
3:29.978,75592,),0,0,2
3:30.042,75615,(,0,0,0
3:30.078,75628,p,0,0,0
3:30.158,75657,),0,0,0
3:30.339,75722,(,0,0,1
3:30.417,75750,N,0,0,0
3:30.611,75820,),0,0,1
3:30.625,75825,(,0,0,2
3:30.667,75840,t,0,0,5
3:30.742,75867,t,0,0,5
3:30.786,75883,),0,0,2
3:30.889,75920,(,0,0,1
3:30.969,75949,N,0,0,0
3:31.014,75965,),0,0,1
3:31.075,75987,t,0,0,2
3:31.189,76028,),0,0,2
3:31.339,76082,(,0,0,1
3:31.408,76107,N,0,0,0
3:31.453,76123,),0,0,1
3:31.531,76151,(,0,0,2
3:31.631,76187,t,0,0,0
3:31.703,76213,),0,0,2
3:31.739,76226,(,0,0,1
3:31.822,76256,N,0,0,0
3:31.861,76270,),0,0,1
3:31.953,76303,(,0,0,2
3:32.036,76333,t,0,0,0
3:32.081,76349,),0,0,2
3:32.403,76465,(,0,0,1
3:32.519,76507,N,0,0,0
3:32.564,76523,),0,0,1
3:32.672,76562,(,0,0,2
3:32.758,76593,t,0,0,0
3:32.817,76614,),0,0,2
3:32.992,76677,(,0,0,1
3:33.067,76704,N,0,0,0
3:33.108,76719,),0,0,1
3:33.181,76745,(,0,0,2
3:33.286,76783,t,0,0,0
3:33.347,76805,),0,0,2
3:33.642,76911,(,0,0,0
3:33.683,76926,p,0,0,0
3:33.744,76948,),0,0,0
3:33.800,76968,(,0,0,1
3:33.861,76990,N,0,0,0
3:33.903,77005,),0,0,1
3:33.978,77032,(,0,0,2
3:34.086,77071,t,0,0,0
3:34.125,77085,),0,0,2
3:34.228,77122,(,0,0,1
3:34.300,77148,N,0,0,0
3:34.433,77196,),0,0,1
3:34.547,77237,(,0,0,1
3:34.628,77266,N,0,0,0
3:34.814,77333,),0,0,1
3:35.197,77471,(,0,0,0
3:35.264,77495,p,0,0,0
3:35.356,77528,),0,0,0
3:35.397,77543,(,0,0,1
3:35.456,77564,N,0,0,0
3:35.500,77580,),0,0,1
3:35.617,77622,(,0,0,2
3:35.719,77659,t,0,0,0
3:35.767,77676,),0,0,2
3:35.878,77716,(,0,0,1
3:35.928,77734,N,0,0,0
3:36.089,77792,),0,0,1
3:36.106,77798,t,0,0,3
3:36.264,77855,),0,0,2
3:36.750,78030,(,0,0,0
3:36.814,78053,p,0,0,0
3:36.872,78074,),0,0,0
3:36.894,78082,(,0,0,1
3:36.972,78110,N,0,0,0
3:37.017,78126,),0,0,1
3:37.114,78161,t,0,0,2
3:37.261,78214,),0,0,2
3:37.336,78241,(,0,0,0
3:37.356,78248,p,0,0,0
3:37.403,78265,),0,0,0
3:37.422,78272,(,0,0,1
3:37.608,78339,N,0,0,0
3:37.750,78390,),0,0,1
3:37.797,78407,(,0,0,2
3:37.867,78432,t,0,0,1
3:37.933,78456,),0,0,2
3:37.961,78466,(,0,0,0
3:38.017,78486,p,0,0,0
3:38.086,78511,),0,0,0
3:38.142,78531,(,0,0,1
3:38.203,78553,N,0,0,0
3:38.336,78601,),0,0,1
3:38.406,78626,(,0,0,2
3:38.533,78672,t,0,0,0
3:38.572,78686,),0,0,2
3:38.781,78761,(,0,0,0
3:38.819,78775,p,0,0,0
3:38.850,78786,),0,0,0
3:38.869,78793,(,0,0,1
3:38.936,78817,N,0,0,0
3:39.067,78864,),0,0,1
3:39.078,78868,(,0,0,2
3:39.150,78894,t,0,0,0
3:39.203,78913,),0,0,2
3:39.225,78921,(,0,0,1
3:39.306,78950,N,0,0,0
3:39.386,78979,),0,0,1
3:39.422,78992,(,0,0,2
3:39.511,79024,t,0,0,0
3:39.597,79055,),0,0,2
3:40.169,79261,(,0,0,1
3:40.233,79284,N,0,0,0
3:40.403,79345,),0,0,1
3:40.522,79388,(,0,0,0
3:40.597,79415,p,0,0,0
3:40.675,79443,),0,0,0
3:40.692,79449,(,0,0,1
3:40.869,79513,N,0,0,0
3:41.011,79564,),0,0,1
3:41.064,79583,(,0,0,2
3:41.142,79611,t,0,0,1
3:41.231,79643,),0,0,2
3:41.419,79711,(,0,0,0
3:41.469,79729,p,0,0,0
3:41.508,79743,),0,0,0
3:41.586,79771,(,0,0,1
3:41.656,79796,N,0,0,0
3:41.828,79858,),0,0,1
3:41.906,79886,(,0,0,2
3:41.925,79893,t,0,0,4
3:42.047,79937,t,0,0,4
3:42.125,79965,),0,0,2
3:42.306,80030,(,0,0,1
3:42.414,80069,N,0,0,0
3:42.456,80084,),0,0,1
3:42.564,80123,(,0,0,2
3:42.642,80151,t,0,0,0
3:42.717,80178,),0,0,2
3:43.000,80280,(,0,0,1
3:43.069,80305,N,0,0,0
3:43.222,80360,),0,0,1
3:43.394,80422,(,0,0,2
3:43.442,80439,t,0,0,1
3:43.489,80456,),0,0,2
3:43.575,80487,(,0,0,0
3:43.667,80520,p,0,0,0
3:43.728,80542,),0,0,0
3:43.744,80548,(,0,0,1
3:43.817,80574,N,0,0,0
3:43.997,80639,),0,0,1
3:44.014,80645,(,0,0,2
3:44.208,80715,t,0,0,1
3:44.325,80757,),0,0,2
3:44.725,80901,(,0,0,0
3:44.806,80930,p,0,0,0
3:44.856,80948,),0,0,0
3:44.922,80972,(,0,0,1
3:44.989,80996,N,0,0,0
3:45.139,81050,),0,0,1
3:45.314,81113,(,0,0,0
3:45.336,81121,p,0,0,0
3:45.378,81136,),0,0,0
3:45.392,81141,(,0,0,1
3:45.572,81206,N,0,0,0
3:45.708,81255,),0,0,1
3:45.831,81299,(,0,0,0
3:45.861,81310,p,0,0,0
3:45.894,81322,),0,0,0
3:45.994,81358,(,0,0,1
3:46.064,81383,N,0,0,0
3:46.106,81398,),0,0,1
3:46.258,81453,(,0,0,2
3:46.381,81497,t,0,0,0
3:46.436,81517,),0,0,2
3:46.719,81619,(,0,0,1
3:46.783,81642,N,0,0,0
3:46.828,81658,),0,0,1
3:46.906,81686,(,0,0,2
3:47.022,81728,t,0,0,0
3:47.133,81768,),0,0,2
3:47.350,81846,(,0,0,1
3:47.411,81868,N,0,0,0
3:47.536,81913,),0,0,1
3:47.542,81915,(,0,0,2
3:47.633,81948,t,0,0,0
3:47.692,81969,),0,0,2
3:47.939,82058,(,0,0,0
3:47.969,82069,p,0,0,0
3:48.022,82088,),0,0,0
3:48.033,82092,(,0,0,1
3:48.136,82129,N,0,0,0
3:48.189,82148,),0,0,1
3:48.275,82179,(,0,0,2
3:48.436,82237,t,0,0,0
3:48.547,82277,),0,0,2
3:48.675,82323,(,0,0,0
3:48.731,82343,p,0,0,0
3:48.767,82356,),0,0,0
3:48.800,82368,(,0,0,1
3:48.869,82393,N,0,0,0
3:48.914,82409,),0,0,1
3:48.997,82439,(,0,0,2
3:49.092,82473,t,0,0,0
3:49.139,82490,),0,0,2
3:49.364,82571,(,0,0,0
3:49.419,82591,p,0,0,0
3:49.542,82635,),0,0,0
3:49.564,82643,(,0,0,1
3:49.633,82668,N,0,0,0
3:49.669,82681,),0,0,1
3:49.764,82715,(,0,0,2
3:49.861,82750,t,0,0,0
3:49.900,82764,),0,0,2
3:50.408,82947,(,0,0,1
3:50.475,82971,N,0,0,0
3:50.675,83043,),0,0,1
3:50.969,83149,(,0,0,1
3:51.031,83171,N,0,0,0
3:51.200,83232,),0,0,1
3:51.239,83246,t,0,0,3
3:51.322,83276,),0,0,2
3:51.475,83331,(,0,0,1
3:51.542,83355,N,0,0,0
3:51.636,83389,),0,0,1
3:51.711,83416,(,0,0,2
3:51.794,83446,t,0,0,0
3:51.878,83476,),0,0,2
3:52.206,83594,(,0,0,0
3:52.242,83607,p,0,0,0
3:52.267,83616,),0,0,0
3:52.342,83643,(,0,0,1
3:52.458,83685,N,0,0,0
3:52.497,83699,),0,0,1
3:52.589,83732,(,0,0,2
3:52.700,83772,t,0,0,0
3:52.733,83784,),0,0,2
3:52.767,83796,(,0,0,0
3:52.808,83811,p,0,0,0
3:52.858,83829,),0,0,0
3:52.958,83865,(,0,0,1
3:53.019,83887,N,0,0,0
3:53.064,83903,),0,0,1
3:53.156,83936,(,0,0,2
3:53.236,83965,t,0,0,0
3:53.317,83994,),0,0,2
3:53.375,84015,(,0,0,1
3:53.467,84048,N,0,0,0
3:53.667,84120,),0,0,1
3:53.933,84216,(,0,0,0
3:53.969,84229,p,0,0,0
3:54.028,84250,),0,0,0
3:54.081,84269,(,0,0,1
3:54.150,84294,N,0,0,0
3:54.194,84310,),0,0,1
3:54.292,84345,(,0,0,2
3:54.408,84387,t,0,0,0
3:54.525,84429,),0,0,2
3:54.628,84466,(,0,0,0
3:54.697,84491,p,0,0,0
3:54.767,84516,),0,0,0
3:54.822,84536,(,0,0,1
3:54.894,84562,N,0,0,0
3:54.942,84579,),0,0,1
3:55.036,84613,(,0,0,2
3:55.136,84649,t,0,0,0
3:55.203,84673,),0,0,2
3:55.289,84704,(,0,0,0
3:55.311,84712,p,0,0,0
3:55.353,84727,),0,0,0
3:55.522,84788,(,0,0,1
3:55.594,84814,N,0,0,0
3:55.772,84878,),0,0,1
3:55.811,84892,(,0,0,2
3:55.886,84919,t,0,0,1
3:55.914,84929,),0,0,2
3:56.350,85086,(,0,0,1
3:56.408,85107,N,0,0,0
3:56.556,85160,),0,0,1
3:56.578,85168,(,0,0,2
3:56.636,85189,t,0,0,0
3:56.667,85200,),0,0,2
3:56.753,85231,(,0,0,0
3:56.814,85253,p,0,0,0
3:56.864,85271,),0,0,0
3:56.936,85297,(,0,0,1
3:57.000,85320,N,0,0,0
3:57.044,85336,),0,0,1
3:57.169,85381,(,0,0,0
3:57.231,85403,p,0,0,0
3:57.269,85417,),0,0,0
3:57.294,85426,(,0,0,1
3:57.364,85451,N,0,0,0
3:57.494,85498,),0,0,1
3:57.539,85514,(,0,0,2
3:57.575,85527,t,0,0,0
3:57.614,85541,),0,0,2
3:57.692,85569,(,0,0,1
3:57.753,85591,N,0,0,0
3:57.928,85654,),0,0,1
3:57.967,85668,(,0,0,2
3:58.092,85713,t,0,0,1
3:58.172,85742,),0,0,2
3:58.233,85764,(,0,0,0
3:58.278,85780,p,0,0,0
3:58.322,85796,),0,0,0
3:58.356,85808,(,0,0,1
3:58.422,85832,N,0,0,0
3:58.594,85894,),0,0,1
3:58.961,86026,(,0,0,1
3:59.028,86050,N,0,0,0
3:59.067,86064,),0,0,1
3:59.161,86098,(,0,0,2
3:59.247,86129,t,0,0,0
3:59.331,86159,),0,0,2
3:59.344,86164,(,0,0,0
3:59.369,86173,p,0,0,0
3:59.475,86211,),0,0,0
3:59.600,86256,(,0,0,1
3:59.697,86291,N,0,0,0
3:59.739,86306,),0,0,1
3:59.817,86334,(,0,0,2
3:59.911,86368,t,0,0,0
3:59.933,86376,),0,0,2
4:00.042,86415,(,0,0,0
4:00.092,86433,p,0,0,0
4:00.164,86459,),0,0,0
4:00.183,86466,(,0,0,1
4:00.247,86489,N,0,0,0
4:00.292,86505,),0,0,1
4:00.411,86548,(,0,0,2
4:00.478,86572,t,0,0,0
4:00.525,86589,),0,0,2
4:00.897,86723,(,0,0,0
4:00.961,86746,p,0,0,0
4:01.003,86761,),0,0,0
4:01.072,86786,(,0,0,1
4:01.142,86811,N,0,0,0
4:01.192,86829,),0,0,1
4:01.314,86873,(,0,0,2
4:01.411,86908,t,0,0,0
4:01.469,86929,),0,0,2
4:01.553,86959,(,0,0,0
4:01.583,86970,p,0,0,0
4:01.633,86988,),0,0,0
4:01.825,87057,(,0,0,1
4:01.911,87088,N,0,0,0
4:02.108,87159,),0,0,1
4:02.197,87191,),0,0,2
4:02.236,87205,t,0,0,1
4:02.275,87219,(,0,0,2
4:02.283,87222,(,0,0,0
4:02.314,87233,p,0,0,0
4:02.361,87250,),0,0,0
4:02.467,87288,(,0,0,1
4:02.558,87321,N,0,0,0
4:02.656,87356,),0,0,1
4:02.733,87384,(,0,0,2
4:02.819,87415,t,0,0,0
4:02.917,87450,),0,0,2
4:03.286,87583,(,0,0,1
4:03.369,87613,N,0,0,0
4:03.497,87659,),0,0,1
4:03.522,87668,(,0,0,2
4:03.622,87704,t,0,0,0
4:03.756,87752,),0,0,2
4:03.897,87803,(,0,0,0
4:03.931,87815,p,0,0,0
4:03.992,87837,),0,0,0
4:04.011,87844,(,0,0,1
4:04.075,87867,N,0,0,0
4:04.117,87882,),0,0,1
4:04.233,87924,(,0,0,2
4:04.333,87960,t,0,0,0
4:04.414,87989,),0,0,2
4:04.528,88030,(,0,0,0
4:04.567,88044,p,0,0,0
4:04.600,88056,),0,0,0
4:04.719,88099,(,0,0,1
4:04.794,88126,N,0,0,0
4:04.833,88140,),0,0,1
4:04.914,88169,(,0,0,2
4:05.017,88206,t,0,0,0
4:05.067,88224,),0,0,2
4:05.133,88248,(,0,0,0
4:05.175,88263,p,0,0,0
4:05.242,88287,),0,0,0
4:05.425,88353,(,0,0,1
4:05.489,88376,N,0,0,0
4:05.531,88391,),0,0,1
4:05.614,88421,(,0,0,2
4:05.722,88460,t,0,0,0
4:05.778,88480,),0,0,2
4:05.850,88506,(,0,0,1
4:05.928,88534,N,0,0,0
4:06.083,88590,),0,0,1
4:06.383,88698,(,0,0,0
4:06.425,88713,p,0,0,0
4:06.483,88734,),0,0,0
4:06.542,88755,(,0,0,1
4:06.628,88786,N,0,0,0
4:06.675,88803,),0,0,1
4:06.831,88859,(,0,0,2
4:06.947,88901,t,0,0,0
4:07.031,88931,),0,0,2
4:07.181,88985,(,0,0,1
4:07.242,89007,N,0,0,0
4:07.289,89024,),0,0,1
4:07.394,89062,(,0,0,2
4:07.500,89100,t,0,0,0
4:07.581,89129,),0,0,2
4:07.725,89181,(,0,0,0
4:07.758,89193,p,0,0,0
4:07.789,89204,),0,0,0
4:07.808,89211,(,0,0,1
4:07.878,89236,N,0,0,0
4:07.983,89274,),0,0,1
4:08.050,89298,(,0,0,2
4:08.117,89322,t,0,0,0
4:08.153,89335,),0,0,2
4:08.422,89432,(,0,0,0
4:08.444,89440,p,0,0,0
4:08.489,89456,),0,0,0
4:08.506,89462,(,0,0,1
4:08.694,89530,N,0,0,0
4:08.811,89572,),0,0,1
4:08.986,89635,(,0,0,1
4:09.056,89660,N,0,0,0
4:09.100,89676,),0,0,1
4:09.147,89693,t,0,0,2
4:09.264,89735,),0,0,2
4:09.356,89768,(,0,0,1
4:09.414,89789,N,0,0,0
4:09.456,89804,),0,0,1
4:09.569,89845,(,0,0,2
4:09.650,89874,t,0,0,0
4:09.678,89884,),0,0,2
4:09.739,89906,(,0,0,1
4:09.800,89928,N,0,0,0
4:09.842,89943,),0,0,1
4:09.933,89976,t,0,0,2
4:10.019,90007,),0,0,2
4:10.139,90050,(,0,0,1
4:10.200,90072,N,0,0,0
4:10.242,90087,),0,0,1
4:10.331,90119,(,0,0,2
4:10.408,90147,t,0,0,0
4:10.433,90156,),0,0,2
4:10.461,90166,(,0,0,1
4:10.539,90194,N,0,0,0
4:10.725,90261,),0,0,1
4:10.814,90293,(,0,0,2
4:10.842,90303,t,0,0,0
4:10.889,90320,),0,0,2
4:11.214,90437,(,0,0,0
4:11.300,90468,p,0,0,0
4:11.336,90481,),0,0,0
4:11.350,90486,(,0,0,1
4:11.422,90512,N,0,0,0
4:11.544,90556,),0,0,1
4:11.622,90584,(,0,0,2
4:11.736,90625,t,0,0,0
4:11.792,90645,),0,0,2
4:11.928,90694,(,0,0,0
4:11.981,90713,p,0,0,0
4:12.036,90733,),0,0,0
4:12.094,90754,(,0,0,1
4:12.169,90781,N,0,0,0
4:12.208,90795,),0,0,1
4:12.294,90826,t,0,0,2
4:12.397,90863,),0,0,2
4:12.847,91025,(,0,0,0
4:12.872,91034,p,0,0,0
4:12.917,91050,),0,0,0
4:12.933,91056,(,0,0,1
4:13.006,91082,N,0,0,0
4:13.147,91133,),0,0,1
4:13.217,91158,(,0,0,2
4:13.272,91178,t,0,0,0
4:13.297,91187,),0,0,2
4:13.608,91299,(,0,0,0
4:13.658,91317,p,0,0,0
4:13.736,91345,),0,0,0
4:13.778,91360,(,0,0,1
4:13.844,91384,N,0,0,0
4:13.881,91397,),0,0,1
4:13.983,91434,(,0,0,2
4:14.064,91463,t,0,0,0
4:14.147,91493,),0,0,2
4:14.269,91537,(,0,0,0
4:14.306,91550,p,0,0,0
4:14.367,91572,),0,0,0
4:14.447,91601,(,0,0,1
4:14.514,91625,N,0,0,0
4:14.614,91661,),0,0,1
4:14.656,91676,(,0,0,2
4:14.761,91714,t,0,0,0
4:14.814,91733,),0,0,2
4:15.017,91806,(,0,0,0
4:15.086,91831,p,0,0,0
4:15.142,91851,),0,0,0
4:15.158,91857,(,0,0,1
4:15.231,91883,N,0,0,0
4:15.292,91905,),0,0,1
4:15.322,91916,(,0,0,2
4:15.406,91946,t,0,0,0
4:15.497,91979,),0,0,2
4:15.617,92022,(,0,0,0
4:15.658,92037,p,0,0,0
4:15.731,92063,),0,0,0
4:15.806,92090,(,0,0,1
4:15.881,92117,N,0,0,0
4:15.925,92133,),0,0,1
4:16.047,92177,t,0,0,2
4:16.117,92202,),0,0,2
4:16.222,92240,(,0,0,1
4:16.317,92274,N,0,0,0
4:16.358,92289,),0,0,1
4:16.414,92309,(,0,0,2
4:16.508,92343,t,0,0,0
4:16.558,92361,),0,0,2
4:16.972,92510,(,0,0,0
4:16.997,92519,p,0,0,0
4:17.050,92538,),0,0,0
4:17.239,92606,(,0,0,1
4:17.311,92632,N,0,0,0
4:17.350,92646,),0,0,1
4:17.403,92665,t,0,0,2
4:17.556,92720,),0,0,2
4:17.656,92756,(,0,0,1
4:17.750,92790,N,0,0,0
4:17.844,92824,),0,0,1
4:17.858,92829,(,0,0,2
4:17.942,92859,t,0,0,0
4:18.092,92913,),0,0,2
4:18.792,93165,(,0,0,1
4:18.867,93192,N,0,0,0
4:18.914,93209,),0,0,1
4:19.036,93253,t,0,0,2
4:19.169,93301,),0,0,2
4:19.450,93402,(,0,0,1
4:19.525,93429,N,0,0,0
4:19.572,93446,),0,0,1
4:19.650,93474,(,0,0,2
4:19.753,93511,t,0,0,0
4:19.889,93560,),0,0,2
4:19.908,93567,(,0,0,0
4:19.983,93594,p,0,0,0
4:20.019,93607,),0,0,0
4:20.067,93624,(,0,0,1
4:20.175,93663,N,0,0,0
4:20.339,93722,),0,0,1
4:20.347,93725,(,0,0,2
4:20.414,93749,t,0,0,5
4:20.578,93808,t,0,0,5
4:20.631,93827,),0,0,2
4:20.706,93854,(,0,0,0
4:20.739,93866,p,0,0,0
4:20.783,93882,),0,0,0
4:20.914,93929,(,0,0,1
4:20.986,93955,N,0,0,0
4:21.028,93970,),0,0,1
4:21.136,94009,(,0,0,2
4:21.258,94053,t,0,0,0
4:21.358,94089,),0,0,2
4:21.494,94138,(,0,0,0
4:21.567,94164,p,0,0,0
4:21.633,94188,),0,0,0
4:21.742,94227,(,0,0,1
4:21.800,94248,N,0,0,0
4:21.931,94295,),0,0,1
4:21.953,94303,(,0,0,2
4:22.028,94330,t,0,0,0
4:22.156,94376,),0,0,2
4:22.172,94382,(,0,0,0
4:22.247,94409,p,0,0,0
4:22.289,94424,),0,0,0
4:22.303,94429,(,0,0,1
4:22.392,94461,N,0,0,0
4:22.547,94517,),0,0,1
4:22.592,94533,(,0,0,2
4:22.703,94573,t,0,0,0
4:22.756,94592,),0,0,2
4:22.906,94646,(,0,0,1
4:22.969,94669,N,0,0,0
4:23.014,94685,),0,0,1
4:23.114,94721,(,0,0,2
4:23.186,94747,t,0,0,0
4:23.261,94774,),0,0,2
4:23.778,94960,(,0,0,1
4:23.858,94989,N,0,0,0
4:23.906,95006,),0,0,1
4:24.044,95056,(,0,0,2
4:24.200,95112,t,0,0,0
4:24.314,95153,),0,0,2
4:24.450,95202,(,0,0,0
4:24.492,95217,p,0,0,0
4:24.550,95238,),0,0,0
4:24.594,95254,(,0,0,1
4:24.669,95281,N,0,0,0
4:24.714,95297,),0,0,1
4:24.792,95325,(,0,0,2
4:24.939,95378,t,0,0,0
4:25.031,95411,),0,0,2
4:25.522,95588,(,0,0,1
4:25.658,95637,N,0,0,0
4:25.811,95692,),0,0,1
4:25.814,95693,t,0,0,2
4:25.897,95723,),0,0,2
4:25.942,95739,(,0,0,0
4:25.978,95752,p,0,0,0
4:26.042,95775,),0,0,0
4:26.067,95784,(,0,0,1
4:26.147,95813,N,0,0,0
4:26.189,95828,),0,0,1
4:26.281,95861,(,0,0,0
4:26.358,95889,p,0,0,0
4:26.408,95907,),0,0,0
4:26.428,95914,(,0,0,1
4:26.492,95937,N,0,0,0
4:26.614,95981,),0,0,1
4:26.619,95983,(,0,0,2
4:26.700,96012,t,0,0,0
4:26.742,96027,),0,0,2
4:27.039,96134,(,0,0,0
4:27.117,96162,p,0,0,0
4:27.175,96183,),0,0,0
4:27.283,96222,(,0,0,1
4:27.375,96255,N,0,0,0
4:27.508,96303,),0,0,1
4:27.525,96309,(,0,0,2
4:27.603,96337,t,0,0,0
4:27.628,96346,),0,0,2
4:27.733,96384,(,0,0,1
4:27.828,96418,N,0,0,0
4:27.914,96449,),0,0,1
4:27.925,96453,(,0,0,2
4:28.008,96483,t,0,0,0
4:28.128,96526,),0,0,2
4:28.417,96630,(,0,0,0
4:28.461,96646,p,0,0,0
4:28.561,96682,),0,0,0
4:28.667,96720,(,0,0,1
4:28.736,96745,N,0,0,0
4:28.781,96761,),0,0,1
4:28.864,96791,(,0,0,0
4:28.883,96798,p,0,0,0
4:28.983,96834,),0,0,0
4:29.061,96862,(,0,0,1
4:29.122,96884,N,0,0,0
4:29.192,96909,),0,0,1
4:29.194,96910,t,0,0,2
4:29.344,96964,),0,0,2
4:29.414,96989,(,0,0,1
4:29.500,97020,N,0,0,0
4:29.553,97039,),0,0,1
4:29.583,97050,(,0,0,2
4:29.736,97105,t,0,0,0
4:29.861,97150,),0,0,2
4:30.278,97300,(,0,0,0
4:30.369,97333,p,0,0,0
4:30.447,97361,),0,0,0
4:30.469,97369,(,0,0,1
4:30.536,97393,N,0,0,0
4:30.583,97410,),0,0,1
4:30.697,97451,(,0,0,2
4:30.906,97526,t,0,0,0
4:30.933,97536,),0,0,2
4:31.114,97601,(,0,0,1
4:31.211,97636,N,0,0,0
4:31.333,97680,),0,0,1
4:31.339,97682,(,0,0,2
4:31.450,97722,t,0,0,0
4:31.614,97781,),0,0,2
4:31.675,97803,(,0,0,0
4:31.706,97814,p,0,0,0
4:31.767,97836,),0,0,0
4:31.953,97903,(,0,0,1
4:32.022,97928,N,0,0,0
4:32.067,97944,),0,0,1
4:32.158,97977,(,0,0,2
4:32.322,98036,t,0,0,0
4:32.394,98062,),0,0,2
4:32.536,98113,(,0,0,1
4:32.636,98149,N,0,0,0
4:32.683,98166,),0,0,1
4:32.750,98190,(,0,0,2
4:32.856,98228,t,0,0,0
4:32.947,98261,),0,0,2
4:33.064,98303,(,0,0,0
4:33.092,98313,p,0,0,0
4:33.144,98332,),0,0,0
4:33.275,98379,(,0,0,1
4:33.361,98410,N,0,0,0
4:33.411,98428,),0,0,1
4:33.492,98457,(,0,0,2
4:33.583,98490,t,0,0,0
4:33.628,98506,),0,0,2
4:34.058,98661,(,0,0,1
4:34.156,98696,N,0,0,0
4:34.203,98713,),0,0,1
4:34.272,98738,t,0,0,2
4:34.375,98775,),0,0,2
4:34.503,98821,(,0,0,1
4:34.583,98850,N,0,0,0
4:34.700,98892,(,0,0,0
4:34.744,98908,),0,0,1
4:34.783,98922,p,0,0,0
4:34.842,98943,),0,0,0
4:34.856,98948,(,0,0,1
4:34.939,98978,N,0,0,0
4:35.136,99049,),0,0,1
4:35.200,99072,(,0,0,1
4:35.308,99111,N,0,0,0
4:35.494,99178,),0,0,1
4:37.208,99795,(,0,0,1
4:37.289,99824,N,0,0,0
4:37.319,99835,),0,0,1
4:37.339,99842,(,0,0,2
4:37.486,99895,t,0,0,0
4:37.653,99955,),0,0,2
4:41.153,101215,(,0,0,1
4:41.347,101285,N,0,0,0
4:41.347,101285,),0,0,1
4:41.953,101503,(,0,0,2
4:42.000,101520,t,0,0,0
4:42.056,101540,),0,0,2
4:48.053,103699,(,0,0,1
4:48.292,103785,N,0,0,0
4:48.294,103786,),0,0,1
4:48.867,103992,(,0,0,2
4:48.928,104014,t,0,0,0
4:48.994,104038,),0,0,2
4:52.317,105234,(,0,0,1
4:52.394,105262,N,0,0,0
4:52.428,105274,),0,0,1
4:52.494,105298,(,0,0,2
4:52.583,105330,t,0,0,0
4:52.742,105387,),0,0,2
5:01.819,108655,(,0,0,1
5:02.072,108746,N,0,0,0
5:02.075,108747,),0,0,1
5:02.317,108834,(,0,0,2
5:02.556,108920,t,0,0,1
5:02.764,108995,),0,0,2
5:03.053,109099,(,0,0,1
5:03.081,109109,N,0,0,0
5:03.147,109133,),0,0,1
5:03.772,109358,(,0,0,2
5:03.819,109375,t,0,0,0
5:03.886,109399,),0,0,2
5:04.472,109610,(,0,0,1
5:04.525,109629,N,0,0,0
5:04.567,109644,),0,0,1
5:04.881,109757,(,0,0,2
5:04.931,109775,t,0,0,5
5:05.233,109884,t,0,0,5
5:05.317,109914,),0,0,2
5:08.111,110920,(,0,0,1
5:08.228,110962,N,0,0,0
5:08.283,110982,),0,0,1
5:08.903,111205,(,0,0,2
5:08.947,111221,t,0,0,0
5:09.003,111241,),0,0,2
5:38.386,121819,(,0,0,1
5:38.456,121844,N,0,0,0
5:38.525,121869,),0,0,1
5:39.050,122058,(,0,0,2
5:39.094,122074,t,0,0,0
5:39.147,122093,),0,0,2
5:42.142,123171,(,0,0,1
5:42.214,123197,N,0,0,0
5:42.217,123198,),0,0,1
5:42.228,123202,(,0,0,2
5:42.672,123362,t,0,0,0
5:43.006,123482,),0,0,2
6:17.375,135855,(,0,0,1
6:17.464,135887,N,0,0,0
6:17.517,135906,),0,0,1
6:17.586,135931,(,0,0,2
6:17.672,135962,t,0,0,0
6:17.767,135996,),0,0,2
6:19.003,136441,(,0,0,1
6:19.072,136466,N,0,0,0
6:19.075,136467,),0,0,1
6:19.083,136470,(,0,0,2
6:19.464,136607,t,0,0,0
6:19.717,136698,),0,0,2
6:27.264,139415,(,0,0,1
6:27.319,139435,N,0,0,0
6:27.414,139469,),0,0,1
6:27.833,139620,(,0,0,2
6:27.875,139635,t,0,0,0
6:27.925,139653,),0,0,2
6:28.308,139791,(,0,0,1
6:28.356,139808,N,0,0,0
6:28.428,139834,),0,0,1
6:28.489,139856,(,0,0,2
6:28.606,139898,t,0,0,0
6:28.694,139930,),0,0,2
6:28.939,140018,(,0,0,1
6:28.992,140037,N,0,0,0
6:29.078,140068,),0,0,1
6:29.636,140269,(,0,0,2
6:29.683,140286,t,0,0,0
6:29.739,140306,),0,0,2
6:31.286,140863,(,0,0,1
6:31.356,140888,N,0,0,0
6:31.489,140936,),0,0,1
6:31.500,140940,(,0,0,2
6:31.606,140978,t,0,0,5
6:31.767,141036,t,0,0,5
6:31.817,141054,),0,0,2
6:32.072,141146,(,0,0,1
6:32.131,141167,N,0,0,0
6:32.253,141211,),0,0,1
6:32.428,141274,(,0,0,2
6:32.467,141288,t,0,0,4
6:32.900,141444,t,0,0,4
6:32.997,141479,),0,0,2
6:35.250,142290,(,0,0,1
6:35.303,142309,N,0,0,0
6:35.392,142341,),0,0,1
6:35.839,142502,(,0,0,2
6:35.903,142525,t,0,0,0
6:35.958,142545,),0,0,2
6:37.814,143213,(,0,0,1
6:37.867,143232,N,0,0,0
6:37.961,143266,),0,0,1
6:38.414,143429,(,0,0,2
6:38.464,143447,t,0,0,0
6:38.525,143469,),0,0,2
6:38.814,143573,(,0,0,1
6:38.886,143599,N,0,0,0
6:38.911,143608,),0,0,1
6:39.536,143833,(,0,0,2
6:39.569,143845,t,0,0,0
6:39.625,143865,),0,0,2
6:41.858,144669,(,0,0,1
6:41.939,144698,N,0,0,0
6:41.975,144711,),0,0,1
6:42.525,144909,(,0,0,2
6:42.575,144927,t,0,0,0
6:42.642,144951,),0,0,2
6:45.264,145895,(,0,0,1
6:45.319,145915,N,0,0,0
6:45.394,145942,),0,0,1
6:45.636,146029,(,0,0,2
6:45.681,146045,t,0,0,5
6:45.942,146139,t,0,0,5
6:46.014,146165,),0,0,2
6:47.603,146737,(,0,0,1
6:47.656,146756,N,0,0,0
6:47.739,146786,),0,0,1
6:47.817,146814,(,0,0,2
6:47.914,146849,t,0,0,0
6:47.964,146867,),0,0,2
6:48.339,147002,(,0,0,1
6:48.397,147023,N,0,0,0
6:48.494,147058,),0,0,1
6:49.008,147243,(,0,0,2
6:49.064,147263,t,0,0,0
6:49.119,147283,),0,0,2
6:50.364,147731,(,0,0,1
6:50.419,147751,N,0,0,0
6:50.475,147771,),0,0,1
6:50.831,147899,(,0,0,2
6:51.006,147962,t,0,0,5
6:51.142,148011,t,0,0,5
6:51.297,148067,),0,0,2
6:53.206,148754,(,0,0,1
6:53.256,148772,N,0,0,0
6:53.339,148802,),0,0,1
6:53.414,148829,(,0,0,2
6:53.497,148859,t,0,0,0
6:53.531,148871,),0,0,2
6:53.578,148888,(,0,0,1
6:53.650,148914,N,0,0,0
6:53.719,148939,),0,0,1
6:53.728,148942,(,0,0,2
6:53.894,149002,t,0,0,0
6:53.964,149027,),0,0,2
6:54.325,149157,(,0,0,1
6:54.375,149175,N,0,0,0
6:54.458,149205,),0,0,1
6:54.542,149235,(,0,0,2
6:54.639,149270,t,0,0,0
6:54.689,149288,),0,0,2
6:54.756,149312,(,0,0,0
6:54.778,149320,p,0,0,0
6:54.828,149338,),0,0,0
6:54.850,149346,(,0,0,1
6:54.997,149399,N,0,0,0
6:55.181,149465,),0,0,1
6:55.422,149552,(,0,0,2
6:55.475,149571,t,0,0,0
6:55.533,149592,),0,0,2
6:57.092,150153,(,0,0,1
6:57.153,150175,N,0,0,0
6:57.244,150208,),0,0,1
6:57.286,150223,t,0,0,2
6:57.403,150265,),0,0,2
6:57.669,150361,(,0,0,1
6:57.728,150382,N,0,0,0
6:57.833,150420,),0,0,1
6:57.842,150423,(,0,0,2
6:57.933,150456,t,0,0,0
6:57.975,150471,),0,0,2
6:58.181,150545,(,0,0,1
6:58.228,150562,N,0,0,0
6:58.289,150584,),0,0,1
6:58.569,150685,(,0,0,2
6:58.597,150695,t,0,0,0
6:58.650,150714,),0,0,2
6:59.275,150939,(,0,0,1
6:59.331,150959,N,0,0,0
6:59.392,150981,),0,0,1
6:59.458,151005,t,0,0,2
6:59.569,151045,),0,0,2
6:59.961,151186,(,0,0,1
7:00.022,151208,N,0,0,0
7:00.086,151231,),0,0,1
7:00.128,151246,(,0,0,2
7:00.233,151284,t,0,0,0
7:00.286,151303,),0,0,2
7:00.667,151440,(,0,0,1
7:00.725,151461,N,0,0,0
7:00.772,151478,),0,0,1
7:00.869,151513,(,0,0,2
7:00.958,151545,t,0,0,0
7:00.997,151559,),0,0,2
7:01.619,151783,(,0,0,1
7:01.672,151802,N,0,0,0
7:01.739,151826,),0,0,1
7:01.775,151839,(,0,0,2
7:01.961,151906,t,0,0,0
7:02.006,151922,),0,0,2
7:02.553,152119,(,0,0,1
7:02.606,152138,N,0,0,0
7:02.647,152153,),0,0,1
7:02.697,152171,(,0,0,2
7:02.719,152179,t,0,0,4
7:02.822,152216,t,0,0,4
7:02.867,152232,),0,0,2
7:03.072,152306,(,0,0,1
7:03.122,152324,N,0,0,0
7:03.169,152341,),0,0,1
7:03.222,152360,(,0,0,2
7:03.308,152391,t,0,0,0
7:03.356,152408,),0,0,2
7:03.622,152504,(,0,0,1
7:03.692,152529,N,0,0,0
7:03.753,152551,),0,0,1
7:03.794,152566,(,0,0,2
7:03.825,152577,t,0,0,4
7:03.917,152610,t,0,0,4
7:04.008,152643,),0,0,2
7:04.306,152750,(,0,0,1
7:04.367,152772,N,0,0,0
7:04.422,152792,),0,0,1
7:04.483,152814,(,0,0,2
7:04.611,152860,t,0,0,0
7:04.706,152894,),0,0,2
7:05.044,153016,(,0,0,1
7:05.103,153037,N,0,0,0
7:05.186,153067,),0,0,1
7:05.847,153305,(,0,0,2
7:05.897,153323,t,0,0,0
7:05.953,153343,),0,0,2
7:08.058,154101,(,0,0,1
7:08.114,154121,N,0,0,0
7:08.169,154141,),0,0,1
7:08.472,154250,(,0,0,2
7:08.517,154266,t,0,0,1
7:08.711,154336,),0,0,2
7:09.442,154599,(,0,0,1
7:09.489,154616,N,0,0,0
7:09.569,154645,),0,0,1
7:09.633,154668,t,0,0,2
7:09.733,154704,),0,0,2
7:10.122,154844,(,0,0,1
7:10.178,154864,N,0,0,0
7:10.253,154891,),0,0,1
7:10.550,154998,(,0,0,1
7:10.586,155011,N,0,0,0
7:10.625,155025,),0,0,1
7:10.703,155053,(,0,0,2
7:10.797,155087,t,0,0,0
7:10.847,155105,),0,0,2
7:11.219,155239,(,0,0,1
7:11.283,155262,N,0,0,0
7:11.331,155279,),0,0,1
7:11.444,155320,t,0,0,2
7:11.567,155364,),0,0,2
7:11.856,155468,(,0,0,1
7:11.908,155487,N,0,0,0
7:12.003,155521,),0,0,1
7:12.044,155536,(,0,0,2
7:12.122,155564,t,0,0,0
7:12.206,155594,),0,0,2
7:12.939,155858,(,0,0,1
7:12.997,155879,N,0,0,0
7:13.072,155906,),0,0,1
7:13.142,155931,t,0,0,2
7:13.247,155969,),0,0,2
7:13.336,156001,(,0,0,0
7:13.350,156006,p,0,0,0
7:13.375,156015,),0,0,0
7:13.525,156069,(,0,0,1
7:13.597,156095,N,0,0,0
7:13.667,156120,),0,0,1
7:13.728,156142,(,0,0,2
7:13.819,156175,t,0,0,0
7:13.892,156201,),0,0,2
7:14.506,156422,(,0,0,1
7:14.558,156441,N,0,0,0
7:14.619,156463,),0,0,1
7:14.694,156490,(,0,0,2
7:14.831,156539,t,0,0,0
7:14.933,156576,),0,0,2
7:15.247,156689,(,0,0,1
7:15.297,156707,N,0,0,0
7:15.372,156734,),0,0,1
7:15.439,156758,(,0,0,2
7:15.522,156788,t,0,0,0
7:15.603,156817,),0,0,2
7:15.919,156931,(,0,0,1
7:15.967,156948,N,0,0,0
7:16.067,156984,),0,0,1
7:16.086,156991,(,0,0,2
7:16.189,157028,t,0,0,0
7:16.258,157053,),0,0,2
7:16.619,157183,(,0,0,1
7:16.678,157204,N,0,0,0
7:16.767,157236,),0,0,1
7:17.069,157345,(,0,0,2
7:17.111,157360,t,0,0,0
7:17.169,157381,),0,0,2
7:18.047,157697,(,0,0,1
7:18.108,157719,N,0,0,0
7:18.186,157747,),0,0,1
7:18.481,157853,(,0,0,1
7:18.575,157887,N,0,0,0
7:18.578,157888,),0,0,1
7:18.592,157893,(,0,0,2
7:18.969,158029,t,0,0,0
7:19.222,158120,),0,0,2
7:20.519,158587,(,0,0,1
7:20.575,158607,N,0,0,0
7:20.636,158629,),0,0,1
7:20.692,158649,(,0,0,2
7:20.811,158692,t,0,0,0
7:20.844,158704,),0,0,2
7:21.236,158845,(,0,0,1
7:21.292,158865,N,0,0,0
7:21.367,158892,),0,0,1
7:21.642,158991,(,0,0,2
7:21.683,159006,t,0,0,1
7:21.728,159022,),0,0,2
7:21.983,159114,(,0,0,1
7:22.061,159142,N,0,0,0
7:22.136,159169,),0,0,1
7:22.225,159201,(,0,0,2
7:22.328,159238,t,0,0,0
7:22.408,159267,),0,0,2
7:22.853,159427,(,0,0,1
7:22.928,159454,N,0,0,0
7:23.033,159492,),0,0,1
7:23.067,159504,t,0,0,2
7:23.172,159542,),0,0,2
7:23.369,159613,(,0,0,1
7:23.519,159667,N,0,0,0
7:23.697,159731,),0,0,1
7:24.006,159842,(,0,0,2
7:24.056,159860,t,0,0,0
7:24.114,159881,),0,0,2
7:25.522,160388,(,0,0,1
7:25.575,160407,N,0,0,0
7:25.653,160435,),0,0,1
7:26.286,160663,(,0,0,2
7:26.342,160683,t,0,0,0
7:26.403,160705,),0,0,2
7:28.169,161341,(,0,0,1
7:28.322,161396,N,0,0,0
7:28.422,161432,),0,0,1
7:28.822,161576,(,0,0,2
7:28.878,161596,t,0,0,0
7:28.936,161617,),0,0,2
7:32.933,163056,(,0,0,1
7:33.006,163082,N,0,0,0
7:33.058,163101,),0,0,1
7:33.647,163313,(,0,0,2
7:33.697,163331,t,0,0,0
7:33.756,163352,),0,0,2
7:52.019,169927,(,0,0,1
7:52.083,169950,N,0,0,0
7:52.128,169966,),0,0,1
7:52.294,170026,(,0,0,2
7:52.381,170057,t,0,0,4
7:52.853,170227,t,0,0,4
7:52.894,170242,),0,0,2
7:55.844,171304,(,0,0,1
7:55.939,171338,N,0,0,0
7:55.978,171352,),0,0,1
7:56.000,171360,(,0,0,2
7:56.133,171408,t,0,0,0
7:56.269,171457,),0,0,2
7:58.178,172144,(,0,0,1
7:58.228,172162,N,0,0,0
7:58.297,172187,),0,0,1
7:58.447,172241,(,0,0,2
7:58.717,172338,t,0,0,1
7:59.047,172457,),0,0,2
8:02.406,173666,(,0,0,1
8:02.533,173712,N,0,0,0
8:02.581,173729,),0,0,1
8:02.883,173838,(,0,0,2
8:02.914,173849,t,0,0,5
8:03.000,173880,t,0,0,5
8:03.064,173903,),0,0,2
8:17.119,178963,(,0,0,1
8:17.169,178981,N,0,0,0
8:17.253,179011,),0,0,1
8:17.811,179212,(,0,0,2
8:17.864,179231,t,0,0,0
8:17.925,179253,),0,0,2
8:20.478,180172,(,0,0,0
8:20.500,180180,p,0,0,0
8:20.544,180196,),0,0,0
8:20.561,180202,(,0,0,1
8:20.711,180256,N,0,0,0
8:20.861,180310,),0,0,1
8:20.972,180350,(,0,0,2
8:21.019,180367,t,0,0,0
8:21.078,180388,),0,0,2
8:31.019,183967,(,0,0,1
8:31.094,183994,N,0,0,0
8:31.094,183994,),0,0,1
8:31.408,184107,(,0,0,2
8:31.453,184123,t,0,0,1
8:31.639,184190,),0,0,2
9:13.133,199128,(,0,0,1
9:13.189,199148,N,0,0,0
9:13.219,199159,),0,0,1
9:13.308,199191,(,0,0,2
9:13.519,199267,t,0,0,0
9:13.742,199347,),0,0,2
9:46.964,211307,(,0,0,1
9:47.072,211346,N,0,0,0
9:47.153,211375,),0,0,1
9:47.172,211382,(,0,0,2
9:47.258,211413,t,0,0,0
9:47.414,211469,),0,0,2
9:52.500,213300,(,0,0,1
9:52.586,213331,N,0,0,0
9:52.653,213355,),0,0,1
9:53.292,213585,(,0,0,2
9:53.347,213605,t,0,0,0
9:53.414,213629,),0,0,2
10:20.694,223450,(,0,0,1
10:20.808,223491,N,0,0,0
10:20.894,223522,),0,0,1
10:21.333,223680,(,0,0,2
10:21.378,223696,t,0,0,5
10:21.508,223743,t,0,0,5
10:21.583,223770,),0,0,2
10:21.783,223842,(,0,0,1
10:21.914,223889,N,0,0,0
10:21.981,223913,),0,0,1
10:22.417,224070,(,0,0,2
10:22.467,224088,t,0,0,0
10:22.528,224110,),0,0,2
10:27.094,225754,(,0,0,1
10:27.186,225787,N,0,0,0
10:27.261,225814,),0,0,1
10:27.281,225821,(,0,0,2
10:27.356,225848,t,0,0,0
10:27.494,225898,),0,0,2
10:33.139,227930,(,0,0,1
10:33.194,227950,N,0,0,0
10:33.261,227974,),0,0,1
10:33.833,228180,(,0,0,2
10:33.861,228190,t,0,0,0
10:33.911,228208,),0,0,2
10:34.147,228293,(,0,0,1
10:34.200,228312,N,0,0,0
10:34.300,228348,),0,0,1
10:34.850,228546,(,0,0,2
10:34.878,228556,t,0,0,5
10:34.975,228591,t,0,0,5
10:35.067,228624,),0,0,2
10:37.617,229542,(,0,0,1
10:37.689,229568,N,0,0,0
10:37.725,229581,),0,0,1
10:38.356,229808,(,0,0,2
10:38.381,229817,t,0,0,1
10:38.408,229827,),0,0,2
10:41.283,230862,(,0,0,1
10:41.322,230876,N,0,0,0
10:41.406,230906,),0,0,1
10:41.567,230964,(,0,0,1
10:41.625,230985,N,0,0,0
10:41.714,231017,),0,0,1
10:41.906,231086,(,0,0,1
10:41.972,231110,N,0,0,0
10:42.069,231145,),0,0,1
10:42.094,231154,(,0,0,2
10:42.178,231184,t,0,0,5
10:42.356,231248,t,0,0,5
10:42.539,231314,),0,0,2
10:47.022,232928,(,0,0,1
10:47.056,232940,N,0,0,0
10:47.114,232961,),0,0,1
10:47.717,233178,(,0,0,2
10:47.758,233193,t,0,0,0
10:47.817,233214,),0,0,2
10:50.378,234136,(,0,0,1
10:50.483,234174,N,0,0,0
10:50.542,234195,),0,0,1
10:50.806,234290,(,0,0,2
10:51.017,234366,t,0,0,0
10:51.256,234452,),0,0,2
10:52.233,234804,(,0,0,1
10:52.317,234834,N,0,0,0
10:52.397,234863,),0,0,1
10:53.042,235095,(,0,0,2
10:53.078,235108,t,0,0,0
10:53.131,235127,),0,0,2
11:21.450,245322,(,0,0,1
11:21.494,245338,N,0,0,0
11:21.550,245358,),0,0,1
11:22.169,245581,(,0,0,2
11:22.203,245593,t,0,0,1
11:22.239,245606,),0,0,2
11:22.614,245741,(,0,0,1
11:22.658,245757,N,0,0,0
11:22.711,245776,),0,0,1
11:22.764,245795,(,0,0,2
11:23.139,245930,t,0,0,0
11:23.478,246052,),0,0,2
11:27.794,247606,(,0,0,1
11:27.850,247626,N,0,0,0
11:27.914,247649,),0,0,1
11:28.056,247700,(,0,0,2
11:28.375,247815,t,0,0,1
11:28.633,247908,),0,0,2
11:39.367,251772,(,0,0,1
11:39.425,251793,N,0,0,0
11:39.497,251819,),0,0,1
11:39.619,251863,(,0,0,2
11:39.836,251941,t,0,0,4
11:39.969,251989,t,0,0,4
11:40.008,252003,),0,0,2
11:42.981,253073,(,0,0,1
11:43.089,253112,N,0,0,0
11:43.181,253145,),0,0,1
11:43.556,253280,(,0,0,2
11:43.594,253294,t,0,0,5
11:43.708,253335,t,0,0,5
11:43.833,253380,),0,0,2
11:50.147,255653,(,0,0,1
11:50.464,255767,N,0,0,0
11:50.533,255792,),0,0,1
11:50.747,255869,(,0,0,2
11:50.797,255887,t,0,0,1
11:50.964,255947,),0,0,2
11:56.714,258017,(,0,0,1
11:56.981,258113,N,0,0,0
11:57.056,258140,),0,0,1
11:57.444,258280,(,0,0,2
11:57.475,258291,t,0,0,1
11:57.511,258304,),0,0,2
11:59.383,258978,(,0,0,1
11:59.447,259001,N,0,0,0
11:59.511,259024,),0,0,1
11:59.653,259075,(,0,0,2
11:59.803,259129,t,0,0,4
12:00.231,259283,t,0,0,4
12:00.275,259299,),0,0,2
12:21.483,266934,(,0,0,1
12:21.742,267027,N,0,0,0
12:21.817,267054,),0,0,1
12:22.044,267136,(,0,0,2
12:22.089,267152,t,0,0,1
12:22.250,267210,),0,0,2
12:27.753,269191,(,0,0,1
12:27.825,269217,N,0,0,0
12:27.872,269234,),0,0,1
12:27.944,269260,(,0,0,2
12:28.008,269283,t,0,0,5
12:28.139,269330,t,0,0,5
12:28.181,269345,),0,0,2
12:34.119,271483,(,0,0,1
12:34.156,271496,N,0,0,0
12:34.200,271512,),0,0,1
12:34.364,271571,(,0,0,2
12:34.428,271594,t,0,0,4
12:34.506,271622,t,0,0,4
12:34.544,271636,),0,0,2
12:35.492,271977,(,0,0,1
12:35.544,271996,N,0,0,0
12:35.606,272018,),0,0,1
12:36.078,272188,(,0,0,2
12:36.103,272197,t,0,0,4
12:36.142,272211,t,0,0,4
12:36.178,272224,),0,0,2
12:38.458,273045,(,0,0,1
12:38.769,273157,N,0,0,0
12:38.928,273214,),0,0,1
12:39.067,273264,(,0,0,2
12:39.097,273275,t,0,0,1
12:39.131,273287,),0,0,2
12:45.147,275453,(,0,0,1
12:45.183,275466,N,0,0,0
12:45.236,275485,),0,0,1
12:45.489,275576,(,0,0,2
12:45.519,275587,t,0,0,4
12:45.558,275601,t,0,0,4
12:45.594,275614,),0,0,2
12:47.389,276260,(,0,0,1
12:47.503,276301,N,0,0,0
12:47.578,276328,),0,0,1
12:47.697,276371,(,0,0,2
12:47.944,276460,t,0,0,1
12:48.036,276493,),0,0,2
13:00.225,280881,(,0,0,0
13:00.269,280897,p,0,0,0
13:00.364,280931,),0,0,0
13:00.422,280952,(,0,0,1
13:00.450,280962,N,0,0,0
13:00.572,281006,),0,0,1
13:00.619,281023,(,0,0,2
13:00.711,281056,t,0,0,0
13:00.772,281078,),0,0,2
13:49.931,298775,(,0,0,1
13:49.994,298798,N,0,0,0
13:50.069,298825,),0,0,1
13:50.647,299033,(,0,0,2
13:50.678,299044,t,0,0,5
13:50.769,299077,t,0,0,5
13:50.869,299113,),0,0,2
13:54.678,300484,(,0,0,1
13:54.711,300496,N,0,0,0
13:54.764,300515,),0,0,1
13:54.831,300539,(,0,0,2
13:54.917,300570,t,0,0,0
13:54.986,300595,),0,0,2
13:55.372,300734,(,0,0,1
13:55.444,300760,N,0,0,0
13:55.506,300782,),0,0,1
13:55.983,300954,(,0,0,2
13:56.019,300967,t,0,0,0
13:56.069,300985,),0,0,2
13:57.053,301339,(,0,0,1
13:57.094,301354,N,0,0,0
13:57.139,301370,),0,0,1
13:57.431,301475,(,0,0,2
13:57.453,301483,t,0,0,4
13:57.489,301496,t,0,0,4
13:57.533,301512,),0,0,2
13:57.758,301593,(,0,0,1
13:57.847,301625,N,0,0,0
13:57.942,301659,),0,0,1
13:58.558,301881,(,0,0,2
13:58.586,301891,t,0,0,0
13:58.639,301910,),0,0,2
13:59.222,302120,(,0,0,1
13:59.289,302144,N,0,0,0
13:59.408,302187,),0,0,1
13:59.628,302266,(,0,0,2
13:59.656,302276,t,0,0,4
14:00.081,302429,t,0,0,4
14:00.128,302446,),0,0,2
14:02.433,303276,(,0,0,1
14:02.531,303311,N,0,0,0
14:02.592,303333,),0,0,1
14:03.083,303510,(,0,0,2
14:03.111,303520,t,0,0,5
14:03.169,303541,t,0,0,5
14:03.267,303576,),0,0,2
14:05.744,304468,(,0,0,1
14:05.814,304493,N,0,0,0
14:05.853,304507,),0,0,1
14:06.339,304682,(,0,0,2
14:06.381,304697,t,0,0,0
14:06.433,304716,),0,0,2
14:13.567,307284,(,0,0,1
14:13.600,307296,N,0,0,0
14:13.686,307327,),0,0,1
14:13.700,307332,(,0,0,2
14:13.800,307368,t,0,0,5
14:13.969,307429,t,0,0,5
14:14.025,307449,),0,0,2
14:14.789,307724,(,0,0,1
14:14.856,307748,N,0,0,0
14:14.897,307763,),0,0,1
14:14.981,307793,(,0,0,2
14:15.042,307815,t,0,0,5
14:15.475,307971,t,0,0,5
14:15.511,307984,),0,0,2
14:15.758,308073,(,0,0,1
14:15.794,308086,N,0,0,0
14:15.914,308129,),0,0,1
14:15.958,308145,(,0,0,2
14:16.333,308280,t,0,0,0
14:16.664,308399,),0,0,2
14:20.617,309822,(,0,0,1
14:20.656,309836,N,0,0,0
14:20.725,309861,),0,0,1
14:21.061,309982,(,0,0,2
14:21.094,309994,t,0,0,5
14:21.386,310099,t,0,0,5
14:21.464,310127,),0,0,2
14:22.422,310472,(,0,0,1
14:22.458,310485,N,0,0,0
14:22.531,310511,),0,0,1
14:23.144,310732,(,0,0,2
14:23.183,310746,t,0,0,0
14:23.233,310764,),0,0,2
14:26.128,311806,(,0,0,1
14:26.161,311818,N,0,0,0
14:26.231,311843,),0,0,1
14:26.692,312009,(,0,0,2
14:26.733,312024,t,0,0,5
14:26.825,312057,t,0,0,5
14:26.911,312088,),0,0,2
14:29.808,313131,(,0,0,1
14:29.839,313142,N,0,0,0
14:29.914,313169,),0,0,1
14:30.053,313219,(,0,0,2
14:30.172,313262,t,0,0,4
14:30.214,313277,t,0,0,4
14:30.275,313299,),0,0,2
14:31.883,313878,(,0,0,1
14:31.925,313893,N,0,0,0
14:31.967,313908,),0,0,1
14:32.517,314106,(,0,0,2
14:32.544,314116,t,0,0,0
14:32.586,314131,),0,0,2
14:34.483,314814,(,0,0,1
14:34.519,314827,N,0,0,0
14:34.561,314842,),0,0,1
14:35.161,315058,(,0,0,2
14:35.189,315068,t,0,0,4
14:35.231,315083,t,0,0,4
14:35.269,315097,),0,0,2
14:35.842,315303,(,0,0,1
14:35.892,315321,N,0,0,0
14:35.967,315348,),0,0,1
14:36.292,315465,(,0,0,2
14:36.325,315477,t,0,0,0
14:36.372,315494,),0,0,2
14:39.033,316452,(,0,0,1
14:39.106,316478,N,0,0,0
14:39.144,316492,),0,0,1
14:39.447,316601,(,0,0,2
14:39.497,316619,t,0,0,1
14:39.650,316674,),0,0,2
14:42.481,317693,(,0,0,1
14:42.564,317723,N,0,0,0
14:42.608,317739,),0,0,1
14:42.867,317832,(,0,0,2
14:43.122,317924,t,0,0,1
14:43.361,318010,),0,0,2
14:45.236,318685,(,0,0,1
14:45.292,318705,N,0,0,0
14:45.456,318764,),0,0,1
14:45.639,318830,(,0,0,2
14:45.906,318926,t,0,0,1
14:46.125,319005,),0,0,2
14:51.003,320761,(,0,0,1
14:51.036,320773,N,0,0,0
14:51.158,320817,),0,0,1
14:51.364,320891,(,0,0,2
14:51.417,320910,t,0,0,1
14:51.569,320965,),0,0,2
14:54.094,321874,(,0,0,1
14:54.139,321890,N,0,0,0
14:54.183,321906,),0,0,1
14:54.506,322022,(,0,0,2
14:54.719,322099,t,0,0,0
14:54.953,322183,),0,0,2
14:55.594,322414,(,0,0,1
14:55.678,322444,N,0,0,0
14:55.739,322466,),0,0,1
14:55.747,322469,t,0,0,2
14:55.856,322508,),0,0,2
14:56.011,322564,(,0,0,1
14:56.061,322582,N,0,0,0
14:56.114,322601,),0,0,1
14:56.158,322617,(,0,0,2
14:56.322,322676,t,0,0,0
14:56.433,322716,),0,0,2
14:57.233,323004,(,0,0,1
14:57.339,323042,N,0,0,0
14:57.389,323060,),0,0,1
14:57.822,323216,(,0,0,2
14:57.869,323233,t,0,0,0
14:57.922,323252,),0,0,2
15:04.081,325469,(,0,0,1
15:04.106,325478,N,0,0,0
15:04.131,325487,),0,0,1
15:04.206,325514,(,0,0,2
15:04.233,325524,t,0,0,4
15:04.269,325537,t,0,0,4
15:04.308,325551,),0,0,2
15:04.589,325652,(,0,0,1
15:04.686,325687,N,0,0,0
15:04.714,325697,),0,0,1
15:14.672,329282,(,0,0,1
15:14.719,329299,N,0,0,0
15:14.742,329307,),0,0,1
15:14.872,329354,t,0,0,3
15:15.028,329410,),0,0,2
15:15.211,329476,(,0,0,1
15:15.231,329483,N,0,0,0
15:15.344,329524,),0,0,1
15:15.394,329542,(,0,0,1
15:15.517,329586,N,0,0,0
15:15.533,329592,),0,0,1
15:15.664,329639,(,0,0,1
15:15.739,329666,N,0,0,0
15:15.828,329698,),0,0,1
15:15.856,329708,(,0,0,2
15:15.917,329730,t,0,0,5
15:16.025,329769,t,0,0,5
15:16.236,329845,),0,0,2
15:35.183,336666,(,0,0,1
15:35.272,336698,N,0,0,0
15:35.331,336719,),0,0,1
15:35.839,336902,(,0,0,2
15:35.869,336913,t,0,0,5
15:35.942,336939,t,0,0,5
15:36.067,336984,),0,0,2
15:46.517,340746,(,0,0,1
15:46.603,340777,N,0,0,0
15:46.658,340797,),0,0,1
15:46.778,340840,(,0,0,2
15:47.086,340951,t,0,0,4
15:47.403,341065,t,0,0,4
15:47.464,341087,),0,0,2
16:06.828,348058,(,0,0,1
16:06.900,348084,N,0,0,0
16:06.953,348103,),0,0,1
16:07.469,348289,(,0,0,2
16:07.511,348304,t,0,0,0
16:07.567,348324,),0,0,2
16:15.067,351024,(,0,0,1
16:15.153,351055,N,0,0,0
16:15.203,351073,),0,0,1
16:15.692,351249,(,0,0,2
16:15.731,351263,t,0,0,0
16:15.783,351282,),0,0,2
16:38.144,359332,(,0,0,1
16:38.225,359361,N,0,0,0
16:38.258,359373,),0,0,1
16:38.319,359395,(,0,0,2
16:38.403,359425,t,0,0,0
16:38.561,359482,),0,0,2
16:56.314,365873,(,0,0,1
16:56.389,365900,N,0,0,0
16:56.389,365900,),0,0,1
16:56.503,365941,(,0,0,2
16:56.572,365966,t,0,0,0
16:56.678,366004,),0,0,2
17:04.861,368950,(,0,0,1
17:04.944,368980,N,0,0,0
17:04.978,368992,),0,0,1
17:05.558,369201,(,0,0,2
17:05.592,369213,t,0,0,0
17:05.642,369231,),0,0,2
17:12.669,371761,(,0,0,1
17:12.719,371779,N,0,0,0
17:12.811,371812,),0,0,1
17:13.153,371935,(,0,0,2
17:13.361,372010,t,0,0,1
17:13.517,372066,),0,0,2
17:15.842,372903,(,0,0,1
17:15.961,372946,N,0,0,0
17:16.014,372965,),0,0,1
17:16.381,373097,(,0,0,2
17:16.425,373113,t,0,0,5
17:16.528,373150,t,0,0,5
17:16.653,373195,),0,0,2
17:18.244,373768,(,0,0,1
17:18.353,373807,N,0,0,0
17:18.392,373821,),0,0,1
17:18.769,373957,(,0,0,2
17:18.808,373971,t,0,0,5
17:18.933,374016,t,0,0,5
17:19.017,374046,),0,0,2
17:20.875,374715,(,0,0,1
17:20.975,374751,N,0,0,0
17:21.028,374770,),0,0,1
17:21.094,374794,(,0,0,2
17:21.164,374819,t,0,0,0
17:21.267,374856,),0,0,2
17:38.433,381036,(,0,0,1
17:38.494,381058,N,0,0,0
17:38.531,381071,),0,0,1
17:39.214,381317,(,0,0,2
17:39.256,381332,t,0,0,0
17:39.306,381350,),0,0,2
17:47.894,384442,(,0,0,1
17:47.992,384477,N,0,0,0
17:48.022,384488,),0,0,1
17:48.056,384500,(,0,0,2
17:48.472,384650,t,0,0,0
17:48.797,384767,),0,0,2
17:58.492,388257,(,0,0,1
17:58.581,388289,N,0,0,0
17:58.633,388308,),0,0,1
17:58.775,388359,(,0,0,2
17:59.075,388467,t,0,0,1
17:59.389,388580,),0,0,2
18:24.319,397555,(,0,0,0
18:24.469,397609,p,0,0,0
18:24.497,397619,),0,0,0
18:24.531,397631,(,0,0,1
18:24.556,397640,N,0,0,0
18:24.597,397655,),0,0,1
18:24.697,397691,(,0,0,2
18:24.822,397736,t,0,0,0
18:24.917,397770,),0,0,2
18:30.619,399823,(,0,0,0
18:30.661,399838,p,0,0,0
18:30.694,399850,),0,0,0
18:30.728,399862,(,0,0,1
18:30.756,399872,N,0,0,0
18:30.794,399886,),0,0,1
18:31.161,400018,(,0,0,2
18:31.186,400027,t,0,0,4
18:31.228,400042,t,0,0,4
18:31.278,400060,),0,0,2
18:41.828,403858,(,0,0,0
18:41.900,403884,p,0,0,0
18:41.961,403906,),0,0,0
18:41.978,403912,(,0,0,1
18:42.058,403941,N,0,0,0
18:42.100,403956,),0,0,1
18:42.158,403977,(,0,0,2
18:42.275,404019,t,0,0,0
18:42.325,404037,),0,0,2
18:42.392,404061,(,0,0,1
18:42.433,404076,N,0,0,0
18:42.469,404089,),0,0,1
18:43.144,404332,(,0,0,2
18:43.183,404346,t,0,0,0
18:43.239,404366,),0,0,2
18:46.025,405369,(,0,0,0
18:46.058,405381,p,0,0,0
18:46.103,405397,),0,0,0
18:46.147,405413,(,0,0,1
18:46.403,405505,N,0,0,0
18:46.406,405506,),0,0,1
18:46.678,405604,(,0,0,2
18:46.722,405620,t,0,0,1
18:46.772,405638,),0,0,2
18:49.414,406589,(,0,0,1
18:49.531,406631,N,0,0,0
18:49.583,406650,),0,0,1
18:49.736,406705,(,0,0,2
18:50.108,406839,t,0,0,1
18:50.353,406927,),0,0,2
18:54.017,408246,(,0,0,1
18:54.069,408265,N,0,0,0
18:54.142,408291,),0,0,1
18:54.644,408472,(,0,0,2
18:54.683,408486,t,0,0,0
18:54.739,408506,),0,0,2
18:56.158,409017,(,0,0,0
18:56.192,409029,p,0,0,0
18:56.306,409070,),0,0,0
18:56.414,409109,(,0,0,1
18:56.481,409133,N,0,0,0
18:56.553,409159,),0,0,1
18:56.775,409239,(,0,0,2
18:57.006,409322,t,0,0,0
18:57.256,409412,),0,0,2
18:58.431,409835,(,0,0,0
18:58.456,409844,p,0,0,0
18:58.556,409880,),0,0,0
18:58.567,409884,(,0,0,1
18:58.642,409911,N,0,0,0
18:58.644,409912,),0,0,1
18:58.661,409918,(,0,0,2
18:58.944,410020,t,0,0,0
18:59.119,410083,),0,0,2
19:00.492,410577,(,0,0,1
19:00.594,410614,N,0,0,0
19:00.597,410615,),0,0,1
19:00.611,410620,(,0,0,2
19:00.794,410686,t,0,0,0
19:00.953,410743,),0,0,2
19:01.708,411015,(,0,0,0
19:01.719,411019,p,0,0,0
19:01.792,411045,),0,0,0
19:01.906,411086,(,0,0,1
19:01.992,411117,N,0,0,0
19:01.994,411118,),0,0,1
19:02.008,411123,(,0,0,2
19:02.378,411256,t,0,0,0
19:02.633,411348,),0,0,2
19:08.272,413378,(,0,0,0
19:08.317,413394,p,0,0,0
19:08.361,413410,),0,0,0
19:08.428,413434,(,0,0,1
19:08.633,413508,N,0,0,0
19:08.636,413509,),0,0,1
19:08.919,413611,(,0,0,2
19:08.969,413629,t,0,0,1
19:09.161,413698,),0,0,2
19:09.842,413943,(,0,0,0
19:09.969,413989,p,0,0,0
19:09.994,413998,),0,0,0
19:10.089,414032,(,0,0,1
19:10.167,414060,N,0,0,0
19:10.197,414071,),0,0,1
19:10.256,414092,(,0,0,2
19:10.339,414122,t,0,0,0
19:10.475,414171,),0,0,2
19:11.806,414650,(,0,0,0
19:11.825,414657,p,0,0,0
19:11.917,414690,),0,0,0
19:11.939,414698,(,0,0,1
19:12.022,414728,N,0,0,0
19:12.056,414740,),0,0,1
19:12.561,414922,(,0,0,2
19:12.617,414942,t,0,0,0
19:12.669,414961,),0,0,2
19:13.139,415130,(,0,0,0
19:13.214,415157,p,0,0,0
19:13.283,415182,),0,0,0
19:13.297,415187,(,0,0,1
19:13.364,415211,N,0,0,0
19:13.369,415213,),0,0,1
19:13.631,415307,(,0,0,2
19:13.686,415327,t,0,0,1
19:13.883,415398,),0,0,2
19:15.347,415925,(,0,0,1
19:15.428,415954,N,0,0,0
19:15.483,415974,),0,0,1
19:15.903,416125,(,0,0,2
19:15.944,416140,t,0,0,5
19:16.056,416180,t,0,0,5
19:16.222,416240,),0,0,2
19:20.561,417802,(,0,0,1
19:20.711,417856,N,0,0,0
19:20.714,417857,),0,0,1
19:20.722,417860,(,0,0,2
19:20.892,417921,t,0,0,0
19:21.072,417986,),0,0,2
19:22.061,418342,(,0,0,0
19:22.167,418380,p,0,0,0
19:22.186,418387,),0,0,0
19:22.272,418418,(,0,0,1
19:22.356,418448,N,0,0,0
19:22.403,418465,),0,0,1
19:22.453,418483,(,0,0,2
19:22.536,418513,t,0,0,5
19:22.825,418617,t,0,0,5
19:22.878,418636,),0,0,2
19:24.939,419378,(,0,0,1
19:24.994,419398,N,0,0,0
19:25.075,419427,),0,0,1
19:25.181,419465,(,0,0,2
19:25.206,419474,t,0,0,1
19:25.281,419501,),0,0,2
19:25.617,419622,(,0,0,1
19:25.689,419648,N,0,0,0
19:25.778,419680,),0,0,1
19:26.269,419857,(,0,0,1
19:26.325,419877,N,0,0,0
19:26.458,419925,),0,0,1
19:26.511,419944,(,0,0,2
19:26.586,419971,t,0,0,5
19:26.678,420004,t,0,0,5
19:26.733,420024,),0,0,2
19:30.286,421303,(,0,0,1
19:30.317,421314,N,0,0,0
19:30.356,421328,),0,0,1
19:30.433,421356,(,0,0,2
19:30.747,421469,t,0,0,0
19:30.978,421552,),0,0,2
19:41.117,425202,(,0,0,1
19:41.181,425225,N,0,0,0
19:41.217,425238,),0,0,1
19:41.331,425279,(,0,0,2
19:41.497,425339,t,0,0,0
19:41.594,425374,),0,0,2
19:47.986,427675,(,0,0,1
19:48.031,427691,N,0,0,0
19:48.069,427705,),0,0,1
19:48.578,427888,(,0,0,2
19:48.622,427904,t,0,0,0
19:48.681,427925,),0,0,2
19:49.756,428312,(,0,0,0
19:49.839,428342,p,0,0,0
19:49.903,428365,),0,0,0
19:49.978,428392,(,0,0,1
19:50.003,428401,N,0,0,0
19:50.042,428415,),0,0,1
19:50.408,428547,(,0,0,2
19:50.606,428618,t,0,0,1
19:50.767,428676,),0,0,2
20:13.172,436742,(,0,0,0
20:13.203,436753,p,0,0,0
20:13.250,436770,),0,0,0
20:13.308,436791,(,0,0,1
20:13.567,436884,N,0,0,0
20:13.567,436884,),0,0,1
20:14.136,437089,(,0,0,2
20:14.181,437105,t,0,0,0
20:14.233,437124,),0,0,2
20:14.519,437227,(,0,0,0
20:14.567,437244,p,0,0,0
20:14.631,437267,),0,0,0
20:14.792,437325,(,0,0,1
20:14.844,437344,N,0,0,0
20:14.889,437360,),0,0,1
20:15.003,437401,(,0,0,2
20:15.125,437445,t,0,0,0
20:15.211,437476,),0,0,2
20:15.328,437518,(,0,0,0
20:15.394,437542,p,0,0,0
20:15.467,437568,),0,0,0
20:15.489,437576,(,0,0,1
20:15.547,437597,N,0,0,0
20:15.611,437620,),0,0,1
20:15.650,437634,(,0,0,2
20:15.756,437672,t,0,0,0
20:15.833,437700,),0,0,2
20:15.925,437733,(,0,0,1
20:15.997,437759,N,0,0,0
20:16.036,437773,),0,0,1
20:16.083,437790,t,0,0,2
20:16.208,437835,),0,0,2
20:16.342,437883,(,0,0,1
20:16.364,437891,N,0,0,0
20:16.403,437905,),0,0,1
20:16.478,437932,t,0,0,2
20:16.575,437967,),0,0,2
20:16.703,438013,(,0,0,1
20:16.742,438027,N,0,0,0
20:16.786,438043,),0,0,1
20:16.792,438045,(,0,0,2
20:16.847,438065,t,0,0,1
20:16.944,438100,),0,0,2
20:17.069,438145,(,0,0,1
20:17.128,438166,N,0,0,0
20:17.175,438183,),0,0,1
20:17.253,438211,(,0,0,2
20:17.400,438264,t,0,0,0
20:17.503,438301,),0,0,2
20:17.672,438362,(,0,0,0
20:17.686,438367,p,0,0,0
20:17.778,438400,),0,0,0
20:17.808,438411,(,0,0,1
20:17.867,438432,N,0,0,0
20:17.908,438447,),0,0,1
20:17.997,438479,t,0,0,2
20:18.131,438527,),0,0,2
20:18.172,438542,(,0,0,1
20:18.325,438597,N,0,0,0
20:18.328,438598,),0,0,1
20:18.331,438599,t,0,0,2
20:18.500,438660,),0,0,2
20:18.822,438776,(,0,0,1
20:18.883,438798,N,0,0,0
20:18.931,438815,),0,0,1
20:19.003,438841,(,0,0,2
20:19.053,438859,t,0,0,1
20:19.136,438889,),0,0,2
20:19.314,438953,(,0,0,0
20:19.433,438996,p,0,0,0
20:19.489,439016,),0,0,0
20:19.522,439028,(,0,0,1
20:19.578,439048,N,0,0,0
20:19.625,439065,),0,0,1
20:19.753,439111,(,0,0,2
20:19.822,439136,t,0,0,0
20:19.892,439161,),0,0,2
20:20.042,439215,(,0,0,1
20:20.092,439233,N,0,0,0
20:20.139,439250,),0,0,1
20:20.219,439279,(,0,0,0
20:20.308,439311,p,0,0,0
20:20.361,439330,),0,0,0
20:20.414,439349,(,0,0,1
20:20.472,439370,N,0,0,0
20:20.519,439387,),0,0,1
20:20.614,439421,(,0,0,2
20:20.847,439505,t,0,0,0
20:21.044,439576,),0,0,2
20:21.158,439617,(,0,0,0
20:21.194,439630,p,0,0,0
20:21.258,439653,),0,0,0
20:21.342,439683,(,0,0,1
20:21.403,439705,N,0,0,0
20:21.450,439722,),0,0,1
20:21.764,439835,(,0,0,2
20:21.814,439853,t,0,0,1
20:21.992,439917,),0,0,2
20:22.267,440016,(,0,0,0
20:22.328,440038,p,0,0,0
20:22.372,440054,),0,0,0
20:22.406,440066,(,0,0,1
20:22.461,440086,N,0,0,0
20:22.508,440103,),0,0,1
20:22.553,440119,(,0,0,2
20:22.633,440148,t,0,0,1
20:22.719,440179,),0,0,2
20:23.119,440323,(,0,0,1
20:23.169,440341,N,0,0,0
20:23.214,440357,),0,0,1
20:23.289,440384,(,0,0,2
20:23.403,440425,t,0,0,0
20:23.436,440437,),0,0,2
20:23.797,440567,(,0,0,0
20:23.881,440597,p,0,0,0
20:23.933,440616,),0,0,0
20:23.964,440627,(,0,0,1
20:24.022,440648,N,0,0,0
20:24.069,440665,),0,0,1
20:24.192,440709,(,0,0,2
20:24.278,440740,t,0,0,0
20:24.333,440760,),0,0,2
20:24.631,440867,(,0,0,1
20:24.686,440887,N,0,0,0
20:24.733,440904,),0,0,1
20:24.808,440931,(,0,0,2
20:24.908,440967,t,0,0,0
20:24.964,440987,),0,0,2
20:25.053,441019,(,0,0,0
20:25.100,441036,p,0,0,0
20:25.172,441062,),0,0,0
20:25.236,441085,(,0,0,1
20:25.289,441104,N,0,0,0
20:25.333,441120,),0,0,1
20:25.339,441122,(,0,0,2
20:25.403,441145,t,0,0,4
20:25.528,441190,t,0,0,4
20:25.589,441212,),0,0,2
20:26.944,441700,(,0,0,1
20:27.003,441721,N,0,0,0
20:27.050,441738,),0,0,1
20:27.194,441790,(,0,0,2
20:27.278,441820,t,0,0,0
20:27.369,441853,),0,0,2
20:27.711,441976,(,0,0,1
20:27.761,441994,N,0,0,0
20:27.803,442009,),0,0,1
20:27.900,442044,(,0,0,2
20:27.972,442070,t,0,0,0
20:28.028,442090,),0,0,2
20:28.111,442120,(,0,0,0
20:28.178,442144,p,0,0,0
20:28.225,442161,),0,0,0
20:28.256,442172,(,0,0,1
20:28.303,442189,N,0,0,0
20:28.347,442205,),0,0,1
20:28.517,442266,(,0,0,2
20:28.578,442288,t,0,0,4
20:29.097,442475,t,0,0,4
20:29.178,442504,),0,0,2
20:29.975,442791,(,0,0,1
20:30.039,442814,N,0,0,0
20:30.089,442832,),0,0,1
20:30.764,443075,t,0,0,2
20:30.844,443104,),0,0,2
20:33.778,444160,(,0,0,1
20:33.858,444189,N,0,0,0
20:33.861,444190,),0,0,1
20:33.878,444196,(,0,0,2
20:34.039,444254,t,0,0,0
20:34.175,444303,),0,0,2
20:34.272,444338,(,0,0,1
20:34.308,444351,N,0,0,0
20:34.358,444369,),0,0,1
20:34.733,444504,(,0,0,2
20:34.783,444522,t,0,0,0
20:34.844,444544,),0,0,2
20:35.203,444673,(,0,0,0
20:35.242,444687,p,0,0,0
20:35.300,444708,),0,0,0
20:35.450,444762,(,0,0,1
20:35.508,444783,N,0,0,0
20:35.556,444800,),0,0,1
20:35.697,444851,(,0,0,2
20:35.844,444904,t,0,0,0
20:35.964,444947,),0,0,2
20:36.611,445180,(,0,0,1
20:36.667,445200,N,0,0,0
20:36.708,445215,),0,0,1
20:36.714,445217,(,0,0,2
20:36.781,445241,t,0,0,4
20:37.047,445337,t,0,0,4
20:37.114,445361,),0,0,2
20:38.425,445833,(,0,0,0
20:38.506,445862,p,0,0,0
20:38.550,445878,),0,0,0
20:38.594,445894,(,0,0,1
20:38.650,445914,N,0,0,0
20:38.692,445929,),0,0,1
20:38.875,445995,(,0,0,2
20:39.167,446100,t,0,0,1
20:39.472,446210,),0,0,2
20:44.422,447992,(,0,0,1
20:44.497,448019,N,0,0,0
20:44.547,448037,),0,0,1
20:44.592,448053,(,0,0,2
20:44.681,448085,t,0,0,0
20:44.842,448143,),0,0,2
20:45.775,448479,(,0,0,0
20:45.825,448497,p,0,0,0
20:45.914,448529,),0,0,0
20:46.036,448573,(,0,0,1
20:46.086,448591,N,0,0,0
20:46.128,448606,),0,0,1
20:46.253,448651,(,0,0,2
20:46.319,448675,t,0,0,0
20:46.414,448709,),0,0,2
20:50.514,450185,(,0,0,0
20:50.561,450202,p,0,0,0
20:50.614,450221,),0,0,0
20:50.650,450234,(,0,0,1
20:50.706,450254,N,0,0,0
20:50.747,450269,),0,0,1
20:51.375,450495,(,0,0,2
20:51.436,450517,t,0,0,0
20:51.497,450539,),0,0,2
20:57.011,452524,(,0,0,0
20:57.078,452548,p,0,0,0
20:57.147,452573,),0,0,0
20:57.217,452598,(,0,0,1
20:57.269,452617,N,0,0,0
20:57.317,452634,),0,0,1
20:57.617,452742,(,0,0,2
20:57.656,452756,t,0,0,0
20:57.714,452777,),0,0,2
20:59.044,453256,(,0,0,1
20:59.128,453286,N,0,0,0
20:59.131,453287,),0,0,1
20:59.142,453291,(,0,0,2
20:59.342,453363,t,0,0,0
20:59.500,453420,),0,0,2
21:05.314,455513,(,0,0,0
21:05.336,455521,p,0,0,0
21:05.453,455563,),0,0,0
21:05.550,455598,(,0,0,1
21:05.606,455618,N,0,0,0
21:05.650,455634,),0,0,1
21:05.656,455636,(,0,0,2
21:05.714,455657,t,0,0,4
21:05.853,455707,t,0,0,4
21:05.883,455718,),0,0,2
21:05.994,455758,(,0,0,0
21:06.067,455784,p,0,0,0
21:06.108,455799,),0,0,0
21:06.144,455812,(,0,0,1
21:06.197,455831,N,0,0,0
21:06.242,455847,),0,0,1
21:06.567,455964,(,0,0,2
21:06.631,455987,t,0,0,0
21:06.689,456008,),0,0,2
21:09.492,457017,(,0,0,0
21:09.556,457040,p,0,0,0
21:09.633,457068,),0,0,0
21:09.725,457101,(,0,0,1
21:09.764,457115,N,0,0,0
21:09.803,457129,),0,0,1
21:10.383,457338,(,0,0,2
21:10.419,457351,t,0,0,0
21:10.486,457375,),0,0,2
21:12.633,458148,(,0,0,1
21:12.719,458179,N,0,0,0
21:12.819,458215,),0,0,1
21:12.906,458246,(,0,0,2
21:12.922,458252,t,0,0,1
21:12.972,458270,),0,0,2
21:13.142,458331,(,0,0,1
21:13.175,458343,N,0,0,0
21:13.317,458394,),0,0,1
21:13.397,458423,(,0,0,1
21:13.519,458467,N,0,0,0
21:13.564,458483,),0,0,1
21:13.789,458564,(,0,0,2
21:13.825,458577,t,0,0,0
21:13.875,458595,),0,0,2
21:13.914,458609,(,0,0,0
21:13.925,458613,p,0,0,0
21:14.003,458641,),0,0,0
21:14.125,458685,(,0,0,1
21:14.178,458704,N,0,0,0
21:14.222,458720,),0,0,1
21:14.508,458823,(,0,0,2
21:14.569,458845,t,0,0,0
21:14.622,458864,),0,0,2
21:15.586,459211,(,0,0,1
21:15.619,459223,N,0,0,0
21:15.672,459242,),0,0,1
21:15.772,459278,(,0,0,2
21:15.853,459307,t,0,0,0
21:15.894,459322,),0,0,2
21:16.114,459401,(,0,0,1
21:16.194,459430,N,0,0,0
21:16.278,459460,),0,0,1
21:16.858,459669,(,0,0,2
21:16.919,459691,t,0,0,0
21:16.975,459711,),0,0,2
21:18.417,460230,(,0,0,1
21:18.453,460243,N,0,0,0
21:18.558,460281,),0,0,1
21:18.622,460304,(,0,0,2
21:18.681,460325,t,0,0,0
21:18.719,460339,),0,0,2
21:18.903,460405,(,0,0,1
21:18.956,460424,N,0,0,0
21:19.056,460460,),0,0,1
21:19.342,460563,(,0,0,2
21:19.378,460576,t,0,0,0
21:19.431,460595,),0,0,2
21:22.928,461854,(,0,0,1
21:22.972,461870,N,0,0,0
21:23.025,461889,),0,0,1
21:23.389,462020,(,0,0,2
21:23.572,462086,t,0,0,1
21:23.747,462149,),0,0,2
21:24.492,462417,(,0,0,1
21:24.539,462434,N,0,0,0
21:24.614,462461,),0,0,1
21:25.103,462637,(,0,0,2
21:25.158,462657,t,0,0,0
21:25.211,462676,),0,0,2
21:27.036,463333,(,0,0,1
21:27.092,463353,N,0,0,0
21:27.142,463371,),0,0,1
21:27.231,463403,(,0,0,2
21:27.442,463479,t,0,0,0
21:27.578,463528,),0,0,2
21:29.275,464139,(,0,0,1
21:29.339,464162,N,0,0,0
21:29.489,464216,),0,0,1
21:29.839,464342,(,0,0,1
21:29.908,464367,N,0,0,0
21:29.956,464384,),0,0,1
21:30.131,464447,(,0,0,2
21:30.417,464550,t,0,0,1
21:30.756,464672,),0,0,2
21:32.133,465168,(,0,0,1
21:32.181,465185,N,0,0,0
21:32.281,465221,),0,0,1
21:32.869,465433,(,0,0,2
21:32.919,465451,t,0,0,0
21:32.969,465469,),0,0,2
21:34.272,465938,(,0,0,1
21:34.333,465960,N,0,0,0
21:34.372,465974,),0,0,1
21:34.542,466035,(,0,0,2
21:34.594,466054,t,0,0,0
21:34.611,466060,),0,0,2
21:34.767,466116,(,0,0,1
21:34.800,466128,N,0,0,0
21:34.833,466140,),0,0,1
21:34.931,466175,(,0,0,2
21:35.003,466201,t,0,0,0
21:35.042,466215,),0,0,2
21:37.397,467063,(,0,0,1
21:37.478,467092,N,0,0,0
21:37.578,467128,),0,0,1
21:37.844,467224,(,0,0,2
21:37.889,467240,t,0,0,1
21:38.086,467311,),0,0,2
21:38.364,467411,(,0,0,1
21:38.419,467431,N,0,0,0
21:38.467,467448,),0,0,1
21:38.567,467484,(,0,0,2
21:38.639,467510,t,0,0,0
21:38.697,467531,),0,0,2
21:38.931,467615,(,0,0,1
21:38.978,467632,N,0,0,0
21:39.033,467652,),0,0,1
21:39.125,467685,(,0,0,2
21:39.325,467757,t,0,0,0
21:39.503,467821,),0,0,2
21:39.744,467908,(,0,0,1
21:39.800,467928,N,0,0,0
21:39.892,467961,),0,0,1
21:40.147,468053,(,0,0,2
21:40.175,468063,t,0,0,4
21:40.211,468076,t,0,0,4
21:40.256,468092,),0,0,2
21:41.022,468368,(,0,0,1
21:41.103,468397,N,0,0,0
21:41.147,468413,),0,0,1
21:41.306,468470,(,0,0,2
21:41.550,468558,t,0,0,0
21:41.733,468624,),0,0,2
21:41.981,468713,(,0,0,1
21:42.036,468733,N,0,0,0
21:42.189,468788,),0,0,1
21:42.225,468801,(,0,0,2
21:42.378,468856,t,0,0,0
21:42.497,468899,),0,0,2
21:42.739,468986,(,0,0,1
21:42.794,469006,N,0,0,0
21:42.881,469037,),0,0,1
21:42.961,469066,(,0,0,2
21:42.975,469071,t,0,0,4
21:43.042,469095,t,0,0,4
21:43.103,469117,),0,0,2
21:43.419,469231,(,0,0,1
21:43.481,469253,N,0,0,0
21:43.583,469290,),0,0,1
21:43.600,469296,(,0,0,2
21:43.697,469331,t,0,0,0
21:43.778,469360,),0,0,2
21:43.981,469433,(,0,0,0
21:44.047,469457,p,0,0,0
21:44.128,469486,),0,0,0
21:44.206,469514,(,0,0,1
21:44.256,469532,N,0,0,0
21:44.297,469547,),0,0,1
21:44.419,469591,(,0,0,2
21:44.478,469612,t,0,0,0
21:44.528,469630,),0,0,2
21:44.900,469764,(,0,0,1
21:44.958,469785,N,0,0,0
21:45.006,469802,),0,0,1
21:45.128,469846,(,0,0,2
21:45.203,469873,t,0,0,0
21:45.247,469889,),0,0,2
21:45.361,469930,(,0,0,0
21:45.403,469945,p,0,0,0
21:45.467,469968,),0,0,0
21:45.631,470027,(,0,0,1
21:45.686,470047,N,0,0,0
21:45.728,470062,),0,0,1
21:46.092,470193,(,0,0,2
21:46.139,470210,t,0,0,0
21:46.194,470230,),0,0,2
21:49.486,471415,(,0,0,1
21:49.583,471450,N,0,0,0
21:49.583,471450,),0,0,1
21:49.600,471456,(,0,0,2
21:49.769,471517,t,0,0,0
21:49.911,471568,),0,0,2
22:08.414,478229,(,0,0,0
22:08.458,478245,p,0,0,0
22:08.586,478291,),0,0,0
22:08.619,478303,(,0,0,1
22:08.733,478344,N,0,0,0
22:08.739,478346,),0,0,1
22:08.750,478350,(,0,0,2
22:08.922,478412,t,0,0,0
22:09.078,478468,),0,0,2
22:20.503,482581,(,0,0,1
22:20.550,482598,N,0,0,0
22:20.594,482614,),0,0,1
22:21.219,482839,(,0,0,2
22:21.281,482861,t,0,0,0
22:21.331,482879,),0,0,2
22:29.686,485887,(,0,0,1
22:29.736,485905,N,0,0,0
22:29.786,485923,),0,0,1
22:30.442,486159,(,0,0,2
22:30.494,486178,t,0,0,0
22:30.550,486198,),0,0,2
22:32.444,486880,(,0,0,0
22:32.475,486891,p,0,0,0
22:32.508,486903,),0,0,0
22:32.617,486942,(,0,0,1
22:32.658,486957,N,0,0,0
22:32.700,486972,),0,0,1
22:32.822,487016,(,0,0,2
22:32.906,487046,t,0,0,0
22:32.992,487077,),0,0,2
22:33.236,487165,(,0,0,1
22:33.292,487185,N,0,0,0
22:33.333,487200,),0,0,1
22:33.858,487389,(,0,0,2
22:33.922,487412,t,0,0,0
22:33.986,487435,),0,0,2
22:36.381,488297,(,0,0,1
22:36.436,488317,N,0,0,0
22:36.483,488334,),0,0,1
22:36.633,488388,(,0,0,2
22:36.714,488417,t,0,0,5
22:36.869,488473,t,0,0,5
22:36.961,488506,),0,0,2
22:39.339,489362,(,0,0,0
22:39.414,489389,p,0,0,0
22:39.486,489415,),0,0,0
22:39.567,489444,(,0,0,1
22:39.647,489473,N,0,0,0
22:39.694,489490,),0,0,1
22:40.169,489661,(,0,0,2
22:40.239,489686,t,0,0,5
22:40.333,489720,t,0,0,5
22:40.433,489756,),0,0,2
22:40.997,489959,(,0,0,0
22:41.031,489971,p,0,0,0
22:41.078,489988,),0,0,0
22:41.300,490068,(,0,0,1
22:41.353,490087,N,0,0,0
22:41.397,490103,),0,0,1
22:41.519,490147,(,0,0,2
22:41.594,490174,t,0,0,0
22:41.656,490196,),0,0,2
22:41.675,490203,(,0,0,0
22:41.747,490229,p,0,0,0
22:41.819,490255,),0,0,0
22:41.889,490280,(,0,0,1
22:41.939,490298,N,0,0,0
22:41.983,490314,),0,0,1
22:42.308,490431,(,0,0,1
22:42.347,490445,N,0,0,0
22:42.392,490461,),0,0,1
22:43.069,490705,(,0,0,2
22:43.131,490727,t,0,0,0
22:43.186,490747,),0,0,2
22:47.089,492152,(,0,0,0
22:47.144,492172,p,0,0,0
22:47.197,492191,),0,0,0
22:47.286,492223,(,0,0,1
22:47.344,492244,N,0,0,0
22:47.392,492261,),0,0,1
22:47.475,492291,(,0,0,2
22:47.603,492337,t,0,0,0
22:47.694,492370,),0,0,2
22:48.081,492509,(,0,0,1
22:48.136,492529,N,0,0,0
22:48.183,492546,),0,0,1
22:48.675,492723,(,0,0,2
22:48.731,492743,t,0,0,0
22:48.786,492763,),0,0,2
22:49.872,493154,(,0,0,0
22:49.897,493163,p,0,0,0
22:49.953,493183,),0,0,0
22:50.094,493234,(,0,0,1
22:50.150,493254,N,0,0,0
22:50.194,493270,),0,0,1
22:50.858,493509,(,0,0,2
22:50.903,493525,t,0,0,0
22:50.956,493544,),0,0,2
22:52.900,494244,(,0,0,0
22:52.936,494257,p,0,0,0
22:52.989,494276,),0,0,0
22:53.058,494301,(,0,0,1
22:53.119,494323,N,0,0,0
22:53.164,494339,),0,0,1
22:53.169,494341,(,0,0,2
22:53.239,494366,t,0,0,4
22:53.483,494454,t,0,0,4
22:53.581,494489,),0,0,2
22:53.894,494602,(,0,0,1
22:53.950,494622,N,0,0,0
22:53.994,494638,),0,0,1
22:54.122,494684,(,0,0,2
22:54.214,494717,t,0,0,0
22:54.267,494736,),0,0,2
22:54.506,494822,(,0,0,1
22:54.592,494853,N,0,0,0
22:54.633,494868,),0,0,1
22:54.639,494870,(,0,0,2
22:54.700,494892,t,0,0,4
22:54.831,494939,t,0,0,4
22:54.897,494963,),0,0,2
22:55.714,495257,(,0,0,0
22:55.764,495275,p,0,0,0
22:55.847,495305,),0,0,0
22:56.017,495366,(,0,0,1
22:56.069,495385,N,0,0,0
22:56.111,495400,),0,0,1
22:56.219,495439,(,0,0,2
22:56.297,495467,t,0,0,0
22:56.356,495488,),0,0,2
22:56.833,495660,(,0,0,1
22:56.889,495680,N,0,0,0
22:56.931,495695,),0,0,1
22:57.061,495742,(,0,0,2
22:57.128,495766,t,0,0,0
22:57.183,495786,),0,0,2
22:58.892,496401,(,0,0,0
22:58.953,496423,p,0,0,0
22:59.011,496444,),0,0,0
22:59.044,496456,(,0,0,1
22:59.094,496474,N,0,0,0
22:59.136,496489,),0,0,1
22:59.242,496527,(,0,0,2
22:59.331,496559,t,0,0,0
22:59.372,496574,),0,0,2
22:59.722,496700,(,0,0,1
22:59.797,496727,N,0,0,0
22:59.933,496776,),0,0,1
22:59.978,496792,(,0,0,2
23:00.050,496818,t,0,0,0
23:00.089,496832,),0,0,2
23:00.483,496974,(,0,0,0
23:00.536,496993,p,0,0,0
23:00.625,497025,),0,0,0
23:00.642,497031,(,0,0,1
23:00.733,497064,N,0,0,0
23:00.858,497109,),0,0,1
23:00.914,497129,t,0,0,2
23:01.000,497160,),0,0,2
23:01.067,497184,(,0,0,0
23:01.153,497215,p,0,0,0
23:01.203,497233,),0,0,0
23:01.247,497249,(,0,0,1
23:01.300,497268,N,0,0,0
23:01.342,497283,),0,0,1
23:01.481,497333,t,0,0,2
23:01.556,497360,),0,0,2
23:01.575,497367,(,0,0,0
23:01.683,497406,p,0,0,0
23:01.722,497420,),0,0,0
23:01.747,497429,(,0,0,1
23:01.806,497450,N,0,0,0
23:01.844,497464,),0,0,1
23:01.994,497518,(,0,0,2
23:02.056,497540,t,0,0,0
23:02.156,497576,),0,0,2
23:02.247,497609,(,0,0,0
23:02.322,497636,p,0,0,0
23:02.375,497655,),0,0,0
23:02.508,497703,(,0,0,1
23:02.567,497724,N,0,0,0
23:02.689,497768,),0,0,1
23:02.725,497781,(,0,0,2
23:02.892,497841,t,0,0,0
23:02.950,497862,),0,0,2
23:03.072,497906,(,0,0,0
23:03.119,497923,p,0,0,0
23:03.156,497936,),0,0,0
23:03.183,497946,(,0,0,1
23:03.239,497966,N,0,0,0
23:03.378,498016,),0,0,1
23:03.417,498030,(,0,0,2
23:03.472,498050,t,0,0,0
23:03.508,498063,),0,0,2
23:03.733,498144,(,0,0,1
23:03.786,498163,N,0,0,0
23:03.831,498179,),0,0,1
23:03.956,498224,(,0,0,2
23:04.019,498247,t,0,0,0
23:04.053,498259,),0,0,2
23:04.086,498271,(,0,0,0
23:04.125,498285,p,0,0,0
23:04.156,498296,),0,0,0
23:04.389,498380,(,0,0,1
23:04.467,498408,N,0,0,0
23:04.511,498424,),0,0,1
23:04.656,498476,(,0,0,2
23:04.725,498501,t,0,0,0
23:04.775,498519,),0,0,2
23:04.969,498589,(,0,0,1
23:05.039,498614,N,0,0,0
23:05.089,498632,),0,0,1
23:05.189,498668,(,0,0,2
23:05.297,498707,t,0,0,0
23:05.367,498732,),0,0,2
23:05.539,498794,(,0,0,0
23:05.594,498814,p,0,0,0
23:05.636,498829,),0,0,0
23:05.669,498841,(,0,0,1
23:05.736,498865,N,0,0,0
23:05.783,498882,),0,0,1
23:05.903,498925,(,0,0,2
23:05.992,498957,t,0,0,0
23:06.036,498973,),0,0,2
23:06.264,499055,(,0,0,0
23:06.339,499082,p,0,0,0
23:06.389,499100,),0,0,0
23:06.411,499108,(,0,0,1
23:06.478,499132,N,0,0,0
23:06.522,499148,),0,0,1
23:06.675,499203,(,0,0,2
23:06.744,499228,t,0,0,0
23:06.792,499245,),0,0,2
23:07.078,499348,(,0,0,1
23:07.131,499367,N,0,0,0
23:07.181,499385,),0,0,1
23:07.272,499418,(,0,0,2
23:07.383,499458,t,0,0,0
23:07.419,499471,),0,0,2
23:07.956,499664,(,0,0,1
23:08.014,499685,N,0,0,0
23:08.153,499735,),0,0,1
23:08.167,499740,t,0,0,2
23:08.272,499778,),0,0,2
23:08.308,499791,(,0,0,0
23:08.356,499808,p,0,0,0
23:08.386,499819,),0,0,0
23:08.428,499834,(,0,0,1
23:08.483,499854,N,0,0,0
23:08.528,499870,),0,0,1
23:08.611,499900,(,0,0,2
23:08.719,499939,t,0,0,0
23:08.803,499969,),0,0,2
23:09.097,500075,(,0,0,1
23:09.150,500094,N,0,0,0
23:09.319,500155,),0,0,1
23:09.322,500156,t,0,0,2
23:09.394,500182,),0,0,2
23:09.433,500196,(,0,0,0
23:09.483,500214,p,0,0,0
23:09.558,500241,),0,0,0
23:09.667,500280,(,0,0,1
23:09.722,500300,N,0,0,0
23:09.769,500317,),0,0,1
23:09.861,500350,(,0,0,2
23:09.958,500385,t,0,0,0
23:10.028,500410,),0,0,2
23:10.122,500444,(,0,0,1
23:10.186,500467,N,0,0,0
23:10.236,500485,),0,0,1
23:10.325,500517,(,0,0,2
23:10.422,500552,t,0,0,0
23:10.472,500570,),0,0,2
23:10.708,500655,(,0,0,0
23:10.742,500667,p,0,0,0
23:10.789,500684,),0,0,0
23:10.822,500696,(,0,0,1
23:10.878,500716,N,0,0,0
23:10.922,500732,),0,0,1
23:11.061,500782,t,0,0,2
23:11.139,500810,),0,0,2
23:11.461,500926,(,0,0,0
23:11.492,500937,p,0,0,0
23:11.519,500947,),0,0,0
23:11.672,501002,(,0,0,1
23:11.753,501031,N,0,0,0
23:11.908,501087,),0,0,1
23:11.956,501104,(,0,0,2
23:12.028,501130,t,0,0,0
23:12.061,501142,),0,0,2
23:12.250,501210,(,0,0,0
23:12.275,501219,p,0,0,0
23:12.319,501235,),0,0,0
23:12.506,501302,(,0,0,1
23:12.583,501330,N,0,0,0
23:12.639,501350,),0,0,1
23:12.739,501386,(,0,0,2
23:12.839,501422,t,0,0,0
23:12.889,501440,),0,0,2
23:12.892,501441,(,0,0,1
23:12.989,501476,N,0,0,0
23:13.042,501495,),0,0,1
23:13.097,501515,t,0,0,2
23:13.194,501550,),0,0,2
23:13.297,501587,(,0,0,1
23:13.317,501594,N,0,0,0
23:13.497,501659,),0,0,1
23:13.536,501673,(,0,0,2
23:13.669,501721,t,0,0,1
23:13.694,501730,),0,0,2
23:13.842,501783,(,0,0,1
23:13.953,501823,N,0,0,0
23:14.006,501842,),0,0,1
23:14.056,501860,(,0,0,2
23:14.094,501874,t,0,0,4
23:14.211,501916,t,0,0,4
23:14.228,501922,),0,0,2
23:14.258,501933,(,0,0,0
23:14.314,501953,p,0,0,0
23:14.372,501974,),0,0,0
23:14.508,502023,(,0,0,1
23:14.586,502051,N,0,0,0
23:14.742,502107,),0,0,1
23:14.825,502137,(,0,0,2
23:14.847,502145,t,0,0,5
23:14.881,502157,t,0,0,5
23:14.917,502170,),0,0,2
23:15.022,502208,(,0,0,1
23:15.136,502249,N,0,0,0
23:15.269,502297,),0,0,1
23:15.306,502310,(,0,0,2
23:15.381,502337,t,0,0,5
23:15.425,502353,t,0,0,5
23:15.511,502384,),0,0,2
23:15.600,502416,(,0,0,0
23:15.658,502437,p,0,0,0
23:15.683,502446,),0,0,0
23:15.781,502481,(,0,0,1
23:15.889,502520,N,0,0,0
23:15.956,502544,),0,0,1
23:16.072,502586,(,0,0,2
23:16.156,502616,t,0,0,5
23:16.217,502638,t,0,0,5
23:16.244,502648,),0,0,2
23:16.481,502733,(,0,0,0
23:16.511,502744,p,0,0,0
23:16.564,502763,),0,0,0
23:16.681,502805,(,0,0,1
23:16.747,502829,N,0,0,0
23:16.789,502844,),0,0,1
23:16.878,502876,(,0,0,2
23:16.897,502883,t,0,0,4
23:16.992,502917,t,0,0,4
23:17.058,502941,),0,0,2
23:17.206,502994,(,0,0,0
23:17.217,502998,p,0,0,0
23:17.253,503011,),0,0,0
23:17.325,503037,(,0,0,1
23:17.375,503055,N,0,0,0
23:17.417,503070,),0,0,1
23:17.544,503116,(,0,0,2
23:17.625,503145,t,0,0,0
23:17.689,503168,),0,0,2
23:17.867,503232,(,0,0,1
23:17.953,503263,N,0,0,0
23:18.008,503283,),0,0,1
23:18.067,503304,(,0,0,2
23:18.083,503310,t,0,0,4
23:18.192,503349,t,0,0,4
23:18.239,503366,),0,0,2
23:18.436,503437,(,0,0,1
23:18.531,503471,N,0,0,0
23:18.581,503489,),0,0,1
23:18.806,503570,(,0,0,2
23:18.833,503580,t,0,0,5
23:18.872,503594,t,0,0,5
23:18.908,503607,),0,0,2
23:19.181,503705,(,0,0,0
23:19.203,503713,p,0,0,0
23:19.261,503734,),0,0,0
23:19.333,503760,(,0,0,1
23:19.372,503774,N,0,0,0
23:19.475,503811,),0,0,1
23:19.514,503825,(,0,0,2
23:19.536,503833,t,0,0,4
23:19.642,503871,t,0,0,4
23:19.681,503885,),0,0,2
23:19.761,503914,(,0,0,0
23:19.833,503940,p,0,0,0
23:19.911,503968,),0,0,0
23:19.975,503991,(,0,0,1
23:20.033,504012,N,0,0,0
23:20.169,504061,),0,0,1
23:20.197,504071,(,0,0,2
23:20.278,504100,t,0,0,5
23:20.367,504132,t,0,0,5
23:20.497,504179,),0,0,2
23:20.572,504206,(,0,0,0
23:20.647,504233,p,0,0,0
23:20.728,504262,),0,0,0
23:20.772,504278,(,0,0,1
23:20.883,504318,N,0,0,0
23:20.950,504342,),0,0,1
23:21.069,504385,(,0,0,2
23:21.156,504416,t,0,0,0
23:21.222,504440,),0,0,2
23:21.250,504450,(,0,0,0
23:21.283,504462,p,0,0,0
23:21.331,504479,),0,0,0
23:21.436,504517,(,0,0,1
23:21.481,504533,N,0,0,0
23:21.522,504548,),0,0,1
23:21.597,504575,(,0,0,2
23:21.714,504617,t,0,0,0
23:21.789,504644,),0,0,2
23:21.792,504645,(,0,0,0
23:21.800,504648,p,0,0,0
23:21.861,504670,),0,0,0
23:21.922,504692,(,0,0,1
23:21.972,504710,N,0,0,0
23:22.119,504763,),0,0,1
23:22.206,504794,(,0,0,2
23:22.342,504843,t,0,0,1
23:22.422,504872,),0,0,2
23:22.436,504877,(,0,0,0
23:22.483,504894,p,0,0,0
23:22.542,504915,),0,0,0
23:22.581,504929,(,0,0,1
23:22.644,504952,N,0,0,0
23:22.700,504972,),0,0,1
23:22.792,505005,(,0,0,2
23:22.922,505052,t,0,0,0
23:23.008,505083,),0,0,2
23:23.178,505144,(,0,0,1
23:23.242,505167,N,0,0,0
23:23.369,505213,),0,0,1
23:23.389,505220,(,0,0,2
23:23.481,505253,t,0,0,0
23:23.517,505266,),0,0,2
23:23.644,505312,(,0,0,0
23:23.689,505328,p,0,0,0
23:23.714,505337,),0,0,0
23:23.775,505359,(,0,0,1
