Elapsedtime,sample,Type,Sub,Chan,Num
0:00.453,163,(,0,0,0
0:00.497,179,p,0,0,0
0:00.553,199,),0,0,0
0:00.600,216,(,0,0,1
0:00.633,228,N,0,0,0
0:00.667,240,),0,0,1
0:00.864,311,(,0,0,2
0:00.922,332,t,0,0,0
0:00.997,359,),0,0,2
0:01.114,401,(,0,0,0
0:01.153,415,p,0,0,0
0:01.214,437,),0,0,0
0:01.225,441,(,0,0,1
0:01.292,465,N,0,0,0
0:01.317,474,),0,0,1
0:01.536,553,(,0,0,2
0:01.578,568,t,0,0,0
0:01.650,594,),0,0,2
0:01.786,643,(,0,0,0
0:01.819,655,p,0,0,0
0:01.883,678,),0,0,0
0:01.928,694,(,0,0,1
0:01.958,705,N,0,0,0
0:01.997,719,),0,0,1
0:02.192,789,(,0,0,2
0:02.244,808,t,0,0,0
0:02.311,832,),0,0,2
0:02.436,877,(,0,0,0
0:02.478,892,p,0,0,0
0:02.536,913,),0,0,0
0:02.589,932,(,0,0,1
0:02.619,943,N,0,0,0
0:02.658,957,),0,0,1
0:02.872,1034,(,0,0,2
0:02.919,1051,t,0,0,0
0:03.008,1083,),0,0,2
0:03.103,1117,(,0,0,0
0:03.147,1133,p,0,0,0
0:03.214,1157,),0,0,0
0:03.264,1175,(,0,0,1
0:03.297,1187,N,0,0,0
0:03.333,1200,),0,0,1
0:03.547,1277,(,0,0,2
0:03.597,1295,t,0,0,0
0:03.686,1327,),0,0,2
0:03.789,1364,(,0,0,0
0:03.833,1380,p,0,0,0
0:03.897,1403,),0,0,0
0:03.942,1419,(,0,0,1
0:03.972,1430,N,0,0,0
0:04.006,1442,),0,0,1
0:04.211,1516,(,0,0,2
0:04.256,1532,t,0,0,0
0:04.356,1568,),0,0,2
0:04.450,1602,(,0,0,0
0:04.497,1619,p,0,0,0
0:04.556,1640,),0,0,0
0:04.606,1658,(,0,0,1
0:04.639,1670,N,0,0,0
0:04.664,1679,),0,0,1
0:04.869,1753,(,0,0,2
0:04.922,1772,t,0,0,0
0:04.989,1796,),0,0,2
0:05.108,1839,(,0,0,0
0:05.144,1852,p,0,0,0
0:05.203,1873,),0,0,0
0:05.222,1880,(,0,0,1
0:05.281,1901,N,0,0,0
0:05.319,1915,),0,0,1
0:05.519,1987,(,0,0,2
0:05.575,2007,t,0,0,0
0:05.647,2033,),0,0,2
0:05.767,2076,(,0,0,0
0:05.811,2092,p,0,0,0
0:05.872,2114,),0,0,0
0:05.889,2120,(,0,0,1
0:05.956,2144,N,0,0,0
0:05.981,2153,),0,0,1
0:06.206,2234,(,0,0,2
0:06.261,2254,t,0,0,0
0:06.344,2284,),0,0,2
0:06.458,2325,(,0,0,0
0:06.506,2342,p,0,0,0
0:06.558,2361,),0,0,0
0:06.614,2381,(,0,0,1
0:06.644,2392,N,0,0,0
0:06.678,2404,),0,0,1
0:06.883,2478,(,0,0,2
0:06.933,2496,t,0,0,0
0:07.033,2532,),0,0,2
0:07.128,2566,(,0,0,0
0:07.175,2583,p,0,0,0
0:07.239,2606,),0,0,0
0:07.258,2613,(,0,0,1
0:07.319,2635,N,0,0,0
0:07.344,2644,),0,0,1
0:07.556,2720,(,0,0,2
0:07.617,2742,t,0,0,0
0:07.689,2768,),0,0,2
0:07.811,2812,(,0,0,0
0:07.842,2823,p,0,0,0
0:07.897,2843,),0,0,0
0:07.947,2861,(,0,0,1
0:07.978,2872,N,0,0,0
0:08.003,2881,),0,0,1
0:08.222,2960,(,0,0,2
0:08.269,2977,t,0,0,0
0:08.353,3007,),0,0,2
0:08.461,3046,(,0,0,0
0:08.508,3063,p,0,0,0
0:08.561,3082,),0,0,0
0:08.614,3101,(,0,0,1
0:08.644,3112,N,0,0,0
0:08.678,3124,),0,0,1
0:08.889,3200,(,0,0,2
0:08.936,3217,t,0,0,0
0:09.006,3242,),0,0,2
0:09.128,3286,(,0,0,0
0:09.175,3303,p,0,0,0
0:09.231,3323,),0,0,0
0:09.283,3342,(,0,0,1
0:09.314,3353,N,0,0,0
0:09.347,3365,),0,0,1
0:09.550,3438,(,0,0,2
0:09.600,3456,t,0,0,0
0:09.689,3488,),0,0,2
0:09.792,3525,(,0,0,0
0:09.836,3541,p,0,0,0
0:09.894,3562,),0,0,0
0:09.950,3582,(,0,0,1
0:09.981,3593,N,0,0,0
0:10.006,3602,),0,0,1
0:10.228,3682,(,0,0,2
0:10.275,3699,t,0,0,0
0:10.353,3727,),0,0,2
0:10.481,3773,(,0,0,0
0:10.519,3787,p,0,0,0
0:10.583,3810,),0,0,0
0:10.631,3827,(,0,0,1
0:10.664,3839,N,0,0,0
0:10.697,3851,),0,0,1
0:10.919,3931,(,0,0,2
0:10.967,3948,t,0,0,0
0:11.061,3982,),0,0,2
0:11.161,4018,(,0,0,0
0:11.203,4033,p,0,0,0
0:11.264,4055,),0,0,0
0:11.308,4071,(,0,0,1
0:11.342,4083,N,0,0,0
0:11.375,4095,),0,0,1
0:11.586,4171,(,0,0,2
0:11.631,4187,t,0,0,0
0:11.722,4220,),0,0,2
0:11.825,4257,(,0,0,0
0:11.869,4273,p,0,0,0
0:11.925,4293,),0,0,0
0:11.975,4311,(,0,0,1
0:12.008,4323,N,0,0,0
0:12.033,4332,),0,0,1
0:12.244,4408,(,0,0,2
0:12.294,4426,t,0,0,0
0:12.367,4452,),0,0,2
0:12.486,4495,(,0,0,0
0:12.528,4510,p,0,0,0
0:12.583,4530,),0,0,0
0:12.633,4548,(,0,0,1
0:12.667,4560,N,0,0,0
0:12.703,4573,),0,0,1
0:12.919,4651,(,0,0,2
0:12.969,4669,t,0,0,0
0:13.061,4702,),0,0,2
0:13.158,4737,(,0,0,0
0:13.200,4752,p,0,0,0
0:13.261,4774,),0,0,0
0:13.314,4793,(,0,0,1
0:13.347,4805,N,0,0,0
0:13.372,4814,),0,0,1
0:13.606,4898,(,0,0,2
0:13.664,4919,t,0,0,0
0:13.764,4955,),0,0,2
0:13.861,4990,(,0,0,0
0:13.911,5008,p,0,0,0
0:13.969,5029,),0,0,0
0:14.017,5046,(,0,0,1
0:14.050,5058,N,0,0,0
0:14.083,5070,),0,0,1
0:14.292,5145,(,0,0,2
0:14.344,5164,t,0,0,0
0:14.447,5201,),0,0,2
0:14.536,5233,(,0,0,0
0:14.581,5249,p,0,0,0
0:14.644,5272,),0,0,0
0:14.694,5290,(,0,0,1
0:14.725,5301,N,0,0,0
0:14.750,5310,),0,0,1
0:14.961,5386,(,0,0,2
0:15.019,5407,t,0,0,0
0:15.128,5446,),0,0,2
0:15.211,5476,(,0,0,0
0:15.253,5491,p,0,0,0
0:15.314,5513,),0,0,0
0:15.361,5530,(,0,0,1
0:15.394,5542,N,0,0,0
0:15.419,5551,),0,0,1
0:15.633,5628,(,0,0,2
0:15.689,5648,t,0,0,0
0:15.792,5685,),0,0,2
0:15.875,5715,(,0,0,0
0:15.917,5730,p,0,0,0
0:15.972,5750,),0,0,0
0:16.028,5770,(,0,0,1
0:16.061,5782,N,0,0,0
0:16.086,5791,),0,0,1
0:16.308,5871,(,0,0,2
0:16.361,5890,t,0,0,0
0:16.456,5924,),0,0,2
0:16.561,5962,(,0,0,0
0:16.600,5976,p,0,0,0
0:16.653,5995,),0,0,0
0:16.697,6011,(,0,0,1
0:16.731,6023,N,0,0,0
0:16.767,6036,),0,0,1
0:16.975,6111,(,0,0,2
0:17.025,6129,t,0,0,0
0:17.128,6166,),0,0,2
0:17.219,6199,(,0,0,0
0:17.258,6213,p,0,0,0
0:17.322,6236,),0,0,0
0:17.369,6253,(,0,0,1
0:17.403,6265,N,0,0,0
0:17.439,6278,),0,0,1
0:17.653,6355,(,0,0,2
0:17.706,6374,t,0,0,0
0:17.783,6402,),0,0,2
0:17.897,6443,(,0,0,0
0:17.944,6460,p,0,0,0
0:18.003,6481,),0,0,0
0:18.058,6501,(,0,0,1
0:18.092,6513,N,0,0,0
0:18.117,6522,),0,0,1
0:18.336,6601,(,0,0,2
0:18.394,6622,t,0,0,0
0:18.494,6658,),0,0,2
0:18.572,6686,(,0,0,0
0:18.617,6702,p,0,0,0
0:18.672,6722,),0,0,0
0:18.722,6740,(,0,0,1
0:18.756,6752,N,0,0,0
0:18.789,6764,),0,0,1
0:19.003,6841,(,0,0,2
0:19.058,6861,t,0,0,0
0:19.167,6900,),0,0,2
0:19.239,6926,(,0,0,0
0:19.283,6942,p,0,0,0
0:19.342,6963,),0,0,0
0:19.386,6979,(,0,0,1
0:19.417,6990,N,0,0,0
0:19.453,7003,),0,0,1
0:19.658,7077,(,0,0,2
0:19.711,7096,t,0,0,0
0:19.794,7126,),0,0,2
0:19.892,7161,(,0,0,0
0:19.933,7176,p,0,0,0
0:19.994,7198,),0,0,0
0:20.042,7215,(,0,0,1
0:20.075,7227,N,0,0,0
0:20.100,7236,),0,0,1
0:20.314,7313,(,0,0,2
0:20.372,7334,t,0,0,0
0:20.436,7357,),0,0,2
0:20.564,7403,(,0,0,0
0:20.608,7419,p,0,0,0
0:20.667,7440,),0,0,0
0:20.719,7459,(,0,0,1
0:20.750,7470,N,0,0,0
0:20.775,7479,),0,0,1
0:21.000,7560,(,0,0,2
0:21.053,7579,t,0,0,0
0:21.158,7617,),0,0,2
0:21.233,7644,(,0,0,0
0:21.275,7659,p,0,0,0
0:21.331,7679,),0,0,0
0:21.381,7697,(,0,0,1
0:21.411,7708,N,0,0,0
0:21.444,7720,),0,0,1
0:21.653,7795,(,0,0,2
0:21.708,7815,t,0,0,0
0:21.767,7836,),0,0,2
0:21.894,7882,(,0,0,0
0:21.933,7896,p,0,0,0
0:21.994,7918,),0,0,0
0:22.042,7935,(,0,0,1
0:22.075,7947,N,0,0,0
0:22.108,7959,),0,0,1
0:22.311,8032,(,0,0,2
0:22.361,8050,t,0,0,0
0:22.439,8078,),0,0,2
0:22.536,8113,(,0,0,0
0:22.581,8129,p,0,0,0
0:22.639,8150,),0,0,0
0:22.692,8169,(,0,0,1
0:22.722,8180,N,0,0,0
0:22.747,8189,),0,0,1
0:22.964,8267,(,0,0,2
0:23.017,8286,t,0,0,0
0:23.103,8317,),0,0,2
0:23.203,8353,(,0,0,0
0:23.244,8368,p,0,0,0
0:23.300,8388,),0,0,0
0:23.353,8407,(,0,0,1
0:23.386,8419,N,0,0,0
0:23.419,8431,),0,0,1
0:23.631,8507,(,0,0,2
0:23.686,8527,t,0,0,0
0:23.764,8555,),0,0,2
0:23.864,8591,(,0,0,0
0:23.903,8605,p,0,0,0
0:23.961,8626,),0,0,0
0:23.972,8630,(,0,0,1
0:24.036,8653,N,0,0,0
0:24.061,8662,),0,0,1
0:24.278,8740,(,0,0,2
0:24.342,8763,t,0,0,0
0:24.436,8797,),0,0,2
0:24.531,8831,(,0,0,0
0:24.572,8846,p,0,0,0
0:24.633,8868,),0,0,0
0:24.683,8886,(,0,0,1
0:24.717,8898,N,0,0,0
0:24.750,8910,),0,0,1
0:24.953,8983,(,0,0,2
0:25.008,9003,t,0,0,0
0:25.100,9036,),0,0,2
0:25.197,9071,(,0,0,0
0:25.242,9087,p,0,0,0
0:25.300,9108,),0,0,0
0:25.356,9128,(,0,0,1
0:25.386,9139,N,0,0,0
0:25.411,9148,),0,0,1
0:25.628,9226,(,0,0,2
0:25.681,9245,t,0,0,0
0:25.761,9274,),0,0,2
0:25.858,9309,(,0,0,0
0:25.900,9324,p,0,0,0
0:25.961,9346,),0,0,0
0:26.006,9362,(,0,0,1
0:26.039,9374,N,0,0,0
0:26.075,9387,),0,0,1
0:26.292,9465,(,0,0,2
0:26.339,9482,t,0,0,0
0:26.436,9517,),0,0,2
0:26.514,9545,(,0,0,0
0:26.556,9560,p,0,0,0
0:26.611,9580,),0,0,0
0:26.639,9590,(,0,0,1
0:26.694,9610,N,0,0,0
0:26.728,9622,),0,0,1
0:26.936,9697,(,0,0,2
0:26.989,9716,t,0,0,0
0:27.067,9744,),0,0,2
0:27.172,9782,(,0,0,0
0:27.217,9798,p,0,0,0
0:27.278,9820,),0,0,0
0:27.325,9837,(,0,0,1
0:27.361,9850,N,0,0,0
0:27.394,9862,),0,0,1
0:27.606,9938,(,0,0,2
0:27.664,9959,t,0,0,0
0:27.753,9991,),0,0,2
0:27.867,10032,(,0,0,0
0:27.900,10044,p,0,0,0
0:27.961,10066,),0,0,0
0:28.014,10085,(,0,0,1
0:28.047,10097,N,0,0,0
0:28.081,10109,),0,0,1
0:28.297,10187,(,0,0,2
0:28.350,10206,t,0,0,0
0:28.442,10239,),0,0,2
0:28.533,10272,(,0,0,0
0:28.578,10288,p,0,0,0
0:28.633,10308,),0,0,0
0:28.681,10325,(,0,0,1
0:28.714,10337,N,0,0,0
0:28.750,10350,),0,0,1
0:28.956,10424,(,0,0,2
0:29.008,10443,t,0,0,0
0:29.103,10477,),0,0,2
0:29.200,10512,(,0,0,0
0:29.236,10525,p,0,0,0
0:29.294,10546,),0,0,0
0:29.342,10563,(,0,0,1
0:29.375,10575,N,0,0,0
0:29.397,10583,),0,0,1
0:29.603,10657,(,0,0,2
0:29.656,10676,t,0,0,0
0:29.764,10715,),0,0,2
0:29.842,10743,(,0,0,0
0:29.886,10759,p,0,0,0
0:29.944,10780,),0,0,0
0:29.994,10798,(,0,0,1
0:30.025,10809,N,0,0,0
0:30.050,10818,),0,0,1
0:30.264,10895,(,0,0,2
0:30.308,10911,t,0,0,0
0:30.456,10964,),0,0,2
0:30.497,10979,(,0,0,0
0:30.533,10992,p,0,0,0
0:30.594,11014,),0,0,0
0:30.644,11032,(,0,0,1
0:30.675,11043,N,0,0,0
0:30.714,11057,),0,0,1
0:30.928,11134,(,0,0,2
0:30.978,11152,t,0,0,0
0:31.064,11183,),0,0,2
0:31.144,11212,(,0,0,0
0:31.189,11228,p,0,0,0
0:31.244,11248,),0,0,0
0:31.294,11266,(,0,0,1
0:31.328,11278,N,0,0,0
0:31.361,11290,),0,0,1
0:31.575,11367,(,0,0,2
0:31.625,11385,t,0,0,0
0:31.703,11413,),0,0,2
0:31.817,11454,(,0,0,0
0:31.858,11469,p,0,0,0
0:31.914,11489,),0,0,0
0:31.967,11508,(,0,0,1
0:31.997,11519,N,0,0,0
0:32.031,11531,),0,0,1
0:32.239,11606,(,0,0,2
0:32.294,11626,t,0,0,0
0:32.400,11664,),0,0,2
0:32.500,11700,(,0,0,0
0:32.542,11715,p,0,0,0
0:32.603,11737,),0,0,0
0:32.650,11754,(,0,0,1
0:32.683,11766,N,0,0,0
0:32.719,11779,),0,0,1
0:32.919,11851,(,0,0,2
0:32.969,11869,t,0,0,0
0:33.072,11906,),0,0,2
0:33.147,11933,(,0,0,0
0:33.192,11949,p,0,0,0
0:33.250,11970,),0,0,0
0:33.300,11988,(,0,0,1
0:33.331,11999,N,0,0,0
0:33.353,12007,),0,0,1
0:33.567,12084,(,0,0,2
0:33.622,12104,t,0,0,0
0:33.711,12136,),0,0,2
0:33.806,12170,(,0,0,0
0:33.850,12186,p,0,0,0
0:33.906,12206,),0,0,0
0:33.956,12224,(,0,0,1
0:33.989,12236,N,0,0,0
0:34.022,12248,),0,0,1
0:34.225,12321,(,0,0,2
0:34.275,12339,t,0,0,0
0:34.342,12363,),0,0,2
0:34.467,12408,(,0,0,0
0:34.508,12423,p,0,0,0
0:34.569,12445,),0,0,0
0:34.617,12462,(,0,0,1
0:34.650,12474,N,0,0,0
0:34.686,12487,),0,0,1
0:34.903,12565,(,0,0,2
0:34.950,12582,t,0,0,0
0:35.042,12615,),0,0,2
0:35.142,12651,(,0,0,0
0:35.192,12669,p,0,0,0
0:35.250,12690,),0,0,0
0:35.278,12700,(,0,0,1
0:35.336,12721,N,0,0,0
0:35.361,12730,),0,0,1
0:35.589,12812,(,0,0,2
0:35.633,12828,t,0,0,0
0:35.769,12877,),0,0,2
0:35.814,12893,(,0,0,0
0:35.861,12910,p,0,0,0
0:35.917,12930,),0,0,0
0:35.967,12948,(,0,0,1
0:36.000,12960,N,0,0,0
0:36.025,12969,),0,0,1
0:36.247,13049,(,0,0,2
0:36.303,13069,t,0,0,0
0:36.406,13106,),0,0,2
0:36.500,13140,(,0,0,0
0:36.539,13154,p,0,0,0
0:36.594,13174,),0,0,0
0:36.611,13180,(,0,0,1
0:36.672,13202,N,0,0,0
0:36.697,13211,),0,0,1
0:36.906,13286,(,0,0,2
0:36.958,13305,t,0,0,0
0:37.039,13334,),0,0,2
0:37.156,13376,(,0,0,0
0:37.197,13391,p,0,0,0
0:37.258,13413,),0,0,0
0:37.281,13421,(,0,0,1
0:37.336,13441,N,0,0,0
0:37.358,13449,),0,0,1
0:37.569,13525,(,0,0,2
0:37.622,13544,t,0,0,0
0:37.719,13579,),0,0,2
0:37.833,13620,(,0,0,0
0:37.869,13633,p,0,0,0
0:37.928,13654,),0,0,0
0:37.981,13673,(,0,0,1
0:38.014,13685,N,0,0,0
0:38.039,13694,),0,0,1
0:38.253,13771,(,0,0,2
0:38.297,13787,t,0,0,0
0:38.406,13826,),0,0,2
0:38.486,13855,(,0,0,0
0:38.531,13871,p,0,0,0
0:38.592,13893,),0,0,0
0:38.644,13912,(,0,0,1
0:38.678,13924,N,0,0,0
0:38.703,13933,),0,0,1
0:38.931,14015,(,0,0,2
0:38.983,14034,t,0,0,0
0:39.081,14069,),0,0,2
0:39.175,14103,(,0,0,0
0:39.217,14118,p,0,0,0
0:39.275,14139,),0,0,0
0:39.328,14158,(,0,0,1
0:39.358,14169,N,0,0,0
0:39.383,14178,),0,0,1
0:39.611,14260,(,0,0,2
0:39.667,14280,t,0,0,0
0:39.747,14309,),0,0,2
0:39.869,14353,(,0,0,0
0:39.911,14368,p,0,0,0
0:39.969,14389,),0,0,0
0:40.019,14407,(,0,0,1
0:40.053,14419,N,0,0,0
0:40.086,14431,),0,0,1
0:40.297,14507,(,0,0,2
0:40.347,14525,t,0,0,0
0:40.408,14547,),0,0,2
0:40.542,14595,(,0,0,0
0:40.586,14611,p,0,0,0
0:40.644,14632,),0,0,0
0:40.694,14650,(,0,0,1
0:40.728,14662,N,0,0,0
0:40.750,14670,),0,0,1
0:40.967,14748,(,0,0,2
0:41.019,14767,t,0,0,0
0:41.117,14802,),0,0,2
0:41.211,14836,(,0,0,0
0:41.253,14851,p,0,0,0
0:41.311,14872,),0,0,0
0:41.358,14889,(,0,0,1
0:41.392,14901,N,0,0,0
0:41.414,14909,),0,0,1
0:41.642,14991,(,0,0,2
0:41.686,15007,t,0,0,0
0:41.742,15027,),0,0,2
0:41.881,15077,(,0,0,0
0:41.928,15094,p,0,0,0
0:41.983,15114,),0,0,0
0:42.033,15132,(,0,0,1
0:42.069,15145,N,0,0,0
0:42.094,15154,),0,0,1
0:42.319,15235,(,0,0,2
0:42.375,15255,t,0,0,0
0:42.481,15293,),0,0,2
0:42.575,15327,(,0,0,0
0:42.619,15343,p,0,0,0
0:42.675,15363,),0,0,0
0:42.725,15381,(,0,0,1
0:42.761,15394,N,0,0,0
0:42.783,15402,),0,0,1
0:43.006,15482,(,0,0,2
0:43.053,15499,t,0,0,0
0:43.175,15543,),0,0,2
0:43.256,15572,(,0,0,0
0:43.297,15587,p,0,0,0
0:43.358,15609,),0,0,0
0:43.408,15627,(,0,0,1
0:43.442,15639,N,0,0,0
0:43.467,15648,),0,0,1
0:43.683,15726,(,0,0,2
0:43.733,15744,t,0,0,0
0:43.831,15779,),0,0,2
0:43.922,15812,(,0,0,0
0:43.964,15827,p,0,0,0
0:44.019,15847,),0,0,0
0:44.069,15865,(,0,0,1
0:44.100,15876,N,0,0,0
0:44.125,15885,),0,0,1
0:44.344,15964,(,0,0,2
0:44.394,15982,t,0,0,0
0:44.481,16013,),0,0,2
0:44.586,16051,(,0,0,0
0:44.631,16067,p,0,0,0
0:44.692,16089,),0,0,0
0:44.739,16106,(,0,0,1
0:44.769,16117,N,0,0,0
0:44.794,16126,),0,0,1
0:45.003,16201,(,0,0,2
0:45.056,16220,t,0,0,0
0:45.144,16252,),0,0,2
0:45.258,16293,(,0,0,0
0:45.294,16306,p,0,0,0
0:45.350,16326,),0,0,0
0:45.400,16344,(,0,0,1
0:45.433,16356,N,0,0,0
0:45.456,16364,),0,0,1
0:45.669,16441,(,0,0,2
0:45.717,16458,t,0,0,0
0:45.783,16482,),0,0,2
0:45.914,16529,(,0,0,0
0:45.961,16546,p,0,0,0
0:46.017,16566,),0,0,0
0:46.072,16586,(,0,0,1
0:46.103,16597,N,0,0,0
0:46.128,16606,),0,0,1
0:46.347,16685,(,0,0,2
0:46.400,16704,t,0,0,0
0:46.478,16732,),0,0,2
0:46.592,16773,(,0,0,0
0:46.633,16788,p,0,0,0
0:46.697,16811,),0,0,0
0:46.747,16829,(,0,0,1
0:46.783,16842,N,0,0,0
0:46.808,16851,),0,0,1
0:47.039,16934,(,0,0,2
0:47.092,16953,t,0,0,0
0:47.181,16985,),0,0,2
0:47.283,17022,(,0,0,0
0:47.325,17037,p,0,0,0
0:47.383,17058,),0,0,0
0:47.433,17076,(,0,0,1
0:47.464,17087,N,0,0,0
0:47.497,17099,),0,0,1
0:47.706,17174,(,0,0,2
0:47.758,17193,t,0,0,0
0:47.819,17215,),0,0,2
0:47.944,17260,(,0,0,0
0:47.986,17275,p,0,0,0
0:48.042,17295,),0,0,0
0:48.092,17313,(,0,0,1
0:48.125,17325,N,0,0,0
0:48.158,17337,),0,0,1
0:48.361,17410,(,0,0,2
0:48.414,17429,t,0,0,0
0:48.514,17465,),0,0,2
0:48.608,17499,(,0,0,0
0:48.642,17511,p,0,0,0
0:48.694,17530,),0,0,0
0:48.747,17549,(,0,0,1
0:48.781,17561,N,0,0,0
0:48.806,17570,),0,0,1
0:49.022,17648,(,0,0,2
0:49.072,17666,t,0,0,0
0:49.153,17695,),0,0,2
0:49.267,17736,(,0,0,0
0:49.308,17751,p,0,0,0
0:49.367,17772,),0,0,0
0:49.389,17780,(,0,0,1
0:49.456,17804,N,0,0,0
0:49.492,17817,),0,0,1
0:49.708,17895,(,0,0,2
0:49.764,17915,t,0,0,0
0:49.853,17947,),0,0,2
0:49.950,17982,(,0,0,0
0:49.994,17998,p,0,0,0
0:50.053,18019,),0,0,0
0:50.106,18038,(,0,0,1
0:50.136,18049,N,0,0,0
0:50.169,18061,),0,0,1
0:50.378,18136,(,0,0,2
0:50.425,18153,t,0,0,0
0:50.536,18193,),0,0,2
0:50.619,18223,(,0,0,0
0:50.667,18240,p,0,0,0
0:50.731,18263,),0,0,0
0:50.781,18281,(,0,0,1
0:50.811,18292,N,0,0,0
0:50.844,18304,),0,0,1
0:51.053,18379,(,0,0,2
0:51.103,18397,t,0,0,0
0:51.208,18435,),0,0,2
0:51.283,18462,(,0,0,0
0:51.328,18478,p,0,0,0
0:51.392,18501,),0,0,0
0:51.419,18511,(,0,0,1
0:51.475,18531,N,0,0,0
0:51.497,18539,),0,0,1
0:51.717,18618,(,0,0,2
0:51.767,18636,t,0,0,0
0:51.850,18666,),0,0,2
0:51.950,18702,(,0,0,0
0:51.994,18718,p,0,0,0
0:52.053,18739,),0,0,0
0:52.103,18757,(,0,0,1
0:52.136,18769,N,0,0,0
0:52.161,18778,),0,0,1
0:52.306,18830,(,0,0,2
0:52.336,18841,t,0,0,4
0:52.433,18876,t,0,0,4
0:52.517,18906,),0,0,2
0:52.619,18943,(,0,0,0
0:52.667,18960,p,0,0,0
0:52.719,18979,),0,0,0
0:52.767,18996,(,0,0,1
0:52.800,19008,N,0,0,0
0:52.836,19021,),0,0,1
0:53.036,19093,(,0,0,2
0:53.097,19115,t,0,0,0
0:53.164,19139,),0,0,2
0:53.283,19182,(,0,0,0
0:53.328,19198,p,0,0,0
0:53.389,19220,),0,0,0
0:53.439,19238,(,0,0,1
0:53.472,19250,N,0,0,0
0:53.506,19262,),0,0,1
0:53.714,19337,(,0,0,2
0:53.767,19356,t,0,0,0
0:53.847,19385,),0,0,2
0:53.975,19431,(,0,0,0
0:54.017,19446,p,0,0,0
0:54.075,19467,),0,0,0
0:54.128,19486,(,0,0,1
0:54.164,19499,N,0,0,0
0:54.197,19511,),0,0,1
0:54.403,19585,(,0,0,2
0:54.458,19605,t,0,0,0
0:54.525,19629,),0,0,2
0:54.647,19673,(,0,0,0
0:54.686,19687,p,0,0,0
0:54.744,19708,),0,0,0
0:54.792,19725,(,0,0,1
0:54.825,19737,N,0,0,0
0:54.850,19746,),0,0,1
0:55.069,19825,(,0,0,2
0:55.122,19844,t,0,0,0
0:55.192,19869,),0,0,2
0:55.319,19915,(,0,0,0
0:55.361,19930,p,0,0,0
0:55.417,19950,),0,0,0
0:55.467,19968,(,0,0,1
0:55.500,19980,N,0,0,0
0:55.536,19993,),0,0,1
0:55.731,20063,(,0,0,2
0:55.781,20081,t,0,0,0
0:55.856,20108,),0,0,2
0:55.967,20148,(,0,0,0
0:56.011,20164,p,0,0,0
0:56.072,20186,),0,0,0
0:56.094,20194,(,0,0,1
0:56.158,20217,N,0,0,0
0:56.192,20229,),0,0,1
0:56.400,20304,(,0,0,2
0:56.458,20325,t,0,0,0
0:56.550,20358,),0,0,2
0:56.653,20395,(,0,0,0
0:56.697,20411,p,0,0,0
0:56.756,20432,),0,0,0
0:56.808,20451,(,0,0,1
0:56.842,20463,N,0,0,0
0:56.864,20471,),0,0,1
0:57.086,20551,(,0,0,2
0:57.142,20571,t,0,0,0
0:57.222,20600,),0,0,2
0:57.333,20640,(,0,0,0
0:57.381,20657,p,0,0,0
0:57.439,20678,),0,0,0
0:57.458,20685,(,0,0,1
0:57.522,20708,N,0,0,0
0:57.544,20716,),0,0,1
0:57.761,20794,(,0,0,2
0:57.819,20815,t,0,0,0
0:57.886,20839,),0,0,2
0:58.019,20887,(,0,0,0
0:58.058,20901,p,0,0,0
0:58.119,20923,),0,0,0
0:58.167,20940,(,0,0,1
0:58.200,20952,N,0,0,0
0:58.236,20965,),0,0,1
0:58.419,21031,(,0,0,2
0:58.481,21053,t,0,0,0
0:58.583,21090,),0,0,2
0:58.683,21126,(,0,0,0
0:58.722,21140,p,0,0,0
0:58.789,21164,),0,0,0
0:58.831,21179,(,0,0,1
0:58.864,21191,N,0,0,0
0:58.889,21200,),0,0,1
0:59.103,21277,(,0,0,2
0:59.150,21294,t,0,0,0
0:59.217,21318,),0,0,2
0:59.350,21366,(,0,0,0
0:59.392,21381,p,0,0,0
0:59.453,21403,),0,0,0
0:59.506,21422,(,0,0,1
0:59.539,21434,N,0,0,0
0:59.575,21447,),0,0,1
0:59.789,21524,(,0,0,2
0:59.836,21541,t,0,0,0
0:59.958,21585,),0,0,2
1:00.019,21607,(,0,0,0
1:00.061,21622,p,0,0,0
1:00.119,21643,),0,0,0
1:00.172,21662,(,0,0,1
1:00.206,21674,N,0,0,0
1:00.231,21683,),0,0,1
1:00.456,21764,(,0,0,2
1:00.511,21784,t,0,0,0
1:00.589,21812,),0,0,2
1:00.719,21859,(,0,0,0
1:00.764,21875,p,0,0,0
1:00.825,21897,),0,0,0
1:00.872,21914,(,0,0,1
1:00.906,21926,N,0,0,0
1:00.939,21938,),0,0,1
1:01.156,22016,(,0,0,2
1:01.208,22035,t,0,0,0
1:01.292,22065,),0,0,2
1:01.411,22108,(,0,0,0
1:01.453,22123,p,0,0,0
1:01.517,22146,),0,0,0
1:01.531,22151,(,0,0,1
1:01.600,22176,N,0,0,0
1:01.622,22184,),0,0,1
1:01.836,22261,(,0,0,2
1:01.886,22279,t,0,0,0
1:01.967,22308,),0,0,2
1:02.092,22353,(,0,0,0
1:02.131,22367,p,0,0,0
1:02.192,22389,),0,0,0
1:02.242,22407,(,0,0,1
1:02.275,22419,N,0,0,0
1:02.300,22428,),0,0,1
1:02.508,22503,(,0,0,2
1:02.564,22523,t,0,0,0
1:02.683,22566,),0,0,2
1:02.753,22591,(,0,0,0
1:02.800,22608,p,0,0,0
1:02.858,22629,),0,0,0
1:02.906,22646,(,0,0,1
1:02.939,22658,N,0,0,0
1:02.964,22667,),0,0,1
1:03.178,22744,(,0,0,2
1:03.236,22765,t,0,0,0
1:03.325,22797,),0,0,2
1:03.428,22834,(,0,0,0
1:03.472,22850,p,0,0,0
1:03.528,22870,),0,0,0
1:03.583,22890,(,0,0,1
1:03.614,22901,N,0,0,0
1:03.650,22914,),0,0,1
1:03.864,22991,(,0,0,2
1:03.919,23011,t,0,0,0
1:03.989,23036,),0,0,2
1:04.111,23080,(,0,0,0
1:04.156,23096,p,0,0,0
1:04.217,23118,),0,0,0
1:04.269,23137,(,0,0,1
1:04.303,23149,N,0,0,0
1:04.328,23158,),0,0,1
1:04.553,23239,(,0,0,2
1:04.597,23255,t,0,0,0
1:04.692,23289,),0,0,2
1:04.792,23325,(,0,0,0
1:04.839,23342,p,0,0,0
1:04.897,23363,),0,0,0
1:04.944,23380,(,0,0,1
1:04.978,23392,N,0,0,0
1:05.011,23404,),0,0,1
1:05.225,23481,(,0,0,2
1:05.278,23500,t,0,0,0
1:05.383,23538,),0,0,2
1:05.461,23566,(,0,0,0
1:05.506,23582,p,0,0,0
1:05.561,23602,),0,0,0
1:05.606,23618,(,0,0,1
1:05.639,23630,N,0,0,0
1:05.664,23639,),0,0,1
1:05.878,23716,(,0,0,2
1:05.933,23736,t,0,0,0
1:06.014,23765,),0,0,2
1:06.131,23807,(,0,0,0
1:06.172,23822,p,0,0,0
1:06.225,23841,),0,0,0
1:06.272,23858,(,0,0,1
1:06.306,23870,N,0,0,0
1:06.331,23879,),0,0,1
1:06.531,23951,(,0,0,2
1:06.586,23971,t,0,0,0
1:06.650,23994,),0,0,2
1:06.786,24043,(,0,0,0
1:06.828,24058,p,0,0,0
1:06.886,24079,),0,0,0
1:06.936,24097,(,0,0,1
1:06.969,24109,N,0,0,0
1:06.994,24118,),0,0,1
1:07.206,24194,(,0,0,2
1:07.256,24212,t,0,0,0
1:07.317,24234,),0,0,2
1:07.439,24278,(,0,0,0
1:07.483,24294,p,0,0,0
1:07.544,24316,),0,0,0
1:07.564,24323,(,0,0,1
1:07.625,24345,N,0,0,0
1:07.650,24354,),0,0,1
1:07.883,24438,(,0,0,2
1:07.928,24454,t,0,0,0
1:08.003,24481,),0,0,2
1:08.114,24521,(,0,0,0
1:08.158,24537,p,0,0,0
1:08.217,24558,),0,0,0
1:08.236,24565,(,0,0,1
1:08.300,24588,N,0,0,0
1:08.325,24597,),0,0,1
1:08.556,24680,(,0,0,2
1:08.606,24698,t,0,0,0
1:08.694,24730,),0,0,2
1:08.797,24767,(,0,0,0
1:08.842,24783,p,0,0,0
1:08.900,24804,),0,0,0
1:08.950,24822,(,0,0,1
1:08.983,24834,N,0,0,0
1:09.006,24842,),0,0,1
1:09.222,24920,(,0,0,2
1:09.267,24936,t,0,0,0
1:09.367,24972,),0,0,2
1:09.447,25001,(,0,0,0
1:09.494,25018,p,0,0,0
1:09.556,25040,),0,0,0
1:09.569,25045,(,0,0,1
1:09.636,25069,N,0,0,0
1:09.661,25078,),0,0,1
1:09.878,25156,(,0,0,2
1:09.931,25175,t,0,0,0
1:09.994,25198,),0,0,2
1:10.125,25245,(,0,0,0
1:10.156,25256,p,0,0,0
1:10.211,25276,),0,0,0
1:10.236,25285,(,0,0,1
1:10.292,25305,N,0,0,0
1:10.317,25314,),0,0,1
1:10.533,25392,(,0,0,2
1:10.581,25409,t,0,0,0
1:10.711,25456,),0,0,2
1:10.767,25476,(,0,0,0
1:10.814,25493,p,0,0,0
1:10.872,25514,),0,0,0
1:10.903,25525,(,0,0,1
1:10.958,25545,N,0,0,0
1:10.983,25554,),0,0,1
1:11.206,25634,(,0,0,2
1:11.258,25653,t,0,0,0
1:11.364,25691,),0,0,2
1:11.447,25721,(,0,0,0
1:11.497,25739,p,0,0,0
1:11.556,25760,),0,0,0
1:11.606,25778,(,0,0,1
1:11.639,25790,N,0,0,0
1:11.675,25803,),0,0,1
1:11.875,25875,(,0,0,2
1:11.928,25894,t,0,0,0
1:12.028,25930,),0,0,2
1:12.106,25958,(,0,0,0
1:12.153,25975,p,0,0,0
1:12.214,25997,),0,0,0
1:12.264,26015,(,0,0,1
1:12.297,26027,N,0,0,0
1:12.322,26036,),0,0,1
1:12.547,26117,(,0,0,2
1:12.597,26135,t,0,0,0
1:12.700,26172,),0,0,2
1:12.783,26202,(,0,0,0
1:12.825,26217,p,0,0,0
1:12.881,26237,),0,0,0
1:12.928,26254,(,0,0,1
1:12.961,26266,N,0,0,0
1:12.983,26274,),0,0,1
1:13.194,26350,(,0,0,2
1:13.250,26370,t,0,0,0
1:13.336,26401,),0,0,2
1:13.436,26437,(,0,0,0
1:13.481,26453,p,0,0,0
1:13.539,26474,),0,0,0
1:13.586,26491,(,0,0,1
1:13.619,26503,N,0,0,0
1:13.644,26512,),0,0,1
1:13.861,26590,(,0,0,2
1:13.917,26610,t,0,0,0
1:14.003,26641,),0,0,2
1:14.097,26675,(,0,0,0
1:14.153,26695,p,0,0,0
1:14.208,26715,),0,0,0
1:14.256,26732,(,0,0,1
1:14.289,26744,N,0,0,0
1:14.314,26753,),0,0,1
1:14.519,26827,(,0,0,2
1:14.572,26846,t,0,0,0
1:14.700,26892,),0,0,2
1:14.756,26912,(,0,0,0
1:14.808,26931,p,0,0,0
1:14.867,26952,),0,0,0
1:14.917,26970,(,0,0,1
1:14.953,26983,N,0,0,0
1:14.978,26992,),0,0,1
1:15.200,27072,(,0,0,2
1:15.253,27091,t,0,0,0
1:15.306,27110,),0,0,2
1:15.436,27157,(,0,0,0
1:15.483,27174,p,0,0,0
1:15.536,27193,),0,0,0
1:15.594,27214,(,0,0,1
1:15.625,27225,N,0,0,0
1:15.650,27234,),0,0,1
1:15.872,27314,(,0,0,2
1:15.925,27333,t,0,0,0
1:15.983,27354,),0,0,2
1:16.111,27400,(,0,0,0
1:16.156,27416,p,0,0,0
1:16.214,27437,),0,0,0
1:16.261,27454,(,0,0,1
1:16.294,27466,N,0,0,0
1:16.325,27477,),0,0,1
1:16.533,27552,(,0,0,2
1:16.586,27571,t,0,0,0
1:16.675,27603,),0,0,2
1:16.769,27637,(,0,0,0
1:16.817,27654,p,0,0,0
1:16.875,27675,),0,0,0
1:16.925,27693,(,0,0,1
1:16.956,27704,N,0,0,0
1:16.992,27717,),0,0,1
1:17.197,27791,(,0,0,2
1:17.244,27808,t,0,0,0
1:17.339,27842,),0,0,2
1:17.439,27878,(,0,0,0
1:17.481,27893,p,0,0,0
1:17.539,27914,),0,0,0
1:17.589,27932,(,0,0,1
1:17.622,27944,N,0,0,0
1:17.656,27956,),0,0,1
1:17.869,28033,(,0,0,2
1:17.922,28052,t,0,0,0
1:18.036,28093,),0,0,2
1:18.108,28119,(,0,0,0
1:18.156,28136,p,0,0,0
1:18.219,28159,),0,0,0
1:18.269,28177,(,0,0,1
1:18.303,28189,N,0,0,0
1:18.325,28197,),0,0,1
1:18.547,28277,(,0,0,2
1:18.600,28296,t,0,0,0
1:18.700,28332,),0,0,2
1:18.808,28371,(,0,0,0
1:18.853,28387,p,0,0,0
1:18.914,28409,),0,0,0
1:18.964,28427,(,0,0,1
1:18.994,28438,N,0,0,0
1:19.019,28447,),0,0,1
1:19.228,28522,(,0,0,2
1:19.283,28542,t,0,0,0
1:19.400,28584,),0,0,2
1:19.472,28610,(,0,0,0
1:19.522,28628,p,0,0,0
1:19.581,28649,),0,0,0
1:19.628,28666,(,0,0,1
1:19.661,28678,N,0,0,0
1:19.686,28687,),0,0,1
1:19.906,28766,(,0,0,2
1:19.956,28784,t,0,0,0
1:20.036,28813,),0,0,2
1:20.133,28848,(,0,0,0
1:20.175,28863,p,0,0,0
1:20.231,28883,),0,0,0
1:20.278,28900,(,0,0,1
1:20.311,28912,N,0,0,0
1:20.344,28924,),0,0,1
1:20.561,29002,(,0,0,2
1:20.611,29020,t,0,0,0
1:20.706,29054,),0,0,2
1:20.800,29088,(,0,0,0
1:20.836,29101,p,0,0,0
1:20.894,29122,),0,0,0
1:20.911,29128,(,0,0,1
1:20.969,29149,N,0,0,0
1:20.994,29158,),0,0,1
1:21.217,29238,(,0,0,2
1:21.267,29256,t,0,0,0
1:21.342,29283,),0,0,2
1:21.456,29324,(,0,0,0
1:21.503,29341,p,0,0,0
1:21.564,29363,),0,0,0
1:21.578,29368,(,0,0,1
1:21.642,29391,N,0,0,0
1:21.664,29399,),0,0,1
1:21.878,29476,(,0,0,2
1:21.928,29494,t,0,0,0
1:22.033,29532,),0,0,2
1:22.133,29568,(,0,0,0
1:22.169,29581,p,0,0,0
1:22.231,29603,),0,0,0
1:22.281,29621,(,0,0,1
1:22.314,29633,N,0,0,0
1:22.339,29642,),0,0,1
1:22.558,29721,(,0,0,2
1:22.603,29737,t,0,0,0
1:22.706,29774,),0,0,2
1:22.797,29807,(,0,0,0
1:22.842,29823,p,0,0,0
1:22.900,29844,),0,0,0
1:22.950,29862,(,0,0,1
1:22.983,29874,N,0,0,0
1:23.019,29887,),0,0,1
1:23.236,29965,(,0,0,2
1:23.289,29984,t,0,0,0
1:23.425,30033,),0,0,2
1:23.475,30051,(,0,0,0
1:23.517,30066,p,0,0,0
1:23.572,30086,),0,0,0
1:23.617,30102,(,0,0,1
1:23.650,30114,N,0,0,0
1:23.686,30127,),0,0,1
1:23.892,30201,(,0,0,2
1:23.947,30221,t,0,0,0
1:24.008,30243,),0,0,2
1:24.128,30286,(,0,0,0
1:24.169,30301,p,0,0,0
1:24.231,30323,),0,0,0
1:24.281,30341,(,0,0,1
1:24.314,30353,N,0,0,0
1:24.336,30361,),0,0,1
1:24.550,30438,(,0,0,2
1:24.600,30456,t,0,0,0
1:24.683,30486,),0,0,2
1:24.803,30529,(,0,0,0
1:24.844,30544,p,0,0,0
1:24.900,30564,),0,0,0
1:24.950,30582,(,0,0,1
1:24.983,30594,N,0,0,0
1:25.006,30602,),0,0,1
1:25.231,30683,(,0,0,2
1:25.283,30702,t,0,0,0
1:25.364,30731,),0,0,2
1:25.475,30771,(,0,0,0
1:25.517,30786,p,0,0,0
1:25.578,30808,),0,0,0
1:25.631,30827,(,0,0,1
1:25.664,30839,N,0,0,0
1:25.686,30847,),0,0,1
1:25.914,30929,(,0,0,2
1:25.972,30950,t,0,0,0
1:26.075,30987,),0,0,2
1:26.169,31021,(,0,0,0
1:26.211,31036,p,0,0,0
1:26.272,31058,),0,0,0
1:26.317,31074,(,0,0,1
1:26.350,31086,N,0,0,0
1:26.375,31095,),0,0,1
1:26.586,31171,(,0,0,2
1:26.642,31191,t,0,0,0
1:26.717,31218,),0,0,2
1:26.842,31263,(,0,0,0
1:26.883,31278,p,0,0,0
1:26.944,31300,),0,0,0
1:26.997,31319,(,0,0,1
1:27.028,31330,N,0,0,0
1:27.053,31339,),0,0,1
1:27.272,31418,(,0,0,2
1:27.317,31434,t,0,0,0
1:27.386,31459,),0,0,2
1:27.500,31500,(,0,0,0
1:27.544,31516,p,0,0,0
1:27.606,31538,),0,0,0
1:27.650,31554,(,0,0,1
1:27.683,31566,N,0,0,0
1:27.719,31579,),0,0,1
1:27.931,31655,(,0,0,2
1:27.981,31673,t,0,0,0
1:28.036,31693,),0,0,2
1:28.158,31737,(,0,0,0
1:28.197,31751,p,0,0,0
1:28.261,31774,),0,0,0
1:28.308,31791,(,0,0,1
1:28.342,31803,N,0,0,0
1:28.367,31812,),0,0,1
1:28.600,31896,(,0,0,2
1:28.644,31912,t,0,0,0
1:28.719,31939,),0,0,2
1:28.828,31978,(,0,0,0
1:28.869,31993,p,0,0,0
1:28.928,32014,),0,0,0
1:28.950,32022,(,0,0,1
1:29.003,32041,N,0,0,0
1:29.036,32053,),0,0,1
1:29.244,32128,(,0,0,2
1:29.294,32146,t,0,0,0
1:29.386,32179,),0,0,2
1:29.489,32216,(,0,0,0
1:29.536,32233,p,0,0,0
1:29.600,32256,),0,0,0
1:29.647,32273,(,0,0,1
1:29.681,32285,N,0,0,0
1:29.703,32293,),0,0,1
1:29.925,32373,(,0,0,2
1:29.978,32392,t,0,0,0
1:30.047,32417,),0,0,2
1:30.175,32463,(,0,0,0
1:30.217,32478,p,0,0,0
1:30.272,32498,),0,0,0
1:30.322,32516,(,0,0,1
1:30.358,32529,N,0,0,0
1:30.381,32537,),0,0,1
1:30.611,32620,(,0,0,2
1:30.656,32636,t,0,0,0
1:30.747,32669,),0,0,2
1:30.842,32703,(,0,0,0
1:30.883,32718,p,0,0,0
1:30.942,32739,),0,0,0
1:30.989,32756,(,0,0,1
1:31.022,32768,N,0,0,0
1:31.058,32781,),0,0,1
1:31.267,32856,(,0,0,2
1:31.319,32875,t,0,0,0
1:31.381,32897,),0,0,2
1:31.503,32941,(,0,0,0
1:31.553,32959,p,0,0,0
1:31.611,32980,),0,0,0
1:31.656,32996,(,0,0,1
1:31.689,33008,N,0,0,0
1:31.722,33020,),0,0,1
1:31.922,33092,(,0,0,2
1:31.975,33111,t,0,0,0
1:32.044,33136,),0,0,2
1:32.150,33174,(,0,0,0
1:32.197,33191,p,0,0,0
1:32.253,33211,),0,0,0
1:32.303,33229,(,0,0,1
1:32.336,33241,N,0,0,0
1:32.369,33253,),0,0,1
1:32.581,33329,(,0,0,2
1:32.633,33348,t,0,0,0
1:32.714,33377,),0,0,2
1:32.819,33415,(,0,0,0
1:32.864,33431,p,0,0,0
1:32.925,33453,),0,0,0
1:32.972,33470,(,0,0,1
1:33.006,33482,N,0,0,0
1:33.028,33490,),0,0,1
1:33.256,33572,(,0,0,2
1:33.308,33591,t,0,0,0
1:33.431,33635,),0,0,2
1:33.486,33655,(,0,0,0
1:33.536,33673,p,0,0,0
1:33.594,33694,),0,0,0
1:33.644,33712,(,0,0,1
1:33.678,33724,N,0,0,0
1:33.700,33732,),0,0,1
1:33.919,33811,(,0,0,2
1:33.969,33829,t,0,0,0
1:34.047,33857,),0,0,2
1:34.158,33897,(,0,0,0
1:34.203,33913,p,0,0,0
1:34.269,33937,),0,0,0
1:34.286,33943,(,0,0,1
1:34.342,33963,N,0,0,0
1:34.367,33972,),0,0,1
1:34.578,34048,(,0,0,2
1:34.631,34067,t,0,0,0
1:34.714,34097,),0,0,2
1:34.811,34132,(,0,0,0
1:34.850,34146,p,0,0,0
1:34.908,34167,),0,0,0
1:34.958,34185,(,0,0,1
1:34.992,34197,N,0,0,0
1:35.017,34206,),0,0,1
1:35.225,34281,(,0,0,2
1:35.283,34302,t,0,0,0
1:35.353,34327,),0,0,2
1:35.461,34366,(,0,0,0
1:35.503,34381,p,0,0,0
1:35.569,34405,),0,0,0
1:35.608,34419,(,0,0,1
1:35.644,34432,N,0,0,0
1:35.669,34441,),0,0,1
1:35.886,34519,(,0,0,2
1:35.942,34539,t,0,0,0
1:36.025,34569,),0,0,2
1:36.122,34604,(,0,0,0
1:36.167,34620,p,0,0,0
1:36.222,34640,),0,0,0
1:36.269,34657,(,0,0,1
1:36.300,34668,N,0,0,0
1:36.333,34680,),0,0,1
1:36.550,34758,(,0,0,2
1:36.600,34776,t,0,0,0
1:36.681,34805,),0,0,2
1:36.786,34843,(,0,0,0
1:36.831,34859,p,0,0,0
1:36.886,34879,),0,0,0
1:36.942,34899,(,0,0,1
1:36.972,34910,N,0,0,0
1:36.997,34919,),0,0,1
1:37.219,34999,(,0,0,2
1:37.269,35017,t,0,0,0
1:37.350,35046,),0,0,2
1:37.453,35083,(,0,0,0
1:37.503,35101,p,0,0,0
1:37.561,35122,),0,0,0
1:37.617,35142,(,0,0,1
1:37.650,35154,N,0,0,0
1:37.672,35162,),0,0,1
1:37.897,35243,(,0,0,2
1:37.950,35262,t,0,0,0
1:38.081,35309,),0,0,2
1:38.142,35331,(,0,0,0
1:38.181,35345,p,0,0,0
1:38.239,35366,),0,0,0
1:38.256,35372,(,0,0,1
1:38.317,35394,N,0,0,0
1:38.339,35402,),0,0,1
1:38.553,35479,(,0,0,2
1:38.608,35499,t,0,0,0
1:38.719,35539,),0,0,2
1:38.806,35570,(,0,0,0
1:38.842,35583,p,0,0,0
1:38.903,35605,),0,0,0
1:38.950,35622,(,0,0,1
1:38.981,35633,N,0,0,0
1:39.006,35642,),0,0,1
1:39.186,35707,(,0,0,2
1:39.269,35737,t,0,0,0
1:39.381,35777,),0,0,2
1:39.450,35802,(,0,0,0
1:39.494,35818,p,0,0,0
1:39.561,35842,),0,0,0
1:39.603,35857,(,0,0,1
1:39.636,35869,N,0,0,0
1:39.661,35878,),0,0,1
1:39.883,35958,(,0,0,2
1:39.933,35976,t,0,0,0
1:40.031,36011,),0,0,2
1:40.117,36042,(,0,0,0
1:40.164,36059,p,0,0,0
1:40.225,36081,),0,0,0
1:40.275,36099,(,0,0,1
1:40.308,36111,N,0,0,0
1:40.333,36120,),0,0,1
1:40.569,36205,(,0,0,2
1:40.619,36223,t,0,0,0
1:40.692,36249,),0,0,2
1:40.794,36286,(,0,0,0
1:40.842,36303,p,0,0,0
1:40.900,36324,),0,0,0
1:40.947,36341,(,0,0,1
1:40.981,36353,N,0,0,0
1:41.003,36361,),0,0,1
1:41.222,36440,(,0,0,2
1:41.275,36459,t,0,0,0
1:41.372,36494,),0,0,2
1:41.461,36526,(,0,0,0
1:41.508,36543,p,0,0,0
1:41.564,36563,),0,0,0
1:41.617,36582,(,0,0,1
1:41.647,36593,N,0,0,0
1:41.681,36605,),0,0,1
1:41.889,36680,(,0,0,2
1:41.936,36697,t,0,0,0
1:42.033,36732,),0,0,2
1:42.114,36761,(,0,0,0
1:42.156,36776,p,0,0,0
1:42.219,36799,),0,0,0
1:42.267,36816,(,0,0,1
1:42.300,36828,N,0,0,0
1:42.322,36836,),0,0,1
1:42.525,36909,(,0,0,2
1:42.583,36930,t,0,0,0
1:42.672,36962,),0,0,2
1:42.764,36995,(,0,0,0
1:42.808,37011,p,0,0,0
1:42.861,37030,),0,0,0
1:42.917,37050,(,0,0,1
1:42.950,37062,N,0,0,0
1:42.975,37071,),0,0,1
1:43.197,37151,(,0,0,2
1:43.256,37172,t,0,0,0
1:43.339,37202,),0,0,2
1:43.433,37236,(,0,0,0
1:43.475,37251,p,0,0,0
1:43.528,37270,),0,0,0
1:43.578,37288,(,0,0,1
1:43.608,37299,N,0,0,0
1:43.633,37308,),0,0,1
1:43.850,37386,(,0,0,2
1:43.908,37407,t,0,0,0
1:43.992,37437,),0,0,2
1:44.086,37471,(,0,0,0
1:44.131,37487,p,0,0,0
1:44.192,37509,),0,0,0
1:44.242,37527,(,0,0,1
1:44.275,37539,N,0,0,0
1:44.297,37547,),0,0,1
1:44.517,37626,(,0,0,2
1:44.572,37646,t,0,0,0
1:44.653,37675,),0,0,2
1:44.758,37713,(,0,0,0
1:44.806,37730,p,0,0,0
1:44.867,37752,),0,0,0
1:44.917,37770,(,0,0,1
1:44.947,37781,N,0,0,0
1:44.972,37790,),0,0,1
1:45.189,37868,(,0,0,2
1:45.242,37887,t,0,0,0
1:45.325,37917,),0,0,2
1:45.419,37951,(,0,0,0
1:45.461,37966,p,0,0,0
1:45.525,37989,),0,0,0
1:45.564,38003,(,0,0,1
1:45.597,38015,N,0,0,0
1:45.622,38024,),0,0,1
1:45.842,38103,(,0,0,2
1:45.897,38123,t,0,0,0
1:45.981,38153,),0,0,2
1:46.086,38191,(,0,0,0
1:46.125,38205,p,0,0,0
1:46.183,38226,),0,0,0
1:46.228,38242,(,0,0,1
1:46.261,38254,N,0,0,0
1:46.286,38263,),0,0,1
1:46.492,38337,(,0,0,2
1:46.544,38356,t,0,0,0
1:46.628,38386,),0,0,2
1:46.725,38421,(,0,0,0
1:46.764,38435,p,0,0,0
1:46.825,38457,),0,0,0
1:46.875,38475,(,0,0,1
1:46.906,38486,N,0,0,0
1:46.942,38499,),0,0,1
1:47.158,38577,(,0,0,2
1:47.206,38594,t,0,0,0
1:47.281,38621,),0,0,2
1:47.392,38661,(,0,0,0
1:47.433,38676,p,0,0,0
1:47.492,38697,),0,0,0
1:47.547,38717,(,0,0,1
1:47.578,38728,N,0,0,0
1:47.611,38740,),0,0,1
1:47.831,38819,(,0,0,2
1:47.881,38837,t,0,0,0
1:47.964,38867,),0,0,2
1:48.056,38900,(,0,0,0
1:48.097,38915,p,0,0,0
1:48.156,38936,),0,0,0
1:48.206,38954,(,0,0,1
1:48.236,38965,N,0,0,0
1:48.272,38978,),0,0,1
1:48.481,39053,(,0,0,2
1:48.533,39072,t,0,0,0
1:48.625,39105,),0,0,2
1:48.714,39137,(,0,0,0
1:48.764,39155,p,0,0,0
1:48.822,39176,),0,0,0
1:48.867,39192,(,0,0,1
1:48.900,39204,N,0,0,0
1:48.936,39217,),0,0,1
1:49.139,39290,(,0,0,2
1:49.186,39307,t,0,0,0
1:49.256,39332,),0,0,2
1:49.367,39372,(,0,0,0
1:49.408,39387,p,0,0,0
1:49.467,39408,),0,0,0
1:49.517,39426,(,0,0,1
1:49.547,39437,N,0,0,0
1:49.572,39446,),0,0,1
1:49.789,39524,(,0,0,2
1:49.833,39540,t,0,0,0
1:49.933,39576,),0,0,2
1:50.017,39606,(,0,0,0
1:50.056,39620,p,0,0,0
1:50.119,39643,),0,0,0
1:50.164,39659,(,0,0,1
1:50.197,39671,N,0,0,0
1:50.222,39680,),0,0,1
1:50.433,39756,(,0,0,2
1:50.497,39779,t,0,0,0
1:50.561,39802,),0,0,2
1:50.669,39841,(,0,0,0
1:50.714,39857,p,0,0,0
1:50.769,39877,),0,0,0
1:50.819,39895,(,0,0,1
1:50.853,39907,N,0,0,0
1:50.886,39919,),0,0,1
1:51.097,39995,(,0,0,2
1:51.156,40016,t,0,0,0
1:51.219,40039,),0,0,2
1:51.331,40079,(,0,0,0
1:51.375,40095,p,0,0,0
1:51.436,40117,),0,0,0
1:51.489,40136,(,0,0,1
1:51.522,40148,N,0,0,0
1:51.544,40156,),0,0,1
1:51.764,40235,(,0,0,2
1:51.817,40254,t,0,0,0
1:51.892,40281,),0,0,2
1:51.997,40319,(,0,0,0
1:52.042,40335,p,0,0,0
1:52.100,40356,),0,0,0
1:52.156,40376,(,0,0,1
1:52.186,40387,N,0,0,0
1:52.211,40396,),0,0,1
1:52.447,40481,(,0,0,2
1:52.489,40496,t,0,0,0
1:52.567,40524,),0,0,2
1:52.664,40559,(,0,0,0
1:52.706,40574,p,0,0,0
1:52.764,40595,),0,0,0
1:52.811,40612,(,0,0,1
1:52.844,40624,N,0,0,0
1:52.881,40637,),0,0,1
1:53.078,40708,(,0,0,2
1:53.144,40732,t,0,0,0
1:53.261,40774,),0,0,2
1:53.322,40796,(,0,0,0
1:53.358,40809,p,0,0,0
1:53.419,40831,),0,0,0
1:53.436,40837,(,0,0,1
1:53.500,40860,N,0,0,0
1:53.525,40869,),0,0,1
1:53.731,40943,(,0,0,2
1:53.783,40962,t,0,0,0
1:53.869,40993,),0,0,2
1:53.967,41028,(,0,0,0
1:54.011,41044,p,0,0,0
1:54.067,41064,),0,0,0
1:54.117,41082,(,0,0,1
1:54.153,41095,N,0,0,0
1:54.186,41107,),0,0,1
1:54.389,41180,(,0,0,2
1:54.447,41201,t,0,0,0
1:54.525,41229,),0,0,2
1:54.625,41265,(,0,0,0
1:54.669,41281,p,0,0,0
1:54.731,41303,),0,0,0
1:54.781,41321,(,0,0,1
1:54.814,41333,N,0,0,0
1:54.850,41346,),0,0,1
1:55.067,41424,(,0,0,2
1:55.125,41445,t,0,0,0
1:55.197,41471,),0,0,2
1:55.300,41508,(,0,0,0
1:55.342,41523,p,0,0,0
1:55.397,41543,),0,0,0
1:55.444,41560,(,0,0,1
1:55.475,41571,N,0,0,0
1:55.508,41583,),0,0,1
1:55.719,41659,(,0,0,2
1:55.769,41677,t,0,0,0
1:55.853,41707,),0,0,2
1:55.956,41744,(,0,0,0
1:55.997,41759,p,0,0,0
1:56.058,41781,),0,0,0
1:56.108,41799,(,0,0,1
1:56.142,41811,N,0,0,0
1:56.175,41823,),0,0,1
1:56.372,41894,(,0,0,2
1:56.428,41914,t,0,0,0
1:56.503,41941,),0,0,2
1:56.597,41975,(,0,0,0
1:56.642,41991,p,0,0,0
1:56.700,42012,),0,0,0
1:56.750,42030,(,0,0,1
1:56.781,42041,N,0,0,0
1:56.817,42054,),0,0,1
1:57.019,42127,(,0,0,2
1:57.069,42145,t,0,0,0
1:57.164,42179,),0,0,2
1:57.242,42207,(,0,0,0
1:57.286,42223,p,0,0,0
1:57.342,42243,),0,0,0
1:57.389,42260,(,0,0,1
1:57.419,42271,N,0,0,0
1:57.444,42280,),0,0,1
1:57.664,42359,(,0,0,2
1:57.719,42379,t,0,0,0
1:57.836,42421,),0,0,2
1:57.900,42444,(,0,0,0
1:57.939,42458,p,0,0,0
1:57.994,42478,),0,0,0
1:58.006,42482,(,0,0,1
1:58.072,42506,N,0,0,0
1:58.106,42518,),0,0,1
1:58.308,42591,(,0,0,2
1:58.367,42612,t,0,0,0
1:58.464,42647,),0,0,2
1:58.547,42677,(,0,0,0
1:58.589,42692,p,0,0,0
1:58.650,42714,),0,0,0
1:58.697,42731,(,0,0,1
1:58.731,42743,N,0,0,0
1:58.756,42752,),0,0,1
1:58.975,42831,(,0,0,2
1:59.028,42850,t,0,0,0
1:59.128,42886,),0,0,2
1:59.203,42913,(,0,0,0
1:59.250,42930,p,0,0,0
1:59.311,42952,),0,0,0
1:59.339,42962,(,0,0,1
1:59.394,42982,N,0,0,0
1:59.417,42990,),0,0,1
1:59.642,43071,(,0,0,2
1:59.692,43089,t,0,0,0
1:59.767,43116,),0,0,2
1:59.867,43152,(,0,0,0
1:59.908,43167,p,0,0,0
1:59.967,43188,),0,0,0
2:00.011,43204,(,0,0,1
2:00.044,43216,N,0,0,0
2:00.078,43228,),0,0,1
2:00.292,43305,(,0,0,2
2:00.344,43324,t,0,0,0
2:00.411,43348,),0,0,2
2:00.522,43388,(,0,0,0
2:00.572,43406,p,0,0,0
2:00.625,43425,),0,0,0
2:00.639,43430,(,0,0,1
2:00.703,43453,N,0,0,0
2:00.728,43462,),0,0,1
2:00.933,43536,(,0,0,2
2:00.989,43556,t,0,0,0
2:01.067,43584,),0,0,2
2:01.169,43621,(,0,0,0
2:01.211,43636,p,0,0,0
2:01.272,43658,),0,0,0
2:01.317,43674,(,0,0,1
2:01.350,43686,N,0,0,0
2:01.375,43695,),0,0,1
2:01.589,43772,(,0,0,2
2:01.644,43792,t,0,0,0
2:01.772,43838,),0,0,2
2:01.828,43858,(,0,0,0
2:01.878,43876,p,0,0,0
2:01.939,43898,),0,0,0
2:01.989,43916,(,0,0,1
2:02.019,43927,N,0,0,0
2:02.056,43940,),0,0,1
2:02.275,44019,(,0,0,2
2:02.331,44039,t,0,0,0
2:02.481,44093,),0,0,2
2:02.506,44102,(,0,0,0
2:02.553,44119,p,0,0,0
2:02.608,44139,),0,0,0
2:02.658,44157,(,0,0,1
2:02.692,44169,N,0,0,0
2:02.717,44178,),0,0,1
2:02.939,44258,(,0,0,2
2:02.986,44275,t,0,0,0
2:03.097,44315,),0,0,2
2:03.172,44342,(,0,0,0
2:03.222,44360,p,0,0,0
2:03.283,44382,),0,0,0
2:03.333,44400,(,0,0,1
2:03.364,44411,N,0,0,0
2:03.389,44420,),0,0,1
2:03.600,44496,(,0,0,2
2:03.650,44514,t,0,0,0
2:03.742,44547,),0,0,2
2:03.833,44580,(,0,0,0
2:03.881,44597,p,0,0,0
2:03.939,44618,),0,0,0
2:03.986,44635,(,0,0,1
2:04.017,44646,N,0,0,0
2:04.053,44659,),0,0,1
2:04.256,44732,(,0,0,2
2:04.308,44751,t,0,0,0
2:04.386,44779,),0,0,2
2:04.500,44820,(,0,0,0
2:04.544,44836,p,0,0,0
2:04.606,44858,),0,0,0
2:04.653,44875,(,0,0,1
2:04.686,44887,N,0,0,0
2:04.719,44899,),0,0,1
2:04.933,44976,(,0,0,2
2:04.989,44996,t,0,0,0
2:05.108,45039,),0,0,2
2:05.169,45061,(,0,0,0
2:05.217,45078,p,0,0,0
2:05.267,45096,),0,0,0
2:05.317,45114,(,0,0,1
2:05.350,45126,N,0,0,0
2:05.386,45139,),0,0,1
2:05.594,45214,(,0,0,2
2:05.650,45234,t,0,0,0
2:05.739,45266,),0,0,2
2:05.850,45306,(,0,0,0
2:05.894,45322,p,0,0,0
2:05.953,45343,),0,0,0
2:05.972,45350,(,0,0,1
2:06.033,45372,N,0,0,0
2:06.067,45384,),0,0,1
2:06.283,45462,(,0,0,2
2:06.336,45481,t,0,0,0
2:06.400,45504,),0,0,2
2:06.533,45552,(,0,0,0
2:06.572,45566,p,0,0,0
2:06.628,45586,),0,0,0
2:06.681,45605,(,0,0,1
2:06.717,45618,N,0,0,0
2:06.750,45630,),0,0,1
2:06.956,45704,(,0,0,2
2:07.006,45722,t,0,0,0
2:07.106,45758,),0,0,2
2:07.197,45791,(,0,0,0
2:07.242,45807,p,0,0,0
2:07.303,45829,),0,0,0
2:07.347,45845,(,0,0,1
2:07.381,45857,N,0,0,0
2:07.417,45870,),0,0,1
2:07.628,45946,(,0,0,2
2:07.678,45964,t,0,0,0
2:07.772,45998,),0,0,2
2:07.875,46035,(,0,0,0
2:07.914,46049,p,0,0,0
2:07.969,46069,),0,0,0
2:08.017,46086,(,0,0,1
2:08.050,46098,N,0,0,0
2:08.083,46110,),0,0,1
2:08.289,46184,(,0,0,2
2:08.344,46204,t,0,0,0
2:08.433,46236,),0,0,2
2:08.536,46273,(,0,0,0
2:08.581,46289,p,0,0,0
2:08.639,46310,),0,0,0
2:08.689,46328,(,0,0,1
2:08.719,46339,N,0,0,0
2:08.756,46352,),0,0,1
2:08.961,46426,(,0,0,2
2:09.022,46448,t,0,0,0
2:09.083,46470,),0,0,2
2:09.211,46516,(,0,0,0
2:09.261,46534,p,0,0,0
2:09.319,46555,),0,0,0
2:09.342,46563,(,0,0,1
2:09.403,46585,N,0,0,0
2:09.428,46594,),0,0,1
2:09.653,46675,(,0,0,2
2:09.703,46693,t,0,0,0
2:09.778,46720,),0,0,2
2:09.886,46759,(,0,0,0
2:09.933,46776,p,0,0,0
2:09.994,46798,),0,0,0
2:10.042,46815,(,0,0,1
2:10.072,46826,N,0,0,0
2:10.106,46838,),0,0,1
2:10.322,46916,(,0,0,2
2:10.375,46935,t,0,0,0
2:10.447,46961,),0,0,2
2:10.567,47004,(,0,0,0
2:10.600,47016,p,0,0,0
2:10.661,47038,),0,0,0
2:10.681,47045,(,0,0,1
2:10.739,47066,N,0,0,0
2:10.761,47074,),0,0,1
2:10.972,47150,(,0,0,2
2:11.025,47169,t,0,0,0
2:11.114,47201,),0,0,2
2:11.222,47240,(,0,0,0
2:11.264,47255,p,0,0,0
2:11.319,47275,),0,0,0
2:11.344,47284,(,0,0,1
2:11.403,47305,N,0,0,0
2:11.436,47317,),0,0,1
2:11.642,47391,(,0,0,2
2:11.689,47408,t,0,0,0
2:11.778,47440,),0,0,2
2:11.878,47476,(,0,0,0
2:11.922,47492,p,0,0,0
2:11.983,47514,),0,0,0
2:12.031,47531,(,0,0,1
2:12.064,47543,N,0,0,0
2:12.097,47555,),0,0,1
2:12.300,47628,(,0,0,2
2:12.356,47648,t,0,0,0
2:12.447,47681,),0,0,2
2:12.544,47716,(,0,0,0
2:12.589,47732,p,0,0,0
2:12.647,47753,),0,0,0
2:12.697,47771,(,0,0,1
2:12.728,47782,N,0,0,0
2:12.761,47794,),0,0,1
2:12.972,47870,(,0,0,2
2:13.025,47889,t,0,0,0
2:13.108,47919,),0,0,2
2:13.211,47956,(,0,0,0
2:13.258,47973,p,0,0,0
2:13.319,47995,),0,0,0
2:13.364,48011,(,0,0,1
2:13.394,48022,N,0,0,0
2:13.431,48035,),0,0,1
2:13.644,48112,(,0,0,2
2:13.697,48131,t,0,0,0
2:13.806,48170,),0,0,2
2:13.897,48203,(,0,0,0
2:13.936,48217,p,0,0,0
2:13.994,48238,),0,0,0
2:14.014,48245,(,0,0,1
2:14.075,48267,N,0,0,0
2:14.108,48279,),0,0,1
2:14.314,48353,(,0,0,2
2:14.364,48371,t,0,0,0
2:14.444,48400,),0,0,2
2:14.547,48437,(,0,0,0
2:14.592,48453,p,0,0,0
2:14.653,48475,),0,0,0
2:14.700,48492,(,0,0,1
2:14.733,48504,N,0,0,0
2:14.758,48513,),0,0,1
2:14.975,48591,(,0,0,2
2:15.028,48610,t,0,0,0
2:15.108,48639,),0,0,2
2:15.217,48678,(,0,0,0
2:15.264,48695,p,0,0,0
2:15.322,48716,),0,0,0
2:15.369,48733,(,0,0,1
2:15.403,48745,N,0,0,0
2:15.425,48753,),0,0,1
2:15.644,48832,(,0,0,2
2:15.697,48851,t,0,0,0
2:15.792,48885,),0,0,2
2:15.894,48922,(,0,0,0
2:15.939,48938,p,0,0,0
2:15.997,48959,),0,0,0
2:16.017,48966,(,0,0,1
2:16.081,48989,N,0,0,0
2:16.106,48998,),0,0,1
2:16.333,49080,(,0,0,2
2:16.386,49099,t,0,0,0
2:16.458,49125,),0,0,2
2:16.583,49170,(,0,0,0
2:16.628,49186,p,0,0,0
2:16.689,49208,),0,0,0
2:16.742,49227,(,0,0,1
2:16.772,49238,N,0,0,0
2:16.797,49247,),0,0,1
2:17.011,49324,(,0,0,2
2:17.058,49341,t,0,0,0
2:17.142,49371,),0,0,2
2:17.253,49411,(,0,0,0
2:17.292,49425,p,0,0,0
2:17.350,49446,),0,0,0
2:17.397,49463,(,0,0,1
2:17.431,49475,N,0,0,0
2:17.456,49484,),0,0,1
2:17.678,49564,(,0,0,2
2:17.733,49584,t,0,0,0
2:17.811,49612,),0,0,2
2:17.917,49650,(,0,0,0
2:17.958,49665,p,0,0,0
2:18.014,49685,),0,0,0
2:18.061,49702,(,0,0,1
2:18.094,49714,N,0,0,0
2:18.128,49726,),0,0,1
2:18.342,49803,(,0,0,2
2:18.389,49820,t,0,0,0
2:18.469,49849,),0,0,2
2:18.578,49888,(,0,0,0
2:18.614,49901,p,0,0,0
2:18.672,49922,),0,0,0
2:18.686,49927,(,0,0,1
2:18.753,49951,N,0,0,0
2:18.786,49963,),0,0,1
2:18.994,50038,(,0,0,2
2:19.042,50055,t,0,0,0
2:19.114,50081,),0,0,2
2:19.250,50130,(,0,0,0
2:19.294,50146,p,0,0,0
2:19.353,50167,),0,0,0
2:19.403,50185,(,0,0,1
2:19.433,50196,N,0,0,0
2:19.467,50208,),0,0,1
2:19.672,50282,(,0,0,2
2:19.722,50300,t,0,0,0
2:19.814,50333,),0,0,2
2:19.908,50367,(,0,0,0
2:19.953,50383,p,0,0,0
2:20.014,50405,),0,0,0
2:20.061,50422,(,0,0,1
2:20.094,50434,N,0,0,0
2:20.119,50443,),0,0,1
2:20.344,50524,(,0,0,2
2:20.397,50543,t,0,0,0
2:20.481,50573,),0,0,2
2:20.583,50610,(,0,0,0
2:20.631,50627,p,0,0,0
2:20.692,50649,),0,0,0
2:20.742,50667,(,0,0,1
2:20.775,50679,N,0,0,0
2:20.797,50687,),0,0,1
2:21.011,50764,(,0,0,2
2:21.069,50785,t,0,0,0
2:21.131,50807,),0,0,2
2:21.267,50856,(,0,0,0
2:21.308,50871,p,0,0,0
2:21.361,50890,),0,0,0
2:21.406,50906,(,0,0,1
2:21.436,50917,N,0,0,0
2:21.461,50926,),0,0,1
2:21.678,51004,(,0,0,2
2:21.731,51023,t,0,0,0
2:21.819,51055,),0,0,2
2:21.919,51091,(,0,0,0
2:21.967,51108,p,0,0,0
2:22.022,51128,),0,0,0
2:22.075,51147,(,0,0,1
2:22.106,51158,N,0,0,0
2:22.142,51171,),0,0,1
2:22.344,51244,(,0,0,2
2:22.397,51263,t,0,0,0
2:22.456,51284,),0,0,2
2:22.575,51327,(,0,0,0
2:22.617,51342,p,0,0,0
2:22.678,51364,),0,0,0
2:22.722,51380,(,0,0,1
2:22.756,51392,N,0,0,0
2:22.781,51401,),0,0,1
2:22.997,51479,(,0,0,2
2:23.050,51498,t,0,0,0
2:23.142,51531,),0,0,2
2:23.239,51566,(,0,0,0
2:23.283,51582,p,0,0,0
2:23.347,51605,),0,0,0
2:23.394,51622,(,0,0,1
2:23.428,51634,N,0,0,0
2:23.453,51643,),0,0,1
2:23.678,51724,(,0,0,2
2:23.725,51741,t,0,0,0
2:23.814,51773,),0,0,2
2:23.925,51813,(,0,0,0
2:23.967,51828,p,0,0,0
2:24.025,51849,),0,0,0
2:24.075,51867,(,0,0,1
2:24.106,51878,N,0,0,0
2:24.139,51890,),0,0,1
2:24.347,51965,(,0,0,2
2:24.394,51982,t,0,0,0
2:24.481,52013,),0,0,2
2:24.589,52052,(,0,0,0
2:24.631,52067,p,0,0,0
2:24.689,52088,),0,0,0
2:24.739,52106,(,0,0,1
2:24.772,52118,N,0,0,0
2:24.797,52127,),0,0,1
2:25.014,52205,(,0,0,2
2:25.061,52222,t,0,0,0
2:25.139,52250,),0,0,2
2:25.239,52286,(,0,0,0
2:25.286,52303,p,0,0,0
2:25.342,52323,),0,0,0
2:25.358,52329,(,0,0,1
2:25.422,52352,N,0,0,0
2:25.447,52361,),0,0,1
2:25.656,52436,(,0,0,2
2:25.714,52457,t,0,0,0
2:25.778,52480,),0,0,2
2:25.903,52525,(,0,0,0
2:25.944,52540,p,0,0,0
2:26.000,52560,),0,0,0
2:26.050,52578,(,0,0,1
2:26.081,52589,N,0,0,0
2:26.103,52597,),0,0,1
2:26.331,52679,(,0,0,2
2:26.378,52696,t,0,0,0
2:26.456,52724,),0,0,2
2:26.572,52766,(,0,0,0
2:26.611,52780,p,0,0,0
2:26.667,52800,),0,0,0
2:26.689,52808,(,0,0,1
2:26.747,52829,N,0,0,0
2:26.772,52838,),0,0,1
2:26.983,52914,(,0,0,2
2:27.039,52934,t,0,0,0
2:27.119,52963,),0,0,2
2:27.233,53004,(,0,0,0
2:27.283,53022,p,0,0,0
2:27.342,53043,),0,0,0
2:27.394,53062,(,0,0,1
2:27.428,53074,N,0,0,0
2:27.464,53087,),0,0,1
2:27.672,53162,(,0,0,2
2:27.722,53180,t,0,0,0
2:27.825,53217,),0,0,2
2:27.925,53253,(,0,0,0
2:27.972,53270,p,0,0,0
2:28.031,53291,),0,0,0
2:28.083,53310,(,0,0,1
2:28.114,53321,N,0,0,0
2:28.139,53330,),0,0,1
2:28.367,53412,(,0,0,2
2:28.419,53431,t,0,0,0
2:28.492,53457,),0,0,2
2:28.617,53502,(,0,0,0
2:28.656,53516,p,0,0,0
2:28.719,53539,),0,0,0
2:28.758,53553,(,0,0,1
2:28.792,53565,N,0,0,0
2:28.817,53574,),0,0,1
2:29.025,53649,(,0,0,2
2:29.078,53668,t,0,0,0
2:29.189,53708,),0,0,2
2:29.272,53738,(,0,0,0
2:29.317,53754,p,0,0,0
2:29.375,53775,),0,0,0
2:29.428,53794,(,0,0,1
2:29.461,53806,N,0,0,0
2:29.483,53814,),0,0,1
2:29.683,53886,(,0,0,2
2:29.744,53908,t,0,0,0
2:29.819,53935,),0,0,2
2:29.931,53975,(,0,0,0
2:29.972,53990,p,0,0,0
2:30.033,54012,),0,0,0
2:30.083,54030,(,0,0,1
2:30.114,54041,N,0,0,0
2:30.147,54053,),0,0,1
2:30.356,54128,(,0,0,2
2:30.408,54147,t,0,0,0
2:30.500,54180,),0,0,2
2:30.592,54213,(,0,0,0
2:30.639,54230,p,0,0,0
2:30.697,54251,),0,0,0
2:30.747,54269,(,0,0,1
2:30.781,54281,N,0,0,0
2:30.803,54289,),0,0,1
2:31.025,54369,(,0,0,2
2:31.086,54391,t,0,0,0
2:31.183,54426,),0,0,2
2:31.286,54463,(,0,0,0
2:31.331,54479,p,0,0,0
2:31.392,54501,),0,0,0
2:31.436,54517,(,0,0,1
2:31.469,54529,N,0,0,0
2:31.506,54542,),0,0,1
2:31.703,54613,(,0,0,2
2:31.758,54633,t,0,0,0
2:31.828,54658,),0,0,2
2:31.950,54702,(,0,0,0
2:31.992,54717,p,0,0,0
2:32.050,54738,),0,0,0
2:32.103,54757,(,0,0,1
2:32.136,54769,N,0,0,0
2:32.172,54782,),0,0,1
2:32.367,54852,(,0,0,2
2:32.419,54871,t,0,0,0
2:32.486,54895,),0,0,2
2:32.606,54938,(,0,0,0
2:32.647,54953,p,0,0,0
2:32.711,54976,),0,0,0
2:32.731,54983,(,0,0,1
2:32.786,55003,N,0,0,0
2:32.811,55012,),0,0,1
2:33.017,55086,(,0,0,2
2:33.075,55107,t,0,0,0
2:33.144,55132,),0,0,2
2:33.258,55173,(,0,0,0
2:33.297,55187,p,0,0,0
2:33.353,55207,),0,0,0
2:33.400,55224,(,0,0,1
2:33.433,55236,N,0,0,0
2:33.458,55245,),0,0,1
2:33.667,55320,(,0,0,2
2:33.736,55345,t,0,0,0
2:33.792,55365,),0,0,2
2:33.928,55414,(,0,0,0
2:33.964,55427,p,0,0,0
2:34.011,55444,),0,0,0
2:34.064,55463,(,0,0,1
2:34.097,55475,N,0,0,0
2:34.131,55487,),0,0,1
2:34.331,55559,(,0,0,2
2:34.386,55579,t,0,0,0
2:34.458,55605,),0,0,2
2:34.583,55650,(,0,0,0
2:34.622,55664,p,0,0,0
2:34.681,55685,),0,0,0
2:34.697,55691,(,0,0,1
2:34.761,55714,N,0,0,0
2:34.786,55723,),0,0,1
2:34.997,55799,(,0,0,2
2:35.053,55819,t,0,0,0
2:35.131,55847,),0,0,2
2:35.258,55893,(,0,0,0
2:35.292,55905,p,0,0,0
2:35.350,55926,),0,0,0
2:35.364,55931,(,0,0,1
2:35.433,55956,N,0,0,0
2:35.456,55964,),0,0,1
2:35.675,56043,(,0,0,2
2:35.728,56062,t,0,0,0
2:35.828,56098,),0,0,2
2:35.922,56132,(,0,0,0
2:35.958,56145,p,0,0,0
2:36.014,56165,),0,0,0
2:36.031,56171,(,0,0,1
2:36.097,56195,N,0,0,0
2:36.122,56204,),0,0,1
2:36.344,56284,(,0,0,2
2:36.392,56301,t,0,0,0
2:36.533,56352,),0,0,2
2:36.586,56371,(,0,0,0
2:36.628,56386,p,0,0,0
2:36.689,56408,),0,0,0
2:36.700,56412,(,0,0,1
2:36.767,56436,N,0,0,0
2:36.792,56445,),0,0,1
2:36.997,56519,(,0,0,2
2:37.053,56539,t,0,0,0
2:37.167,56580,),0,0,2
2:37.239,56606,(,0,0,0
2:37.286,56623,p,0,0,0
2:37.342,56643,),0,0,0
2:37.392,56661,(,0,0,1
2:37.425,56673,N,0,0,0
2:37.450,56682,),0,0,1
2:37.664,56759,(,0,0,2
2:37.722,56780,t,0,0,0
2:37.858,56829,),0,0,2
2:37.914,56849,(,0,0,0
2:37.958,56865,p,0,0,0
2:38.019,56887,),0,0,0
2:38.069,56905,(,0,0,1
2:38.106,56918,N,0,0,0
2:38.131,56927,),0,0,1
2:38.353,57007,(,0,0,2
2:38.414,57029,t,0,0,0
2:38.486,57055,),0,0,2
2:38.603,57097,(,0,0,0
2:38.642,57111,p,0,0,0
2:38.697,57131,),0,0,0
2:38.750,57150,(,0,0,1
2:38.783,57162,N,0,0,0
2:38.808,57171,),0,0,1
2:39.028,57250,(,0,0,2
2:39.078,57268,t,0,0,0
2:39.142,57291,),0,0,2
2:39.275,57339,(,0,0,0
2:39.314,57353,p,0,0,0
2:39.369,57373,),0,0,0
2:39.425,57393,(,0,0,1
2:39.458,57405,N,0,0,0
2:39.481,57413,),0,0,1
2:39.689,57488,(,0,0,2
2:39.739,57506,t,0,0,0
2:39.822,57536,),0,0,2
2:39.939,57578,(,0,0,0
2:39.978,57592,p,0,0,0
2:40.033,57612,),0,0,0
2:40.089,57632,(,0,0,1
2:40.122,57644,N,0,0,0
2:40.147,57653,),0,0,1
2:40.361,57730,(,0,0,2
2:40.414,57749,t,0,0,0
2:40.494,57778,),0,0,2
2:40.606,57818,(,0,0,0
2:40.653,57835,p,0,0,0
2:40.711,57856,),0,0,0
2:40.761,57874,(,0,0,1
2:40.794,57886,N,0,0,0
2:40.819,57895,),0,0,1
2:41.031,57971,(,0,0,2
2:41.089,57992,t,0,0,0
2:41.183,58026,),0,0,2
2:41.272,58058,(,0,0,0
2:41.319,58075,p,0,0,0
2:41.372,58094,),0,0,0
2:41.425,58113,(,0,0,1
2:41.456,58124,N,0,0,0
2:41.481,58133,),0,0,1
2:41.697,58211,(,0,0,2
2:41.758,58233,t,0,0,0
2:41.822,58256,),0,0,2
2:41.956,58304,(,0,0,0
2:41.997,58319,p,0,0,0
2:42.050,58338,),0,0,0
2:42.069,58345,(,0,0,1
2:42.133,58368,N,0,0,0
2:42.158,58377,),0,0,1
2:42.375,58455,(,0,0,2
2:42.428,58474,t,0,0,0
2:42.536,58513,),0,0,2
2:42.625,58545,(,0,0,0
2:42.664,58559,p,0,0,0
2:42.725,58581,),0,0,0
2:42.739,58586,(,0,0,1
2:42.808,58611,N,0,0,0
2:42.831,58619,),0,0,1
2:43.053,58699,(,0,0,2
2:43.103,58717,t,0,0,0
2:43.194,58750,),0,0,2
2:43.278,58780,(,0,0,0
2:43.322,58796,p,0,0,0
2:43.383,58818,),0,0,0
2:43.431,58835,(,0,0,1
2:43.464,58847,N,0,0,0
2:43.489,58856,),0,0,1
2:43.708,58935,(,0,0,2
2:43.761,58954,t,0,0,0
2:43.836,58981,),0,0,2
2:43.944,59020,(,0,0,0
2:43.989,59036,p,0,0,0
2:44.047,59057,),0,0,0
2:44.069,59065,(,0,0,1
2:44.122,59084,N,0,0,0
2:44.147,59093,),0,0,1
2:44.361,59170,(,0,0,2
2:44.411,59188,t,0,0,0
2:44.567,59244,),0,0,2
2:44.597,59255,(,0,0,0
2:44.642,59271,p,0,0,0
2:44.700,59292,),0,0,0
2:44.750,59310,(,0,0,1
2:44.783,59322,N,0,0,0
2:44.806,59330,),0,0,1
2:45.022,59408,(,0,0,2
2:45.081,59429,t,0,0,0
2:45.164,59459,),0,0,2
2:45.264,59495,(,0,0,0
2:45.314,59513,p,0,0,0
2:45.369,59533,),0,0,0
2:45.417,59550,(,0,0,1
2:45.450,59562,N,0,0,0
2:45.475,59571,),0,0,1
2:45.700,59652,(,0,0,2
2:45.747,59669,t,0,0,0
2:45.825,59697,),0,0,2
2:45.933,59736,(,0,0,0
2:45.972,59750,p,0,0,0
2:46.028,59770,),0,0,0
2:46.081,59789,(,0,0,1
2:46.114,59801,N,0,0,0
2:46.147,59813,),0,0,1
2:46.361,59890,(,0,0,2
2:46.406,59906,t,0,0,0
2:46.497,59939,),0,0,2
2:46.594,59974,(,0,0,0
2:46.631,59987,p,0,0,0
2:46.689,60008,),0,0,0
2:46.736,60025,(,0,0,1
2:46.767,60036,N,0,0,0
2:46.792,60045,),0,0,1
2:47.006,60122,(,0,0,2
2:47.053,60139,t,0,0,0
2:47.158,60177,),0,0,2
2:47.231,60203,(,0,0,0
2:47.278,60220,p,0,0,0
2:47.333,60240,),0,0,0
2:47.383,60258,(,0,0,1
2:47.417,60270,N,0,0,0
2:47.439,60278,),0,0,1
2:47.656,60356,(,0,0,2
2:47.700,60372,t,0,0,0
2:47.775,60399,),0,0,2
2:47.881,60437,(,0,0,0
2:47.931,60455,p,0,0,0
2:47.989,60476,),0,0,0
2:48.006,60482,(,0,0,1
2:48.072,60506,N,0,0,0
2:48.097,60515,),0,0,1
2:48.317,60594,(,0,0,2
2:48.367,60612,t,0,0,0
2:48.444,60640,),0,0,2
2:48.550,60678,(,0,0,0
2:48.589,60692,p,0,0,0
2:48.650,60714,),0,0,0
2:48.672,60722,(,0,0,1
2:48.728,60742,N,0,0,0
2:48.753,60751,),0,0,1
2:48.983,60834,(,0,0,2
2:49.031,60851,t,0,0,0
2:49.139,60890,),0,0,2
2:49.208,60915,(,0,0,0
2:49.261,60934,p,0,0,0
2:49.314,60953,),0,0,0
2:49.367,60972,(,0,0,1
2:49.400,60984,N,0,0,0
2:49.425,60993,),0,0,1
2:49.644,61072,(,0,0,2
2:49.692,61089,t,0,0,0
2:49.769,61117,),0,0,2
2:49.881,61157,(,0,0,0
2:49.931,61175,p,0,0,0
2:49.992,61197,),0,0,0
2:50.006,61202,(,0,0,1
2:50.072,61226,N,0,0,0
2:50.097,61235,),0,0,1
2:50.311,61312,(,0,0,2
2:50.358,61329,t,0,0,0
2:50.439,61358,),0,0,2
2:50.542,61395,(,0,0,0
2:50.586,61411,p,0,0,0
2:50.644,61432,),0,0,0
2:50.694,61450,(,0,0,1
2:50.725,61461,N,0,0,0
2:50.750,61470,),0,0,1
2:50.969,61549,(,0,0,2
2:51.028,61570,t,0,0,0
2:51.108,61599,),0,0,2
2:51.203,61633,(,0,0,0
2:51.247,61649,p,0,0,0
2:51.306,61670,),0,0,0
2:51.353,61687,(,0,0,1
2:51.386,61699,N,0,0,0
2:51.408,61707,),0,0,1
2:51.625,61785,(,0,0,2
2:51.672,61802,t,0,0,0
2:51.742,61827,),0,0,2
2:51.864,61871,(,0,0,0
2:51.906,61886,p,0,0,0
2:51.964,61907,),0,0,0
2:52.011,61924,(,0,0,1
2:52.047,61937,N,0,0,0
2:52.069,61945,),0,0,1
2:52.294,62026,(,0,0,2
2:52.347,62045,t,0,0,0
2:52.408,62067,),0,0,2
2:52.553,62119,(,0,0,0
2:52.592,62133,p,0,0,0
2:52.656,62156,),0,0,0
2:52.678,62164,(,0,0,1
2:52.739,62186,N,0,0,0
2:52.764,62195,),0,0,1
2:52.978,62272,(,0,0,2
2:53.036,62293,t,0,0,0
2:53.133,62328,),0,0,2
2:53.214,62357,(,0,0,0
2:53.267,62376,p,0,0,0
2:53.328,62398,),0,0,0
2:53.344,62404,(,0,0,1
2:53.406,62426,N,0,0,0
2:53.433,62436,),0,0,1
2:53.642,62511,(,0,0,2
2:53.706,62534,t,0,0,0
2:53.800,62568,),0,0,2
2:53.897,62603,(,0,0,0
2:53.931,62615,p,0,0,0
2:53.992,62637,),0,0,0
2:54.006,62642,(,0,0,1
2:54.072,62666,N,0,0,0
2:54.097,62675,),0,0,1
2:54.308,62751,(,0,0,2
2:54.350,62766,t,0,0,0
2:54.464,62807,),0,0,2
2:54.539,62834,(,0,0,0
2:54.581,62849,p,0,0,0
2:54.639,62870,),0,0,0
2:54.686,62887,(,0,0,1
2:54.719,62899,N,0,0,0
2:54.742,62907,),0,0,1
2:54.953,62983,(,0,0,2
2:55.000,63000,t,0,0,0
2:55.114,63041,),0,0,2
2:55.183,63066,(,0,0,0
2:55.231,63083,p,0,0,0
2:55.294,63106,),0,0,0
2:55.311,63112,(,0,0,1
2:55.375,63135,N,0,0,0
2:55.400,63144,),0,0,1
2:55.617,63222,(,0,0,2
2:55.664,63239,t,0,0,0
2:55.744,63268,),0,0,2
2:55.842,63303,(,0,0,0
2:55.889,63320,p,0,0,0
2:55.947,63341,),0,0,0
2:55.975,63351,(,0,0,1
2:56.028,63370,N,0,0,0
2:56.053,63379,),0,0,1
2:56.269,63457,(,0,0,2
2:56.328,63478,t,0,0,0
2:56.428,63514,),0,0,2
2:56.519,63547,(,0,0,0
2:56.558,63561,p,0,0,0
2:56.617,63582,),0,0,0
2:56.642,63591,(,0,0,1
2:56.700,63612,N,0,0,0
2:56.725,63621,),0,0,1
2:56.942,63699,(,0,0,2
2:56.994,63718,t,0,0,0
2:57.069,63745,),0,0,2
2:57.206,63794,(,0,0,0
2:57.236,63805,p,0,0,0
2:57.283,63822,),0,0,0
2:57.342,63843,(,0,0,1
2:57.372,63854,N,0,0,0
2:57.397,63863,),0,0,1
2:57.600,63936,(,0,0,2
2:57.656,63956,t,0,0,0
2:57.717,63978,),0,0,2
2:57.839,64022,(,0,0,0
2:57.883,64038,p,0,0,0
2:57.936,64057,),0,0,0
2:57.986,64075,(,0,0,1
2:58.019,64087,N,0,0,0
2:58.056,64100,),0,0,1
2:58.267,64176,(,0,0,2
2:58.314,64193,t,0,0,0
2:58.408,64227,),0,0,2
2:58.489,64256,(,0,0,0
2:58.528,64270,p,0,0,0
2:58.597,64295,),0,0,0
2:58.611,64300,(,0,0,1
2:58.669,64321,N,0,0,0
2:58.694,64330,),0,0,1
2:58.897,64403,(,0,0,2
2:58.953,64423,t,0,0,0
2:59.033,64452,),0,0,2
2:59.144,64492,(,0,0,0
2:59.189,64508,p,0,0,0
2:59.247,64529,),0,0,0
2:59.278,64540,(,0,0,1
2:59.336,64561,N,0,0,0
2:59.361,64570,),0,0,1
2:59.572,64646,(,0,0,2
2:59.636,64669,t,0,0,0
2:59.714,64697,),0,0,2
2:59.833,64740,(,0,0,0
2:59.875,64755,p,0,0,0
2:59.942,64779,),0,0,0
2:59.989,64796,(,0,0,1
3:00.022,64808,N,0,0,0
3:00.047,64817,),0,0,1
3:00.269,64897,(,0,0,2
3:00.319,64915,t,0,0,0
3:00.433,64956,),0,0,2
3:00.503,64981,(,0,0,0
3:00.550,64998,p,0,0,0
3:00.608,65019,),0,0,0
3:00.658,65037,(,0,0,1
3:00.689,65048,N,0,0,0
3:00.728,65062,),0,0,1
3:00.939,65138,(,0,0,2
3:00.994,65158,t,0,0,0
3:01.106,65198,),0,0,2
3:01.175,65223,(,0,0,0
3:01.217,65238,p,0,0,0
3:01.275,65259,),0,0,0
3:01.319,65275,(,0,0,1
3:01.353,65287,N,0,0,0
3:01.386,65299,),0,0,1
3:01.586,65371,(,0,0,2
3:01.639,65390,t,0,0,0
3:01.772,65438,),0,0,2
3:01.833,65460,(,0,0,0
3:01.875,65475,p,0,0,0
3:01.942,65499,),0,0,0
3:01.986,65515,(,0,0,1
3:02.017,65526,N,0,0,0
3:02.053,65539,),0,0,1
3:02.261,65614,(,0,0,2
3:02.314,65633,t,0,0,0
3:02.444,65680,),0,0,2
3:02.489,65696,(,0,0,0
3:02.539,65714,p,0,0,0
3:02.600,65736,),0,0,0
3:02.650,65754,(,0,0,1
3:02.683,65766,N,0,0,0
3:02.706,65774,),0,0,1
3:02.931,65855,(,0,0,2
3:02.978,65872,t,0,0,0
3:03.044,65896,),0,0,2
3:03.158,65937,(,0,0,0
3:03.200,65952,p,0,0,0
3:03.261,65974,),0,0,0
3:03.314,65993,(,0,0,1
3:03.347,66005,N,0,0,0
3:03.386,66019,),0,0,1
3:03.603,66097,(,0,0,2
3:03.658,66117,t,0,0,0
3:03.775,66159,),0,0,2
3:03.833,66180,(,0,0,0
3:03.875,66195,p,0,0,0
3:03.936,66217,),0,0,0
3:03.983,66234,(,0,0,1
3:04.017,66246,N,0,0,0
3:04.053,66259,),0,0,1
3:04.267,66336,(,0,0,2
3:04.325,66357,t,0,0,0
3:04.411,66388,),0,0,2
3:04.511,66424,(,0,0,0
3:04.556,66440,p,0,0,0
3:04.614,66461,),0,0,0
3:04.667,66480,(,0,0,1
3:04.697,66491,N,0,0,0
3:04.733,66504,),0,0,1
3:04.939,66578,(,0,0,2
3:04.992,66597,t,0,0,0
3:05.078,66628,),0,0,2
3:05.169,66661,(,0,0,0
3:05.208,66675,p,0,0,0
3:05.272,66698,),0,0,0
3:05.319,66715,(,0,0,1
3:05.350,66726,N,0,0,0
3:05.386,66739,),0,0,1
3:05.583,66810,(,0,0,2
3:05.647,66833,t,0,0,0
3:05.736,66865,),0,0,2
3:05.817,66894,(,0,0,0
3:05.867,66912,p,0,0,0
3:05.922,66932,),0,0,0
3:05.969,66949,(,0,0,1
3:06.006,66962,N,0,0,0
3:06.042,66975,),0,0,1
3:06.242,67047,(,0,0,2
3:06.294,67066,t,0,0,0
3:06.375,67095,),0,0,2
3:06.472,67130,(,0,0,0
3:06.519,67147,p,0,0,0
3:06.578,67168,),0,0,0
3:06.628,67186,(,0,0,1
3:06.658,67197,N,0,0,0
3:06.697,67211,),0,0,1
3:06.908,67287,(,0,0,2
3:06.967,67308,t,0,0,0
3:07.094,67354,),0,0,2
3:07.144,67372,(,0,0,0
3:07.192,67389,p,0,0,0
3:07.256,67412,),0,0,0
3:07.308,67431,(,0,0,1
3:07.339,67442,N,0,0,0
3:07.372,67454,),0,0,1
3:07.586,67531,(,0,0,2
3:07.639,67550,t,0,0,0
3:07.742,67587,),0,0,2
3:07.808,67611,(,0,0,0
3:07.853,67627,p,0,0,0
3:07.914,67649,),0,0,0
3:07.961,67666,(,0,0,1
3:07.994,67678,N,0,0,0
3:08.028,67690,),0,0,1
3:08.244,67768,(,0,0,2
3:08.300,67788,t,0,0,0
3:08.367,67812,),0,0,2
3:08.472,67850,(,0,0,0
3:08.511,67864,p,0,0,0
3:08.567,67884,),0,0,0
3:08.611,67900,(,0,0,1
3:08.644,67912,N,0,0,0
3:08.678,67924,),0,0,1
3:08.878,67996,(,0,0,2
3:08.928,68014,t,0,0,0
3:09.075,68067,),0,0,2
3:09.103,68077,(,0,0,0
3:09.153,68095,p,0,0,0
3:09.206,68114,),0,0,0
3:09.256,68132,(,0,0,1
3:09.286,68143,N,0,0,0
3:09.322,68156,),0,0,1
3:09.514,68225,(,0,0,2
3:09.578,68248,t,0,0,0
3:09.644,68272,),0,0,2
3:09.747,68309,(,0,0,0
3:09.794,68326,p,0,0,0
3:09.853,68347,),0,0,0
3:09.906,68366,(,0,0,1
3:09.939,68378,N,0,0,0
3:09.972,68390,),0,0,1
3:10.178,68464,(,0,0,2
3:10.231,68483,t,0,0,0
3:10.369,68533,),0,0,2
3:10.400,68544,(,0,0,0
3:10.439,68558,p,0,0,0
3:10.500,68580,),0,0,0
3:10.550,68598,(,0,0,1
3:10.583,68610,N,0,0,0
3:10.619,68623,),0,0,1
3:10.833,68700,(,0,0,2
3:10.886,68719,t,0,0,0
3:11.011,68764,),0,0,2
3:11.061,68782,(,0,0,0
3:11.103,68797,p,0,0,0
3:11.164,68819,),0,0,0
3:11.183,68826,(,0,0,1
3:11.244,68848,N,0,0,0
3:11.281,68861,),0,0,1
3:11.500,68940,(,0,0,2
3:11.553,68959,t,0,0,0
3:11.700,69012,),0,0,2
3:11.725,69021,(,0,0,0
3:11.775,69039,p,0,0,0
3:11.839,69062,),0,0,0
3:11.883,69078,(,0,0,1
3:11.919,69091,N,0,0,0
3:11.953,69103,),0,0,1
3:12.153,69175,(,0,0,2
3:12.206,69194,t,0,0,0
3:12.344,69244,),0,0,2
3:12.386,69259,(,0,0,0
3:12.428,69274,p,0,0,0
3:12.483,69294,),0,0,0
3:12.539,69314,(,0,0,1
3:12.572,69326,N,0,0,0
3:12.606,69338,),0,0,1
3:12.822,69416,(,0,0,2
3:12.867,69432,t,0,0,0
3:12.936,69457,),0,0,2
3:13.044,69496,(,0,0,0
3:13.081,69509,p,0,0,0
3:13.139,69530,),0,0,0
3:13.189,69548,(,0,0,1
3:13.219,69559,N,0,0,0
3:13.258,69573,),0,0,1
3:13.453,69643,(,0,0,2
3:13.511,69664,t,0,0,0
3:13.644,69712,),0,0,2
3:13.689,69728,(,0,0,0
3:13.731,69743,p,0,0,0
3:13.789,69764,),0,0,0
3:13.839,69782,(,0,0,1
3:13.872,69794,N,0,0,0
3:13.906,69806,),0,0,1
3:14.122,69884,(,0,0,2
3:14.181,69905,t,0,0,0
3:14.258,69933,),0,0,2
3:14.361,69970,(,0,0,0
3:14.406,69986,p,0,0,0
3:14.469,70009,),0,0,0
3:14.522,70028,(,0,0,1
3:14.556,70040,N,0,0,0
3:14.594,70054,),0,0,1
3:14.806,70130,(,0,0,2
3:14.858,70149,t,0,0,0
3:14.969,70189,),0,0,2
3:15.039,70214,(,0,0,0
3:15.078,70228,p,0,0,0
3:15.139,70250,),0,0,0
3:15.189,70268,(,0,0,1
3:15.222,70280,N,0,0,0
3:15.258,70293,),0,0,1
3:15.472,70370,(,0,0,2
3:15.528,70390,t,0,0,0
3:15.644,70432,),0,0,2
3:15.708,70455,(,0,0,0
3:15.747,70469,p,0,0,0
3:15.808,70491,),0,0,0
3:15.819,70495,(,0,0,1
3:15.883,70518,N,0,0,0
3:15.908,70527,),0,0,1
3:16.122,70604,(,0,0,2
3:16.169,70621,t,0,0,0
3:16.250,70650,),0,0,2
3:16.367,70692,(,0,0,0
3:16.403,70705,p,0,0,0
3:16.456,70724,),0,0,0
3:16.511,70744,(,0,0,1
3:16.542,70755,N,0,0,0
3:16.575,70767,),0,0,1
3:16.772,70838,(,0,0,2
3:16.831,70859,t,0,0,0
3:16.900,70884,),0,0,2
3:17.008,70923,(,0,0,0
3:17.047,70937,p,0,0,0
3:17.108,70959,),0,0,0
3:17.161,70978,(,0,0,1
3:17.194,70990,N,0,0,0
3:17.231,71003,),0,0,1
3:17.436,71077,(,0,0,2
3:17.486,71095,t,0,0,0
3:17.639,71150,),0,0,2
3:17.653,71155,(,0,0,0
3:17.703,71173,p,0,0,0
3:17.758,71193,),0,0,0
3:17.811,71212,(,0,0,1
3:17.842,71223,N,0,0,0
3:17.878,71236,),0,0,1
3:18.094,71314,(,0,0,2
3:18.147,71333,t,0,0,0
3:18.247,71369,),0,0,2
3:18.325,71397,(,0,0,0
3:18.367,71412,p,0,0,0
3:18.428,71434,),0,0,0
3:18.475,71451,(,0,0,1
3:18.506,71462,N,0,0,0
3:18.542,71475,),0,0,1
3:18.753,71551,(,0,0,2
3:18.808,71571,t,0,0,0
3:18.950,71622,),0,0,2
3:18.994,71638,(,0,0,0
3:19.042,71655,p,0,0,0
3:19.103,71677,),0,0,0
3:19.119,71683,(,0,0,1
3:19.186,71707,N,0,0,0
3:19.222,71720,),0,0,1
3:19.428,71794,(,0,0,2
3:19.475,71811,t,0,0,0
3:19.553,71839,),0,0,2
3:19.650,71874,(,0,0,0
3:19.694,71890,p,0,0,0
3:19.753,71911,),0,0,0
3:19.806,71930,(,0,0,1
3:19.836,71941,N,0,0,0
3:19.872,71954,),0,0,1
3:20.075,72027,(,0,0,2
3:20.128,72046,t,0,0,0
3:20.250,72090,),0,0,2
3:20.308,72111,(,0,0,0
3:20.342,72123,p,0,0,0
3:20.403,72145,),0,0,0
3:20.450,72162,(,0,0,1
3:20.481,72173,N,0,0,0
3:20.511,72184,),0,0,1
3:20.711,72256,(,0,0,2
3:20.767,72276,t,0,0,0
3:20.883,72318,),0,0,2
3:20.956,72344,(,0,0,0
3:20.994,72358,p,0,0,0
3:21.047,72377,),0,0,0
3:21.094,72394,(,0,0,1
3:21.128,72406,N,0,0,0
3:21.153,72415,),0,0,1
3:21.358,72489,(,0,0,2
3:21.428,72514,t,0,0,0
3:21.519,72547,),0,0,2
3:21.614,72581,(,0,0,0
3:21.650,72594,p,0,0,0
3:21.714,72617,),0,0,0
3:21.761,72634,(,0,0,1
3:21.797,72647,N,0,0,0
3:21.825,72657,),0,0,1
3:22.042,72735,(,0,0,2
3:22.097,72755,t,0,0,0
3:22.183,72786,),0,0,2
3:22.283,72822,(,0,0,0
3:22.319,72835,p,0,0,0
3:22.369,72853,),0,0,0
3:22.389,72860,(,0,0,1
3:22.453,72883,N,0,0,0
3:22.481,72893,),0,0,1
3:22.703,72973,(,0,0,2
3:22.756,72992,t,0,0,0
3:22.856,73028,),0,0,2
3:22.936,73057,(,0,0,0
3:22.978,73072,p,0,0,0
3:23.031,73091,),0,0,0
3:23.058,73101,(,0,0,1
3:23.114,73121,N,0,0,0
3:23.139,73130,),0,0,1
3:23.347,73205,(,0,0,2
3:23.397,73223,t,0,0,0
3:23.489,73256,),0,0,2
3:23.586,73291,(,0,0,0
3:23.628,73306,p,0,0,0
3:23.689,73328,),0,0,0
3:23.719,73339,(,0,0,1
3:23.767,73356,N,0,0,0
3:23.792,73365,),0,0,1
3:23.989,73436,(,0,0,2
3:24.050,73458,t,0,0,0
3:24.147,73493,),0,0,2
3:24.242,73527,(,0,0,0
3:24.278,73540,p,0,0,0
3:24.347,73565,),0,0,0
3:24.361,73570,(,0,0,1
3:24.422,73592,N,0,0,0
3:24.453,73603,),0,0,1
3:24.658,73677,(,0,0,2
3:24.719,73699,t,0,0,0
3:24.828,73738,),0,0,2
3:24.897,73763,(,0,0,0
3:24.939,73778,p,0,0,0
3:24.994,73798,),0,0,0
3:25.025,73809,(,0,0,1
3:25.078,73828,N,0,0,0
3:25.106,73838,),0,0,1
3:25.317,73914,(,0,0,2
3:25.375,73935,t,0,0,0
3:25.492,73977,),0,0,2
3:25.553,73999,(,0,0,0
3:25.603,74017,p,0,0,0
3:25.656,74036,),0,0,0
3:25.708,74055,(,0,0,1
3:25.742,74067,N,0,0,0
3:25.767,74076,),0,0,1
3:25.986,74155,(,0,0,2
3:26.039,74174,t,0,0,0
3:26.181,74225,),0,0,2
3:26.225,74241,(,0,0,0
3:26.272,74258,p,0,0,0
3:26.336,74281,),0,0,0
3:26.358,74289,(,0,0,1
3:26.417,74310,N,0,0,0
3:26.442,74319,),0,0,1
3:26.653,74395,(,0,0,2
3:26.703,74413,t,0,0,0
3:26.850,74466,),0,0,2
3:26.886,74479,(,0,0,0
3:26.922,74492,p,0,0,0
3:26.981,74513,),0,0,0
3:27.033,74532,(,0,0,1
3:27.069,74545,N,0,0,0
3:27.094,74554,),0,0,1
3:27.317,74634,(,0,0,2
3:27.372,74654,t,0,0,0
3:27.447,74681,),0,0,2
3:27.553,74719,(,0,0,0
3:27.597,74735,p,0,0,0
3:27.656,74756,),0,0,0
3:27.664,74759,(,0,0,1
3:27.731,74783,N,0,0,0
3:27.753,74791,),0,0,1
3:27.967,74868,(,0,0,2
3:28.017,74886,t,0,0,0
3:28.125,74925,),0,0,2
3:28.217,74958,(,0,0,0
3:28.250,74970,p,0,0,0
3:28.308,74991,),0,0,0
3:28.361,75010,(,0,0,1
3:28.392,75021,N,0,0,0
3:28.428,75034,),0,0,1
3:28.644,75112,(,0,0,2
3:28.694,75130,t,0,0,0
3:28.822,75176,),0,0,2
3:28.892,75201,(,0,0,0
3:28.936,75217,p,0,0,0
3:28.997,75239,),0,0,0
3:29.050,75258,(,0,0,1
3:29.081,75269,N,0,0,0
3:29.114,75281,),0,0,1
3:29.322,75356,(,0,0,2
3:29.369,75373,t,0,0,0
3:29.478,75412,),0,0,2
3:29.561,75442,(,0,0,0
3:29.603,75457,p,0,0,0
3:29.656,75476,),0,0,0
3:29.708,75495,(,0,0,1
3:29.742,75507,N,0,0,0
3:29.775,75519,),0,0,1
3:29.986,75595,(,0,0,2
3:30.036,75613,t,0,0,0
3:30.144,75652,),0,0,2
3:30.222,75680,(,0,0,0
3:30.267,75696,p,0,0,0
3:30.322,75716,),0,0,0
3:30.369,75733,(,0,0,1
3:30.400,75744,N,0,0,0
3:30.436,75757,),0,0,1
3:30.636,75829,(,0,0,2
3:30.681,75845,t,0,0,0
3:30.828,75898,),0,0,2
3:30.872,75914,(,0,0,0
3:30.914,75929,p,0,0,0
3:30.975,75951,),0,0,0
3:30.997,75959,(,0,0,1
3:31.058,75981,N,0,0,0
3:31.081,75989,),0,0,1
3:31.294,76066,(,0,0,2
3:31.342,76083,t,0,0,0
3:31.431,76115,),0,0,2
3:31.536,76153,(,0,0,0
3:31.583,76170,p,0,0,0
3:31.642,76191,),0,0,0
3:31.661,76198,(,0,0,1
3:31.728,76222,N,0,0,0
3:31.761,76234,),0,0,1
3:31.961,76306,(,0,0,2
3:32.011,76324,t,0,0,0
3:32.097,76355,),0,0,2
3:32.222,76400,(,0,0,0
3:32.258,76413,p,0,0,0
3:32.319,76435,),0,0,0
3:32.367,76452,(,0,0,1
3:32.400,76464,N,0,0,0
3:32.436,76477,),0,0,1
3:32.647,76553,(,0,0,2
3:32.700,76572,t,0,0,0
3:32.769,76597,),0,0,2
3:32.894,76642,(,0,0,0
3:32.936,76657,p,0,0,0
3:32.994,76678,),0,0,0
3:33.047,76697,(,0,0,1
3:33.078,76708,N,0,0,0
3:33.111,76720,),0,0,1
3:33.322,76796,(,0,0,2
3:33.375,76815,t,0,0,0
3:33.497,76859,),0,0,2
3:33.581,76889,(,0,0,0
3:33.628,76906,p,0,0,0
3:33.689,76928,),0,0,0
3:33.697,76931,(,0,0,1
3:33.764,76955,N,0,0,0
3:33.786,76963,),0,0,1
3:33.989,77036,(,0,0,2
3:34.050,77058,t,0,0,0
3:34.197,77111,),0,0,2
3:34.250,77130,(,0,0,0
3:34.294,77146,p,0,0,0
3:34.353,77167,),0,0,0
3:34.403,77185,(,0,0,1
3:34.436,77197,N,0,0,0
3:34.469,77209,),0,0,1
3:34.672,77282,(,0,0,2
3:34.722,77300,t,0,0,0
3:34.831,77339,),0,0,2
3:34.919,77371,(,0,0,0
3:34.958,77385,p,0,0,0
3:35.017,77406,),0,0,0
3:35.033,77412,(,0,0,1
3:35.094,77434,N,0,0,0
3:35.128,77446,),0,0,1
3:35.339,77522,(,0,0,2
3:35.392,77541,t,0,0,0
3:35.489,77576,),0,0,2
3:35.586,77611,(,0,0,0
3:35.628,77626,p,0,0,0
3:35.686,77647,),0,0,0
3:35.736,77665,(,0,0,1
3:35.772,77678,N,0,0,0
3:35.806,77690,),0,0,1
3:36.017,77766,(,0,0,2
3:36.067,77784,t,0,0,0
3:36.194,77830,),0,0,2
3:36.278,77860,(,0,0,0
3:36.325,77877,p,0,0,0
3:36.386,77899,),0,0,0
3:36.436,77917,(,0,0,1
3:36.469,77929,N,0,0,0
3:36.506,77942,),0,0,1
3:36.711,78016,(,0,0,2
3:36.758,78033,t,0,0,0
3:36.833,78060,),0,0,2
3:36.958,78105,(,0,0,0
3:37.000,78120,p,0,0,0
3:37.061,78142,),0,0,0
3:37.108,78159,(,0,0,1
3:37.142,78171,N,0,0,0
3:37.178,78184,),0,0,1
3:37.378,78256,(,0,0,2
3:37.436,78277,t,0,0,0
3:37.528,78310,),0,0,2
3:37.628,78346,(,0,0,0
3:37.669,78361,p,0,0,0
3:37.722,78380,),0,0,0
3:37.775,78399,(,0,0,1
3:37.808,78411,N,0,0,0
3:37.842,78423,),0,0,1
3:38.050,78498,(,0,0,2
3:38.100,78516,t,0,0,0
3:38.192,78549,),0,0,2
3:38.292,78585,(,0,0,0
3:38.339,78602,p,0,0,0
3:38.397,78623,),0,0,0
3:38.442,78639,(,0,0,1
3:38.475,78651,N,0,0,0
3:38.508,78663,),0,0,1
3:38.711,78736,(,0,0,2
3:38.767,78756,t,0,0,0
3:38.833,78780,),0,0,2
3:38.964,78827,(,0,0,0
3:39.008,78843,p,0,0,0
3:39.067,78864,),0,0,0
3:39.119,78883,(,0,0,1
3:39.150,78894,N,0,0,0
3:39.186,78907,),0,0,1
3:39.386,78979,(,0,0,2
3:39.439,78998,t,0,0,0
3:39.531,79031,),0,0,2
3:39.631,79067,(,0,0,0
3:39.675,79083,p,0,0,0
3:39.733,79104,),0,0,0
3:39.786,79123,(,0,0,1
3:39.819,79135,N,0,0,0
3:39.844,79144,),0,0,1
3:40.061,79222,(,0,0,2
3:40.114,79241,t,0,0,0
3:40.203,79273,),0,0,2
3:40.306,79310,(,0,0,0
3:40.347,79325,p,0,0,0
3:40.408,79347,),0,0,0
3:40.433,79356,(,0,0,1
3:40.494,79378,N,0,0,0
3:40.522,79388,),0,0,1
3:40.742,79467,(,0,0,2
3:40.794,79486,t,0,0,0
3:40.894,79522,),0,0,2
3:41.000,79560,(,0,0,0
3:41.042,79575,p,0,0,0
3:41.094,79594,),0,0,0
3:41.142,79611,(,0,0,1
3:41.175,79623,N,0,0,0
3:41.211,79636,),0,0,1
3:41.408,79707,(,0,0,2
3:41.469,79729,t,0,0,0
3:41.583,79770,),0,0,2
3:41.664,79799,(,0,0,0
3:41.708,79815,p,0,0,0
3:41.767,79836,),0,0,0
3:41.819,79855,(,0,0,1
3:41.850,79866,N,0,0,0
3:41.883,79878,),0,0,1
3:42.083,79950,(,0,0,2
3:42.133,79968,t,0,0,0
3:42.225,80001,),0,0,2
3:42.328,80038,(,0,0,0
3:42.372,80054,p,0,0,0
3:42.428,80074,),0,0,0
3:42.475,80091,(,0,0,1
3:42.508,80103,N,0,0,0
3:42.542,80115,),0,0,1
3:42.736,80185,(,0,0,2
3:42.800,80208,t,0,0,0
3:42.897,80243,),0,0,2
3:42.994,80278,(,0,0,0
3:43.042,80295,p,0,0,0
3:43.103,80317,),0,0,0
3:43.156,80336,(,0,0,1
3:43.186,80347,N,0,0,0
3:43.222,80360,),0,0,1
3:43.436,80437,(,0,0,2
3:43.489,80456,t,0,0,0
3:43.597,80495,),0,0,2
3:43.697,80531,(,0,0,0
3:43.733,80544,p,0,0,0
3:43.792,80565,),0,0,0
3:43.844,80584,(,0,0,1
3:43.875,80595,N,0,0,0
3:43.911,80608,),0,0,1
3:44.111,80680,(,0,0,2
3:44.164,80699,t,0,0,0
3:44.258,80733,),0,0,2
3:44.364,80771,(,0,0,0
3:44.408,80787,p,0,0,0
3:44.464,80807,),0,0,0
3:44.519,80827,(,0,0,1
3:44.553,80839,N,0,0,0
3:44.586,80851,),0,0,1
3:44.786,80923,(,0,0,2
3:44.831,80939,t,0,0,0
3:44.933,80976,),0,0,2
3:45.033,81012,(,0,0,0
3:45.075,81027,p,0,0,0
3:45.131,81047,),0,0,0
3:45.178,81064,(,0,0,1
3:45.211,81076,N,0,0,0
3:45.247,81089,),0,0,1
3:45.453,81163,(,0,0,2
3:45.500,81180,t,0,0,0
3:45.661,81238,),0,0,2
3:45.697,81251,(,0,0,0
3:45.739,81266,p,0,0,0
3:45.800,81288,),0,0,0
3:45.853,81307,(,0,0,1
3:45.886,81319,N,0,0,0
3:45.919,81331,),0,0,1
3:46.131,81407,(,0,0,2
3:46.183,81426,t,0,0,0
3:46.267,81456,),0,0,2
3:46.386,81499,(,0,0,0
3:46.428,81514,p,0,0,0
3:46.486,81535,),0,0,0
3:46.533,81552,(,0,0,1
3:46.567,81564,N,0,0,0
3:46.600,81576,),0,0,1
3:46.797,81647,(,0,0,2
3:46.850,81666,t,0,0,0
3:46.972,81710,),0,0,2
3:47.064,81743,(,0,0,0
3:47.114,81761,p,0,0,0
3:47.169,81781,),0,0,0
3:47.222,81800,(,0,0,1
3:47.253,81811,N,0,0,0
3:47.289,81824,),0,0,1
3:47.492,81897,(,0,0,2
3:47.547,81917,t,0,0,0
3:47.636,81949,),0,0,2
3:47.744,81988,(,0,0,0
3:47.792,82005,p,0,0,0
3:47.858,82029,),0,0,0
3:47.911,82048,(,0,0,1
3:47.944,82060,N,0,0,0
3:47.981,82073,),0,0,1
3:48.186,82147,(,0,0,2
3:48.233,82164,t,0,0,0
3:48.344,82204,),0,0,2
3:48.422,82232,(,0,0,0
3:48.467,82248,p,0,0,0
3:48.528,82270,),0,0,0
3:48.578,82288,(,0,0,1
3:48.611,82300,N,0,0,0
3:48.650,82314,),0,0,1
3:48.864,82391,(,0,0,2
3:48.911,82408,t,0,0,0
3:48.997,82439,),0,0,2
3:49.100,82476,(,0,0,0
3:49.142,82491,p,0,0,0
3:49.197,82511,),0,0,0
3:49.247,82529,(,0,0,1
3:49.281,82541,N,0,0,0
3:49.314,82553,),0,0,1
3:49.514,82625,(,0,0,2
3:49.564,82643,t,0,0,0
3:49.642,82671,),0,0,2
3:49.758,82713,(,0,0,0
3:49.808,82731,p,0,0,0
3:49.864,82751,),0,0,0
3:49.919,82771,(,0,0,1
3:49.953,82783,N,0,0,0
3:49.986,82795,),0,0,1
3:50.200,82872,(,0,0,2
3:50.256,82892,t,0,0,0
3:50.344,82924,),0,0,2
3:50.464,82967,(,0,0,0
3:50.508,82983,p,0,0,0
3:50.569,83005,),0,0,0
3:50.622,83024,(,0,0,1
3:50.658,83037,N,0,0,0
3:50.681,83045,),0,0,1
3:50.906,83126,(,0,0,2
3:50.958,83145,t,0,0,0
3:51.064,83183,),0,0,2
3:51.158,83217,(,0,0,0
3:51.194,83230,p,0,0,0
3:51.253,83251,),0,0,0
3:51.300,83268,(,0,0,1
3:51.333,83280,N,0,0,0
3:51.358,83289,),0,0,1
3:51.586,83371,(,0,0,2
3:51.639,83390,t,0,0,0
3:51.767,83436,),0,0,2
3:51.833,83460,(,0,0,0
3:51.869,83473,p,0,0,0
3:51.931,83495,),0,0,0
3:51.978,83512,(,0,0,1
3:52.011,83524,N,0,0,0
3:52.044,83536,),0,0,1
3:52.244,83608,(,0,0,2
3:52.289,83624,t,0,0,0
3:52.364,83651,),0,0,2
3:52.492,83697,(,0,0,0
3:52.531,83711,p,0,0,0
3:52.592,83733,),0,0,0
3:52.639,83750,(,0,0,1
3:52.672,83762,N,0,0,0
3:52.697,83771,),0,0,1
3:52.908,83847,(,0,0,2
3:52.953,83863,t,0,0,0
3:53.017,83886,),0,0,2
3:53.142,83931,(,0,0,0
3:53.186,83947,p,0,0,0
3:53.250,83970,),0,0,0
3:53.297,83987,(,0,0,1
3:53.331,83999,N,0,0,0
3:53.364,84011,),0,0,1
3:53.569,84085,(,0,0,2
3:53.617,84102,t,0,0,0
3:53.697,84131,),0,0,2
3:53.806,84170,(,0,0,0
3:53.847,84185,p,0,0,0
3:53.903,84205,),0,0,0
3:53.956,84224,(,0,0,1
3:53.989,84236,N,0,0,0
3:54.022,84248,),0,0,1
3:54.239,84326,(,0,0,2
3:54.286,84343,t,0,0,0
3:54.381,84377,),0,0,2
3:54.472,84410,(,0,0,0
3:54.517,84426,p,0,0,0
3:54.572,84446,),0,0,0
3:54.625,84465,(,0,0,1
3:54.658,84477,N,0,0,0
3:54.692,84489,),0,0,1
3:54.906,84566,(,0,0,2
3:54.953,84583,t,0,0,0
3:55.017,84606,),0,0,2
3:55.164,84659,(,0,0,0
3:55.208,84675,p,0,0,0
3:55.267,84696,),0,0,0
3:55.314,84713,(,0,0,1
3:55.347,84725,N,0,0,0
3:55.381,84737,),0,0,1
3:55.589,84812,(,0,0,2
3:55.633,84828,t,0,0,0
3:55.764,84875,),0,0,2
3:55.828,84898,(,0,0,0
3:55.869,84913,p,0,0,0
3:55.928,84934,),0,0,0
3:55.978,84952,(,0,0,1
3:56.011,84964,N,0,0,0
3:56.044,84976,),0,0,1
3:56.242,85047,(,0,0,2
3:56.294,85066,t,0,0,0
3:56.400,85104,),0,0,2
3:56.492,85137,(,0,0,0
3:56.531,85151,p,0,0,0
3:56.592,85173,),0,0,0
3:56.611,85180,(,0,0,1
3:56.669,85201,N,0,0,0
3:56.694,85210,),0,0,1
3:56.911,85288,(,0,0,2
3:56.958,85305,t,0,0,0
3:57.036,85333,),0,0,2
3:57.161,85378,(,0,0,0
3:57.200,85392,p,0,0,0
3:57.261,85414,),0,0,0
3:57.311,85432,(,0,0,1
3:57.344,85444,N,0,0,0
3:57.369,85453,),0,0,1
3:57.592,85533,(,0,0,2
3:57.642,85551,t,0,0,0
3:57.742,85587,),0,0,2
3:57.844,85624,(,0,0,0
3:57.889,85640,p,0,0,0
3:57.947,85661,),0,0,0
3:58.003,85681,(,0,0,1
3:58.033,85692,N,0,0,0
3:58.067,85704,),0,0,1
3:58.272,85778,(,0,0,2
3:58.325,85797,t,0,0,0
3:58.408,85827,),0,0,2
3:58.514,85865,(,0,0,0
3:58.556,85880,p,0,0,0
3:58.619,85903,),0,0,0
3:58.644,85912,(,0,0,1
3:58.703,85933,N,0,0,0
3:58.728,85942,),0,0,1
3:58.950,86022,(,0,0,2
3:58.997,86039,t,0,0,0
3:59.075,86067,),0,0,2
3:59.186,86107,(,0,0,0
3:59.233,86124,p,0,0,0
3:59.292,86145,),0,0,0
3:59.336,86161,(,0,0,1
3:59.367,86172,N,0,0,0
3:59.400,86184,),0,0,1
3:59.611,86260,(,0,0,2
3:59.661,86278,t,0,0,0
3:59.736,86305,),0,0,2
3:59.850,86346,(,0,0,0
3:59.897,86363,p,0,0,0
3:59.953,86383,),0,0,0
4:00.003,86401,(,0,0,1
4:00.033,86412,N,0,0,0
4:00.067,86424,),0,0,1
4:00.261,86494,(,0,0,2
4:00.328,86518,t,0,0,0
4:00.400,86544,),0,0,2
4:00.533,86592,(,0,0,0
4:00.572,86606,p,0,0,0
4:00.628,86626,),0,0,0
4:00.681,86645,(,0,0,1
4:00.711,86656,N,0,0,0
4:00.736,86665,),0,0,1
4:00.947,86741,(,0,0,2
4:00.994,86758,t,0,0,0
4:01.058,86781,),0,0,2
4:01.183,86826,(,0,0,0
4:01.228,86842,p,0,0,0
4:01.286,86863,),0,0,0
4:01.339,86882,(,0,0,1
4:01.372,86894,N,0,0,0
4:01.394,86902,),0,0,1
4:01.614,86981,(,0,0,2
4:01.664,86999,t,0,0,0
4:01.753,87031,),0,0,2
4:01.853,87067,(,0,0,0
4:01.900,87084,p,0,0,0
4:01.964,87107,),0,0,0
4:01.983,87114,(,0,0,1
4:02.047,87137,N,0,0,0
4:02.072,87146,),0,0,1
4:02.303,87229,(,0,0,2
4:02.356,87248,t,0,0,0
4:02.444,87280,),0,0,2
4:02.544,87316,(,0,0,0
4:02.586,87331,p,0,0,0
4:02.642,87351,),0,0,0
4:02.689,87368,(,0,0,1
4:02.722,87380,N,0,0,0
4:02.756,87392,),0,0,1
4:02.967,87468,(,0,0,2
4:03.017,87486,t,0,0,0
4:03.108,87519,),0,0,2
4:03.214,87557,(,0,0,0
4:03.261,87574,p,0,0,0
4:03.322,87596,),0,0,0
4:03.372,87614,(,0,0,1
4:03.403,87625,N,0,0,0
4:03.436,87637,),0,0,1
4:03.636,87709,(,0,0,2
4:03.692,87729,t,0,0,0
4:03.783,87762,),0,0,2
4:03.872,87794,(,0,0,0
4:03.919,87811,p,0,0,0
4:03.978,87832,),0,0,0
4:04.019,87847,(,0,0,1
4:04.053,87859,N,0,0,0
4:04.089,87872,),0,0,1
4:04.278,87940,(,0,0,2
4:04.344,87964,t,0,0,0
4:04.411,87988,),0,0,2
4:04.533,88032,(,0,0,0
4:04.578,88048,p,0,0,0
4:04.642,88071,),0,0,0
4:04.689,88088,(,0,0,1
4:04.722,88100,N,0,0,0
4:04.758,88113,),0,0,1
4:04.972,88190,(,0,0,2
4:05.025,88209,t,0,0,0
4:05.086,88231,),0,0,2
4:05.214,88277,(,0,0,0
4:05.258,88293,p,0,0,0
4:05.319,88315,),0,0,0
4:05.364,88331,(,0,0,1
4:05.400,88344,N,0,0,0
4:05.433,88356,),0,0,1
4:05.639,88430,(,0,0,2
4:05.686,88447,t,0,0,0
4:05.781,88481,),0,0,2
4:05.875,88515,(,0,0,0
4:05.919,88531,p,0,0,0
4:05.981,88553,),0,0,0
4:06.033,88572,(,0,0,1
4:06.067,88584,N,0,0,0
4:06.100,88596,),0,0,1
4:06.303,88669,(,0,0,2
4:06.353,88687,t,0,0,0
4:06.497,88739,),0,0,2
4:06.536,88753,(,0,0,0
4:06.572,88766,p,0,0,0
4:06.633,88788,),0,0,0
4:06.650,88794,(,0,0,1
4:06.711,88816,N,0,0,0
4:06.744,88828,),0,0,1
4:06.956,88904,(,0,0,2
4:07.011,88924,t,0,0,0
4:07.086,88951,),0,0,2
4:07.114,88961,(,0,0,0
4:07.133,88968,p,0,0,0
4:07.172,88982,),0,0,0
4:07.178,88984,(,0,0,1
4:07.319,89035,N,0,0,0
4:07.461,89086,),0,0,1
4:07.464,89087,t,0,0,3
4:07.581,89129,),0,0,2
4:07.853,89227,(,0,0,0
4:07.897,89243,p,0,0,0
4:07.950,89262,),0,0,0
4:07.997,89279,(,0,0,1
4:08.031,89291,N,0,0,0
4:08.064,89303,),0,0,1
4:08.261,89374,(,0,0,2
4:08.328,89398,t,0,0,0
4:08.453,89443,),0,0,2
4:08.514,89465,(,0,0,0
4:08.553,89479,p,0,0,0
4:08.608,89499,),0,0,0
4:08.667,89520,(,0,0,1
4:08.697,89531,N,0,0,0
4:08.733,89544,),0,0,1
4:08.947,89621,(,0,0,2
4:08.997,89639,t,0,0,0
4:09.058,89661,),0,0,2
4:09.172,89702,(,0,0,0
4:09.214,89717,p,0,0,0
4:09.272,89738,),0,0,0
4:09.325,89757,(,0,0,1
4:09.361,89770,N,0,0,0
4:09.394,89782,),0,0,1
4:09.611,89860,(,0,0,2
4:09.661,89878,t,0,0,0
4:09.739,89906,),0,0,2
4:09.850,89946,(,0,0,0
4:09.889,89960,p,0,0,0
4:09.944,89980,),0,0,0
4:09.992,89997,(,0,0,1
4:10.025,90009,N,0,0,0
4:10.061,90022,),0,0,1
4:10.275,90099,(,0,0,2
4:10.319,90115,t,0,0,0
4:10.389,90140,),0,0,2
4:10.497,90179,(,0,0,0
4:10.542,90195,p,0,0,0
4:10.603,90217,),0,0,0
4:10.619,90223,(,0,0,1
4:10.681,90245,N,0,0,0
4:10.714,90257,),0,0,1
4:10.914,90329,(,0,0,2
4:10.967,90348,t,0,0,0
4:11.028,90370,),0,0,2
4:11.142,90411,(,0,0,0
4:11.183,90426,p,0,0,0
4:11.244,90448,),0,0,0
4:11.256,90452,(,0,0,1
4:11.322,90476,N,0,0,0
4:11.361,90490,),0,0,1
4:11.558,90561,(,0,0,2
4:11.617,90582,t,0,0,0
4:11.736,90625,),0,0,2
4:11.800,90648,(,0,0,0
4:11.844,90664,p,0,0,0
4:11.908,90687,),0,0,0
4:11.922,90692,(,0,0,1
4:11.989,90716,N,0,0,0
4:12.014,90725,),0,0,1
4:12.244,90808,(,0,0,2
4:12.292,90825,t,0,0,0
4:12.403,90865,),0,0,2
4:12.478,90892,(,0,0,0
4:12.522,90908,p,0,0,0
4:12.583,90930,),0,0,0
4:12.631,90947,(,0,0,1
4:12.664,90959,N,0,0,0
4:12.697,90971,),0,0,1
4:12.883,91038,(,0,0,2
4:12.947,91061,t,0,0,0
4:13.053,91099,),0,0,2
4:13.139,91130,(,0,0,0
4:13.178,91144,p,0,0,0
4:13.242,91167,),0,0,0
4:13.286,91183,(,0,0,1
4:13.319,91195,N,0,0,0
4:13.344,91204,),0,0,1
4:13.547,91277,(,0,0,2
4:13.600,91296,t,0,0,0
4:13.678,91324,),0,0,2
4:13.775,91359,(,0,0,0
4:13.817,91374,p,0,0,0
4:13.872,91394,),0,0,0
4:13.922,91412,(,0,0,1
4:13.956,91424,N,0,0,0
4:13.992,91437,),0,0,1
4:14.211,91516,(,0,0,2
4:14.256,91532,t,0,0,0
4:14.350,91566,),0,0,2
4:14.419,91591,(,0,0,0
4:14.461,91606,p,0,0,0
4:14.519,91627,),0,0,0
4:14.569,91645,(,0,0,1
4:14.603,91657,N,0,0,0
4:14.636,91669,),0,0,1
4:14.847,91745,(,0,0,2
4:14.903,91765,t,0,0,0
4:14.978,91792,),0,0,2
4:15.092,91833,(,0,0,0
4:15.136,91849,p,0,0,0
4:15.192,91869,),0,0,0
4:15.239,91886,(,0,0,1
4:15.269,91897,N,0,0,0
4:15.303,91909,),0,0,1
4:15.514,91985,(,0,0,2
4:15.561,92002,t,0,0,0
4:15.653,92035,),0,0,2
4:15.756,92072,(,0,0,0
4:15.797,92087,p,0,0,0
4:15.856,92108,),0,0,0
4:15.906,92126,(,0,0,1
4:15.939,92138,N,0,0,0
4:15.972,92150,),0,0,1
4:16.178,92224,(,0,0,2
4:16.228,92242,t,0,0,0
4:16.344,92284,),0,0,2
4:16.419,92311,(,0,0,0
4:16.461,92326,p,0,0,0
4:16.519,92347,),0,0,0
4:16.572,92366,(,0,0,1
4:16.606,92378,N,0,0,0
4:16.631,92387,),0,0,1
4:16.847,92465,(,0,0,2
4:16.900,92484,t,0,0,0
4:17.017,92526,),0,0,2
4:17.086,92551,(,0,0,0
4:17.128,92566,p,0,0,0
4:17.181,92585,),0,0,0
4:17.231,92603,(,0,0,1
4:17.264,92615,N,0,0,0
4:17.300,92628,),0,0,1
4:17.508,92703,(,0,0,2
4:17.564,92723,t,0,0,0
4:17.625,92745,),0,0,2
4:17.739,92786,(,0,0,0
4:17.781,92801,p,0,0,0
4:17.836,92821,),0,0,0
4:17.856,92828,(,0,0,1
4:17.917,92850,N,0,0,0
4:17.942,92859,),0,0,1
4:18.153,92935,(,0,0,2
4:18.203,92953,t,0,0,0
4:18.292,92985,),0,0,2
4:18.392,93021,(,0,0,0
4:18.436,93037,p,0,0,0
4:18.489,93056,),0,0,0
4:18.539,93074,(,0,0,1
4:18.572,93086,N,0,0,0
4:18.608,93099,),0,0,1
4:18.819,93175,(,0,0,2
4:18.875,93195,t,0,0,0
4:18.956,93224,),0,0,2
4:19.061,93262,(,0,0,0
4:19.106,93278,p,0,0,0
4:19.167,93300,),0,0,0
4:19.217,93318,(,0,0,1
4:19.250,93330,N,0,0,0
4:19.275,93339,),0,0,1
4:19.503,93421,(,0,0,2
4:19.558,93441,t,0,0,0
4:19.656,93476,),0,0,2
4:19.753,93511,(,0,0,0
4:19.789,93524,p,0,0,0
4:19.850,93546,),0,0,0
4:19.861,93550,(,0,0,1
4:19.928,93574,N,0,0,0
4:19.964,93587,),0,0,1
4:20.164,93659,(,0,0,2
4:20.211,93676,t,0,0,0
4:20.317,93714,),0,0,2
4:20.411,93748,(,0,0,0
4:20.444,93760,p,0,0,0
4:20.500,93780,),0,0,0
4:20.550,93798,(,0,0,1
4:20.581,93809,N,0,0,0
4:20.606,93818,),0,0,1
4:20.819,93895,(,0,0,2
4:20.864,93911,t,0,0,0
4:20.961,93946,),0,0,2
4:21.047,93977,(,0,0,0
4:21.081,93989,p,0,0,0
4:21.142,94011,),0,0,0
4:21.161,94018,(,0,0,1
4:21.222,94040,N,0,0,0
4:21.247,94049,),0,0,1
4:21.461,94126,(,0,0,2
4:21.511,94144,t,0,0,0
4:21.592,94173,),0,0,2
4:21.686,94207,(,0,0,0
4:21.728,94222,p,0,0,0
4:21.786,94243,),0,0,0
4:21.836,94261,(,0,0,1
4:21.869,94273,N,0,0,0
4:21.906,94286,),0,0,1
4:22.117,94362,(,0,0,2
4:22.169,94381,t,0,0,0
4:22.289,94424,),0,0,2
4:22.353,94447,(,0,0,0
4:22.392,94461,p,0,0,0
4:22.450,94482,),0,0,0
4:22.492,94497,(,0,0,1
4:22.525,94509,N,0,0,0
4:22.558,94521,),0,0,1
4:22.756,94592,(,0,0,2
4:22.811,94612,t,0,0,0
4:22.906,94646,),0,0,2
4:22.994,94678,(,0,0,0
4:23.042,94695,p,0,0,0
4:23.097,94715,),0,0,0
4:23.150,94734,(,0,0,1
4:23.181,94745,N,0,0,0
4:23.206,94754,),0,0,1
4:23.422,94832,(,0,0,2
4:23.472,94850,t,0,0,0
4:23.561,94882,),0,0,2
4:23.658,94917,(,0,0,0
4:23.700,94932,p,0,0,0
4:23.758,94953,),0,0,0
4:23.808,94971,(,0,0,1
4:23.842,94983,N,0,0,0
4:23.878,94996,),0,0,1
4:24.086,95071,(,0,0,2
4:24.139,95090,t,0,0,0
4:24.219,95119,),0,0,2
4:24.303,95149,(,0,0,0
4:24.344,95164,p,0,0,0
4:24.403,95185,),0,0,0
4:24.453,95203,(,0,0,1
4:24.483,95214,N,0,0,0
4:24.517,95226,),0,0,1
4:24.719,95299,(,0,0,2
4:24.778,95320,t,0,0,0
4:24.864,95351,),0,0,2
4:24.961,95386,(,0,0,0
4:25.006,95402,p,0,0,0
4:25.061,95422,),0,0,0
4:25.108,95439,(,0,0,1
4:25.139,95450,N,0,0,0
4:25.172,95462,),0,0,1
4:25.378,95536,(,0,0,2
4:25.425,95553,t,0,0,0
4:25.525,95589,),0,0,2
4:25.600,95616,(,0,0,0
4:25.642,95631,p,0,0,0
4:25.703,95653,),0,0,0
4:25.747,95669,(,0,0,1
4:25.781,95681,N,0,0,0
4:25.814,95693,),0,0,1
4:26.031,95771,(,0,0,2
4:26.083,95790,t,0,0,0
4:26.161,95818,),0,0,2
4:26.289,95864,(,0,0,0
4:26.322,95876,p,0,0,0
4:26.375,95895,),0,0,0
4:26.397,95903,(,0,0,1
4:26.458,95925,N,0,0,0
4:26.483,95934,),0,0,1
4:26.703,96013,(,0,0,2
4:26.753,96031,t,0,0,0
4:26.825,96057,),0,0,2
4:26.933,96096,(,0,0,0
4:26.983,96114,p,0,0,0
4:27.044,96136,),0,0,0
4:27.092,96153,(,0,0,1
4:27.125,96165,N,0,0,0
4:27.158,96177,),0,0,1
4:27.361,96250,(,0,0,2
4:27.414,96269,t,0,0,0
4:27.522,96308,),0,0,2
4:27.597,96335,(,0,0,0
4:27.650,96354,p,0,0,0
4:27.708,96375,),0,0,0
4:27.756,96392,(,0,0,1
4:27.786,96403,N,0,0,0
4:27.819,96415,),0,0,1
4:28.025,96489,(,0,0,2
4:28.075,96507,t,0,0,0
4:28.219,96559,),0,0,2
4:28.239,96566,(,0,0,0
4:28.286,96583,p,0,0,0
4:28.347,96605,),0,0,0
4:28.367,96612,(,0,0,1
4:28.431,96635,N,0,0,0
4:28.453,96643,),0,0,1
4:28.664,96719,(,0,0,2
4:28.722,96740,t,0,0,0
4:28.839,96782,),0,0,2
4:28.892,96801,(,0,0,0
4:28.939,96818,p,0,0,0
4:29.003,96841,),0,0,0
4:29.047,96857,(,0,0,1
4:29.078,96868,N,0,0,0
4:29.103,96877,),0,0,1
4:29.328,96958,(,0,0,2
4:29.369,96973,t,0,0,0
4:29.497,97019,),0,0,2
4:29.558,97041,(,0,0,0
4:29.600,97056,p,0,0,0
4:29.650,97074,),0,0,0
4:29.664,97079,(,0,0,1
4:29.731,97103,N,0,0,0
4:29.756,97112,),0,0,1
4:29.953,97183,(,0,0,2
4:30.011,97204,t,0,0,0
4:30.111,97240,),0,0,2
4:30.194,97270,(,0,0,0
4:30.242,97287,p,0,0,0
4:30.300,97308,),0,0,0
4:30.356,97328,(,0,0,1
4:30.386,97339,N,0,0,0
4:30.422,97352,),0,0,1
4:30.614,97421,(,0,0,2
4:30.669,97441,t,0,0,0
4:30.753,97471,),0,0,2
4:30.858,97509,(,0,0,0
4:30.903,97525,p,0,0,0
4:30.961,97546,),0,0,0
4:31.014,97565,(,0,0,1
4:31.047,97577,N,0,0,0
4:31.083,97590,),0,0,1
4:31.292,97665,(,0,0,2
4:31.347,97685,t,0,0,0
4:31.458,97725,),0,0,2
4:31.514,97745,(,0,0,0
4:31.558,97761,p,0,0,0
4:31.619,97783,),0,0,0
4:31.636,97789,(,0,0,1
4:31.697,97811,N,0,0,0
4:31.722,97820,),0,0,1
4:31.928,97894,(,0,0,2
4:31.983,97914,t,0,0,0
4:32.050,97938,),0,0,2
4:32.156,97976,(,0,0,0
4:32.203,97993,p,0,0,0
4:32.256,98012,),0,0,0
4:32.306,98030,(,0,0,1
4:32.339,98042,N,0,0,0
4:32.375,98055,),0,0,1
4:32.553,98119,(,0,0,2
4:32.619,98143,t,0,0,0
4:32.731,98183,),0,0,2
4:32.800,98208,(,0,0,0
4:32.828,98218,p,0,0,0
4:32.889,98240,),0,0,0
4:32.922,98252,(,0,0,1
4:32.967,98268,N,0,0,0
4:32.994,98278,),0,0,1
4:33.200,98352,(,0,0,2
4:33.256,98372,t,0,0,0
4:33.328,98398,),0,0,2
4:33.428,98434,(,0,0,0
4:33.469,98449,p,0,0,0
4:33.531,98471,),0,0,0
4:33.581,98489,(,0,0,1
4:33.614,98501,N,0,0,0
4:33.639,98510,),0,0,1
4:33.864,98591,(,0,0,2
4:33.911,98608,t,0,0,0
4:34.008,98643,),0,0,2
4:34.089,98672,(,0,0,0
4:34.136,98689,p,0,0,0
4:34.197,98711,),0,0,0
4:34.244,98728,(,0,0,1
4:34.278,98740,N,0,0,0
4:34.300,98748,),0,0,1
4:34.511,98824,(,0,0,2
4:34.558,98841,t,0,0,0
4:34.661,98878,),0,0,2
4:34.731,98903,(,0,0,0
4:34.772,98918,p,0,0,0
4:34.831,98939,),0,0,0
4:34.883,98958,(,0,0,1
4:34.917,98970,N,0,0,0
4:34.942,98979,),0,0,1
4:35.131,99047,(,0,0,2
4:35.206,99074,t,0,0,0
4:35.264,99095,),0,0,2
4:35.372,99134,(,0,0,0
4:35.417,99150,p,0,0,0
4:35.464,99167,),0,0,0
4:35.514,99185,(,0,0,1
4:35.547,99197,N,0,0,0
4:35.569,99205,),0,0,1
4:35.669,99241,(,0,0,2
4:35.714,99257,t,0,0,0
4:35.736,99265,),0,0,2
4:36.806,99650,(,0,0,1
4:36.828,99658,N,0,0,0
4:36.850,99666,),0,0,1
4:37.422,99872,(,0,0,2
4:37.453,99883,t,0,0,0
4:37.492,99897,),0,0,2
4:39.358,100569,(,0,0,1
4:39.381,100577,N,0,0,0
4:39.403,100585,),0,0,1
4:39.969,100789,(,0,0,2
4:40.000,100800,t,0,0,0
4:40.042,100815,),0,0,2
4:40.617,101022,(,0,0,1
4:40.639,101030,N,0,0,0
4:40.661,101038,),0,0,1
4:41.261,101254,(,0,0,2
4:41.292,101265,t,0,0,0
4:41.331,101279,),0,0,2
4:46.217,103038,(,0,0,1
4:46.247,103049,N,0,0,0
4:46.269,103057,),0,0,1
4:46.825,103257,(,0,0,2
4:46.856,103268,t,0,0,0
4:46.889,103280,),0,0,2
4:58.939,107618,(,0,0,1
4:59.294,107746,N,0,0,0
4:59.297,107747,),0,0,1
4:59.306,107750,(,0,0,2
4:59.500,107820,t,0,0,0
4:59.589,107852,),0,0,2
4:59.592,107853,(,0,0,1
4:59.939,107978,N,0,0,0
4:59.942,107979,(,0,0,1
5:00.289,108104,N,0,0,0
5:00.289,108104,),0,0,1
5:00.292,108105,t,0,0,2
5:00.367,108132,),0,0,2
5:00.369,108133,(,0,0,1
5:00.625,108225,N,0,0,0
5:00.625,108225,),0,0,1
5:00.628,108226,t,0,0,2
5:00.708,108255,),0,0,2
5:00.711,108256,(,0,0,1
5:00.936,108337,N,0,0,0
5:01.011,108364,),0,0,1
5:01.014,108365,t,0,0,2
5:01.119,108403,),0,0,2
5:01.133,108408,(,0,0,1
5:01.289,108464,N,0,0,0
5:01.289,108464,),0,0,1
5:01.294,108466,(,0,0,2
5:01.486,108535,t,0,0,0
5:01.583,108570,),0,0,2
5:01.856,108668,(,0,0,1
5:01.881,108677,N,0,0,0
5:01.903,108685,),0,0,1
5:02.092,108753,(,0,0,2
5:02.183,108786,t,0,0,0
5:02.236,108805,),0,0,2
5:02.494,108898,(,0,0,1
5:02.531,108911,N,0,0,0
5:02.553,108919,),0,0,1
5:03.128,109126,(,0,0,2
5:03.153,109135,t,0,0,0
5:03.192,109149,),0,0,2
5:03.325,109197,(,0,0,1
5:03.500,109260,N,0,0,0
5:03.503,109261,),0,0,1
5:03.506,109262,t,0,0,2
5:03.672,109322,),0,0,2
5:03.786,109363,(,0,0,1
5:03.842,109383,N,0,0,0
5:03.867,109392,),0,0,1
5:03.889,109400,(,0,0,2
5:04.044,109456,t,0,0,0
5:04.136,109489,),0,0,2
5:04.142,109491,(,0,0,1
5:04.442,109599,N,0,0,0
5:04.444,109600,),0,0,1
5:04.447,109601,t,0,0,2
5:04.503,109621,),0,0,2
5:04.506,109622,(,0,0,1
5:04.739,109706,N,0,0,0
5:04.739,109706,),0,0,1
5:04.742,109707,t,0,0,2
5:04.853,109747,),0,0,2
5:04.856,109748,(,0,0,1
5:05.006,109802,N,0,0,0
5:05.044,109816,),0,0,1
5:05.047,109817,t,0,0,2
5:05.172,109862,),0,0,2
5:05.175,109863,(,0,0,1
5:05.294,109906,N,0,0,0
5:05.297,109907,),0,0,1
5:05.300,109908,t,0,0,2
5:05.481,109973,),0,0,2
5:05.483,109974,(,0,0,1
5:05.611,110020,N,0,0,0
5:05.653,110035,),0,0,1
5:05.669,110041,(,0,0,2
5:05.706,110054,t,0,0,0
5:05.792,110085,),0,0,2
5:05.794,110086,(,0,0,1
5:05.900,110124,N,0,0,0
5:05.900,110124,),0,0,1
5:06.347,110285,(,0,0,2
5:06.378,110296,t,0,0,0
5:06.414,110309,),0,0,2
5:25.592,117213,(,0,0,1
5:25.614,117221,N,0,0,0
5:25.636,117229,),0,0,1
5:26.217,117438,(,0,0,2
5:26.247,117449,t,0,0,0
5:26.281,117461,),0,0,2
5:31.433,119316,(,0,0,1
5:31.456,119324,N,0,0,0
5:31.508,119343,),0,0,1
5:32.083,119550,(,0,0,2
5:32.114,119561,t,0,0,0
5:32.150,119574,),0,0,2
5:55.222,127880,(,0,0,1
5:55.244,127888,N,0,0,0
5:55.317,127914,),0,0,1
5:55.472,127970,(,0,0,2
5:55.519,127987,t,0,0,0
5:55.586,128011,),0,0,2
5:55.889,128120,(,0,0,1
5:55.911,128128,N,0,0,0
5:55.933,128136,),0,0,1
5:56.544,128356,(,0,0,2
5:56.578,128368,t,0,0,0
5:56.617,128382,),0,0,2
6:03.125,130725,(,0,0,1
6:03.183,130746,N,0,0,0
6:03.186,130747,),0,0,1
6:03.244,130768,(,0,0,2
6:03.411,130828,t,0,0,0
6:03.583,130890,),0,0,2
6:06.661,131998,(,0,0,1
6:06.681,132005,N,0,0,0
6:06.703,132013,),0,0,1
6:07.300,132228,(,0,0,2
6:07.331,132239,t,0,0,0
6:07.369,132253,),0,0,2
6:09.275,132939,(,0,0,1
6:09.300,132948,N,0,0,0
6:09.358,132969,),0,0,1
6:09.917,133170,(,0,0,2
6:09.947,133181,t,0,0,0
6:09.983,133194,),0,0,2
6:11.906,133886,(,0,0,1
6:11.931,133895,N,0,0,0
6:11.989,133916,),0,0,1
6:12.581,134129,(,0,0,2
6:12.611,134140,t,0,0,0
6:12.647,134153,),0,0,2
6:24.383,138378,(,0,0,1
6:24.406,138386,N,0,0,0
6:24.428,138394,),0,0,1
6:25.025,138609,(,0,0,2
6:25.056,138620,t,0,0,0
6:25.092,138633,),0,0,2
6:27.003,139321,(,0,0,1
6:27.022,139328,N,0,0,0
6:27.047,139337,),0,0,1
6:27.264,139415,(,0,0,2
6:27.306,139430,t,0,0,0
6:27.364,139451,),0,0,2
6:27.653,139555,(,0,0,1
6:27.678,139564,N,0,0,0
6:27.703,139573,),0,0,1
6:27.906,139646,(,0,0,2
6:27.958,139665,t,0,0,0
6:28.033,139692,),0,0,2
6:28.292,139785,(,0,0,1
6:28.314,139793,N,0,0,0
6:28.336,139801,),0,0,1
6:28.553,139879,(,0,0,2
6:28.600,139896,t,0,0,0
6:28.672,139922,),0,0,2
6:28.942,140019,(,0,0,1
6:28.964,140027,N,0,0,0
6:28.989,140036,),0,0,1
6:29.206,140114,(,0,0,2
6:29.258,140133,t,0,0,0
6:29.314,140153,),0,0,2
6:29.611,140260,(,0,0,1
6:29.636,140269,N,0,0,0
6:29.664,140279,),0,0,1
6:29.875,140355,(,0,0,2
6:29.922,140372,t,0,0,0
6:30.006,140402,),0,0,2
6:30.258,140493,(,0,0,1
6:30.283,140502,N,0,0,0
6:30.306,140510,),0,0,1
6:30.528,140590,(,0,0,2
6:30.575,140607,t,0,0,0
6:30.633,140628,),0,0,2
6:30.911,140728,(,0,0,1
6:30.933,140736,N,0,0,0
6:30.958,140745,),0,0,1
6:31.167,140820,(,0,0,2
6:31.217,140838,t,0,0,0
6:31.283,140862,),0,0,2
6:31.556,140960,(,0,0,1
6:31.583,140970,N,0,0,0
6:31.608,140979,),0,0,1
6:31.814,141053,(,0,0,2
6:31.867,141072,t,0,0,0
6:31.917,141090,),0,0,2
6:32.200,141192,(,0,0,1
6:32.231,141203,N,0,0,0
6:32.253,141211,),0,0,1
6:32.839,141422,(,0,0,2
6:32.872,141434,t,0,0,0
6:32.914,141449,),0,0,2
6:33.506,141662,(,0,0,1
6:33.533,141672,N,0,0,0
6:33.558,141681,),0,0,1
6:33.775,141759,(,0,0,2
6:33.828,141778,t,0,0,0
6:33.911,141808,),0,0,2
6:34.178,141904,(,0,0,1
6:34.206,141914,N,0,0,0
6:34.233,141924,),0,0,1
6:34.439,141998,(,0,0,2
6:34.492,142017,t,0,0,0
6:34.572,142046,),0,0,2
6:34.822,142136,(,0,0,1
6:34.853,142147,N,0,0,0
6:34.878,142156,),0,0,1
6:35.094,142234,(,0,0,2
6:35.139,142250,t,0,0,0
6:35.181,142265,),0,0,2
6:35.472,142370,(,0,0,1
6:35.500,142380,N,0,0,0
6:35.522,142388,),0,0,1
6:36.114,142601,(,0,0,2
6:36.147,142613,t,0,0,0
6:36.189,142628,),0,0,2
6:36.794,142846,(,0,0,1
6:36.825,142857,N,0,0,0
6:36.850,142866,),0,0,1
6:37.439,143078,(,0,0,2
6:37.472,143090,t,0,0,0
6:37.514,143105,),0,0,2
6:38.106,143318,(,0,0,1
6:38.133,143328,N,0,0,0
6:38.158,143337,),0,0,1
6:38.356,143408,(,0,0,2
6:38.408,143427,t,0,0,0
6:38.481,143453,),0,0,2
6:38.753,143551,(,0,0,1
6:38.781,143561,N,0,0,0
6:38.806,143570,),0,0,1
6:39.014,143645,(,0,0,2
6:39.061,143662,t,0,0,0
6:39.144,143692,),0,0,2
6:39.408,143787,(,0,0,1
6:39.433,143796,N,0,0,0
6:39.458,143805,),0,0,1
6:39.669,143881,(,0,0,2
6:39.719,143899,t,0,0,0
6:39.781,143921,),0,0,2
6:40.056,144020,(,0,0,1
6:40.078,144028,N,0,0,0
6:40.103,144037,),0,0,1
6:40.317,144114,(,0,0,2
6:40.372,144134,t,0,0,0
6:40.461,144166,),0,0,2
6:40.722,144260,(,0,0,1
6:40.747,144269,N,0,0,0
6:40.769,144277,),0,0,1
6:41.389,144500,(,0,0,2
6:41.419,144511,t,0,0,0
6:41.458,144525,),0,0,2
6:42.692,144969,(,0,0,1
6:42.714,144977,N,0,0,0
6:42.736,144985,),0,0,1
6:42.944,145060,(,0,0,2
6:42.994,145078,t,0,0,0
6:43.078,145108,),0,0,2
6:43.344,145204,(,0,0,1
6:43.367,145212,N,0,0,0
6:43.419,145231,),0,0,1
6:43.608,145299,(,0,0,2
6:43.661,145318,t,0,0,0
6:43.722,145340,),0,0,2
6:44.019,145447,(,0,0,1
6:44.042,145455,N,0,0,0
6:44.064,145463,),0,0,1
6:44.664,145679,(,0,0,2
6:44.697,145691,t,0,0,0
6:44.736,145705,),0,0,2
6:45.322,145916,(,0,0,1
6:45.344,145924,N,0,0,0
6:45.367,145932,),0,0,1
6:45.567,146004,(,0,0,2
6:45.619,146023,t,0,0,0
6:45.697,146051,),0,0,2
6:45.961,146146,(,0,0,1
6:45.986,146155,N,0,0,0
6:46.011,146164,),0,0,1
6:46.600,146376,(,0,0,2
6:46.633,146388,t,0,0,0
6:46.675,146403,),0,0,2
6:47.922,146852,(,0,0,1
6:47.944,146860,N,0,0,0
6:47.972,146870,),0,0,1
6:48.186,146947,(,0,0,2
6:48.231,146963,t,0,0,0
6:48.319,146995,),0,0,2
6:48.586,147091,(,0,0,1
6:48.608,147099,N,0,0,0
6:48.636,147109,),0,0,1
6:49.217,147318,(,0,0,2
6:49.250,147330,t,0,0,0
6:49.292,147345,),0,0,2
6:51.850,148266,(,0,0,1
6:51.872,148274,N,0,0,0
6:51.894,148282,),0,0,1
6:52.486,148495,(,0,0,2
6:52.519,148507,t,0,0,0
6:52.564,148523,),0,0,2
6:58.319,150595,(,0,0,1
6:58.350,150606,N,0,0,0
6:58.375,150615,),0,0,1
6:58.583,150690,(,0,0,2
6:58.642,150711,t,0,0,0
6:58.708,150735,),0,0,2
6:58.975,150831,(,0,0,1
6:58.997,150839,N,0,0,0
6:59.022,150848,),0,0,1
6:59.617,151062,(,0,0,2
6:59.647,151073,t,0,0,0
6:59.689,151088,),0,0,2
7:00.900,151524,(,0,0,1
7:00.928,151534,N,0,0,0
7:00.953,151543,),0,0,1
7:01.158,151617,(,0,0,2
7:01.217,151638,t,0,0,0
7:01.294,151666,),0,0,2
7:01.544,151756,(,0,0,1
7:01.567,151764,N,0,0,0
7:01.592,151773,),0,0,1
7:02.189,151988,(,0,0,2
7:02.219,151999,t,0,0,0
7:02.258,152013,),0,0,2
7:04.775,152919,(,0,0,1
7:04.806,152930,N,0,0,0
7:04.831,152939,),0,0,1
7:05.031,153011,(,0,0,2
7:05.092,153033,t,0,0,0
7:05.142,153051,),0,0,2
7:05.433,153156,(,0,0,1
7:05.456,153164,N,0,0,0
7:05.478,153172,),0,0,1
7:06.083,153390,(,0,0,2
7:06.114,153401,t,0,0,0
7:06.156,153416,),0,0,2
7:08.011,154084,(,0,0,1
7:08.036,154093,N,0,0,0
7:08.061,154102,),0,0,1
7:08.272,154178,(,0,0,2
7:08.322,154196,t,0,0,0
7:08.406,154226,),0,0,2
7:08.656,154316,(,0,0,1
7:08.678,154324,N,0,0,0
7:08.700,154332,),0,0,1
7:09.286,154543,(,0,0,2
7:09.317,154554,t,0,0,0
7:09.358,154569,),0,0,2
7:17.722,157580,(,0,0,1
7:17.742,157587,N,0,0,0
7:17.764,157595,),0,0,1
7:17.975,157671,(,0,0,2
7:18.028,157690,t,0,0,0
7:18.097,157715,),0,0,2
7:18.367,157812,(,0,0,1
7:18.389,157820,N,0,0,0
7:18.411,157828,),0,0,1
7:18.622,157904,(,0,0,2
7:18.669,157921,t,0,0,0
7:18.739,157946,),0,0,2
7:19.000,158040,(,0,0,1
7:19.019,158047,N,0,0,0
7:19.042,158055,),0,0,1
7:19.644,158272,(,0,0,2
7:19.678,158284,t,0,0,0
7:19.714,158297,),0,0,2
7:20.956,158744,(,0,0,1
7:20.981,158753,N,0,0,0
7:21.003,158761,),0,0,1
7:21.214,158837,(,0,0,2
7:21.258,158853,t,0,0,0
7:21.336,158881,),0,0,2
7:21.583,158970,(,0,0,1
7:21.606,158978,N,0,0,0
7:21.628,158986,),0,0,1
7:21.847,159065,(,0,0,2
7:21.894,159082,t,0,0,0
7:21.975,159111,),0,0,2
7:22.225,159201,(,0,0,1
7:22.244,159208,N,0,0,0
7:22.267,159216,),0,0,1
7:22.858,159429,(,0,0,2
7:22.889,159440,t,0,0,0
7:22.925,159453,),0,0,2
7:24.150,159894,(,0,0,1
7:24.172,159902,N,0,0,0
7:24.194,159910,),0,0,1
7:24.408,159987,(,0,0,2
7:24.467,160008,t,0,0,0
7:24.547,160037,),0,0,2
7:24.803,160129,(,0,0,1
7:24.825,160137,N,0,0,0
7:24.844,160144,),0,0,1
7:25.422,160352,(,0,0,2
7:25.453,160363,t,0,0,0
7:25.489,160376,),0,0,2
7:28.006,161282,(,0,0,1
7:28.028,161290,N,0,0,0
7:28.083,161310,),0,0,1
7:28.269,161377,(,0,0,2
7:28.325,161397,t,0,0,0
7:28.383,161418,),0,0,2
7:28.650,161514,(,0,0,1
7:28.669,161521,N,0,0,0
7:28.689,161528,),0,0,1
7:29.278,161740,(,0,0,2
7:29.308,161751,t,0,0,0
7:29.344,161764,),0,0,2
7:31.217,162438,(,0,0,1
7:31.239,162446,N,0,0,0
7:31.261,162454,),0,0,1
7:31.872,162674,(,0,0,2
7:31.900,162684,t,0,0,0
7:31.939,162698,),0,0,2
7:33.781,163361,(,0,0,1
7:33.800,163368,N,0,0,0
7:33.822,163376,),0,0,1
7:34.042,163455,(,0,0,2
7:34.097,163475,t,0,0,0
7:34.153,163495,),0,0,2
7:34.436,163597,(,0,0,1
7:34.458,163605,N,0,0,0
7:34.481,163613,),0,0,1
7:35.067,163824,(,0,0,2
7:35.097,163835,t,0,0,0
7:35.133,163848,),0,0,2
7:37.614,164741,(,0,0,1
7:37.636,164749,N,0,0,0
7:37.689,164768,),0,0,1
7:38.256,164972,(,0,0,2
7:38.286,164983,t,0,0,0
7:38.322,164996,),0,0,2
7:40.844,165904,(,0,0,1
7:40.869,165913,N,0,0,0
7:40.892,165921,),0,0,1
7:41.492,166137,(,0,0,2
7:41.522,166148,t,0,0,0
7:41.558,166161,),0,0,2
7:44.086,167071,(,0,0,1
7:44.108,167079,N,0,0,0
7:44.164,167099,),0,0,1
7:44.353,167167,(,0,0,2
7:44.397,167183,t,0,0,0
7:44.481,167213,),0,0,2
7:44.728,167302,(,0,0,1
7:44.750,167310,N,0,0,0
7:44.814,167333,),0,0,1
7:45.367,167532,(,0,0,2
7:45.397,167543,t,0,0,0
7:45.436,167557,),0,0,2
7:47.317,168234,(,0,0,1
7:47.339,168242,N,0,0,0
7:47.361,168250,),0,0,1
7:47.567,168324,(,0,0,2
7:47.622,168344,t,0,0,0
7:47.678,168364,),0,0,2
7:47.944,168460,(,0,0,1
7:47.969,168469,N,0,0,0
7:47.992,168477,),0,0,1
7:48.589,168692,(,0,0,2
7:48.619,168703,t,0,0,0
7:48.658,168717,),0,0,2
7:50.536,169393,(,0,0,1
7:50.558,169401,N,0,0,0
7:50.581,169409,),0,0,1
7:50.797,169487,(,0,0,2
7:50.847,169505,t,0,0,0
7:50.903,169525,),0,0,2
7:51.175,169623,(,0,0,1
7:51.200,169632,N,0,0,0
7:51.222,169640,),0,0,1
7:51.819,169855,(,0,0,2
7:51.850,169866,t,0,0,0
7:51.886,169879,),0,0,2
7:53.783,170562,(,0,0,1
7:53.806,170570,N,0,0,0
7:53.828,170578,),0,0,1
7:54.039,170654,(,0,0,2
7:54.089,170672,t,0,0,0
7:54.167,170700,),0,0,2
7:54.431,170795,(,0,0,1
7:54.453,170803,N,0,0,0
7:54.472,170810,),0,0,1
7:55.050,171018,(,0,0,2
7:55.081,171029,t,0,0,0
7:55.119,171043,),0,0,2
7:57.022,171728,(,0,0,1
7:57.044,171736,N,0,0,0
7:57.069,171745,),0,0,1
7:57.272,171818,(,0,0,2
7:57.322,171836,t,0,0,0
7:57.419,171871,),0,0,2
7:57.647,171953,(,0,0,1
7:57.669,171961,N,0,0,0
7:57.689,171968,),0,0,1
7:57.903,172045,(,0,0,2
7:57.956,172064,t,0,0,0
7:58.019,172087,),0,0,2
7:58.283,172182,(,0,0,1
7:58.306,172190,N,0,0,0
7:58.328,172198,),0,0,1
7:58.542,172275,(,0,0,2
7:58.589,172292,t,0,0,0
7:58.675,172323,),0,0,2
7:58.928,172414,(,0,0,1
7:58.947,172421,N,0,0,0
7:59.003,172441,),0,0,1
7:59.178,172504,(,0,0,2
7:59.228,172522,t,0,0,0
7:59.297,172547,),0,0,2
7:59.564,172643,(,0,0,1
7:59.586,172651,N,0,0,0
7:59.642,172671,),0,0,1
7:59.828,172738,(,0,0,2
7:59.881,172757,t,0,0,0
7:59.936,172777,),0,0,2
8:00.214,172877,(,0,0,1
8:00.236,172885,N,0,0,0
8:00.258,172893,),0,0,1
8:00.472,172970,(,0,0,2
8:00.525,172989,t,0,0,0
8:00.603,173017,),0,0,2
8:00.869,173113,(,0,0,1
8:00.889,173120,N,0,0,0
8:00.942,173139,),0,0,1
8:01.122,173204,(,0,0,2
8:01.169,173221,t,0,0,0
8:01.233,173244,),0,0,2
8:01.500,173340,(,0,0,1
8:01.522,173348,N,0,0,0
8:01.544,173356,),0,0,1
8:02.128,173566,(,0,0,2
8:02.158,173577,t,0,0,0
8:02.197,173591,),0,0,2
8:03.464,174047,(,0,0,1
8:03.489,174056,N,0,0,0
8:03.547,174077,),0,0,1
8:03.719,174139,(,0,0,2
8:03.778,174160,t,0,0,0
8:03.853,174187,),0,0,2
8:04.111,174280,(,0,0,1
8:04.136,174289,N,0,0,0
8:04.158,174297,),0,0,1
8:04.383,174378,(,0,0,2
8:04.431,174395,t,0,0,0
8:04.503,174421,),0,0,2
8:04.761,174514,(,0,0,1
8:04.783,174522,N,0,0,0
8:04.803,174529,),0,0,1
8:05.392,174741,(,0,0,2
8:05.422,174752,t,0,0,0
8:05.461,174766,),0,0,2
8:06.697,175211,(,0,0,1
8:06.719,175219,N,0,0,0
8:06.742,175227,),0,0,1
8:06.953,175303,(,0,0,2
8:07.014,175325,t,0,0,0
8:07.092,175353,),0,0,2
8:07.350,175446,(,0,0,1
8:07.372,175454,N,0,0,0
8:07.394,175462,),0,0,1
8:07.619,175543,(,0,0,2
8:07.669,175561,t,0,0,0
8:07.744,175588,),0,0,2
8:08.011,175684,(,0,0,1
8:08.033,175692,N,0,0,0
8:08.092,175713,),0,0,1
8:08.264,175775,(,0,0,2
8:08.311,175792,t,0,0,0
8:08.375,175815,),0,0,2
8:08.644,175912,(,0,0,1
8:08.667,175920,N,0,0,0
8:08.731,175943,),0,0,1
8:08.906,176006,(,0,0,2
8:08.958,176025,t,0,0,0
8:09.011,176044,),0,0,2
8:09.283,176142,(,0,0,1
8:09.306,176150,N,0,0,0
8:09.367,176172,),0,0,1
8:09.536,176233,(,0,0,2
8:09.586,176251,t,0,0,0
8:09.639,176270,),0,0,2
8:09.928,176374,(,0,0,1
8:09.950,176382,N,0,0,0
8:09.969,176389,),0,0,1
8:10.197,176471,(,0,0,2
8:10.242,176487,t,0,0,0
8:10.311,176512,),0,0,2
8:10.586,176611,(,0,0,1
8:10.608,176619,N,0,0,0
8:10.628,176626,),0,0,1
8:10.853,176707,(,0,0,2
8:10.900,176724,t,0,0,0
8:10.967,176748,),0,0,2
8:11.225,176841,(,0,0,1
8:11.250,176850,N,0,0,0
8:11.272,176858,),0,0,1
8:11.867,177072,(,0,0,2
8:11.897,177083,t,0,0,0
8:11.933,177096,),0,0,2
8:13.156,177536,(,0,0,1
8:13.183,177546,N,0,0,0
8:13.206,177554,),0,0,1
8:13.417,177630,(,0,0,2
8:13.469,177649,t,0,0,0
8:13.517,177666,),0,0,2
8:13.797,177767,(,0,0,1
8:13.819,177775,N,0,0,0
8:13.842,177783,),0,0,1
8:14.064,177863,(,0,0,2
8:14.119,177883,t,0,0,0
8:14.175,177903,),0,0,2
8:14.456,178004,(,0,0,1
8:14.478,178012,N,0,0,0
8:14.500,178020,),0,0,1
8:15.111,178240,(,0,0,2
8:15.142,178251,t,0,0,0
8:15.178,178264,),0,0,2
8:15.767,178476,(,0,0,1
8:15.789,178484,N,0,0,0
8:15.811,178492,),0,0,1
8:16.033,178572,(,0,0,2
8:16.086,178591,t,0,0,0
8:16.150,178614,),0,0,2
8:16.414,178709,(,0,0,1
8:16.436,178717,N,0,0,0
8:16.456,178724,),0,0,1
8:16.669,178801,(,0,0,2
8:16.719,178819,t,0,0,0
8:16.781,178841,),0,0,2
8:17.053,178939,(,0,0,1
8:17.078,178948,N,0,0,0
8:17.097,178955,),0,0,1
8:17.700,179172,(,0,0,2
8:17.731,179183,t,0,0,0
8:17.769,179197,),0,0,2
8:26.036,182173,(,0,0,1
8:26.061,182182,N,0,0,0
8:26.081,182189,),0,0,1
8:26.306,182270,(,0,0,2
8:26.353,182287,t,0,0,0
8:26.419,182311,),0,0,2
8:26.667,182400,(,0,0,1
8:26.689,182408,N,0,0,0
8:26.711,182416,),0,0,1
8:27.292,182625,(,0,0,2
8:27.322,182636,t,0,0,0
8:27.358,182649,),0,0,2
8:28.592,183093,(,0,0,1
8:28.614,183101,N,0,0,0
8:28.636,183109,),0,0,1
8:28.858,183189,(,0,0,2
8:28.908,183207,t,0,0,0
8:28.975,183231,),0,0,2
8:29.236,183325,(,0,0,1
8:29.261,183334,N,0,0,0
8:29.281,183341,),0,0,1
8:29.506,183422,(,0,0,2
8:29.556,183440,t,0,0,0
8:29.622,183464,),0,0,2
8:29.883,183558,(,0,0,1
8:29.906,183566,N,0,0,0
8:29.928,183574,),0,0,1
8:30.511,183784,(,0,0,2
8:30.542,183795,t,0,0,0
8:30.581,183809,),0,0,2
8:31.797,184247,(,0,0,1
8:31.819,184255,N,0,0,0
8:31.842,184263,),0,0,1
8:32.067,184344,(,0,0,2
8:32.114,184361,t,0,0,0
8:32.194,184390,),0,0,2
8:32.458,184485,(,0,0,1
8:32.481,184493,N,0,0,0
8:32.536,184513,),0,0,1
8:32.717,184578,(,0,0,2
8:32.767,184596,t,0,0,0
8:32.853,184627,),0,0,2
8:33.089,184712,(,0,0,1
8:33.111,184720,N,0,0,0
8:33.133,184728,),0,0,1
8:33.711,184936,(,0,0,2
8:33.742,184947,t,0,0,0
8:33.778,184960,),0,0,2
8:35.656,185636,(,0,0,1
8:35.678,185644,N,0,0,0
8:35.733,185664,),0,0,1
8:35.917,185730,(,0,0,2
8:35.972,185750,t,0,0,0
8:36.033,185772,),0,0,2
8:36.308,185871,(,0,0,1
8:36.331,185879,N,0,0,0
8:36.353,185887,),0,0,1
8:36.583,185970,(,0,0,2
8:36.633,185988,t,0,0,0
8:36.703,186013,),0,0,2
8:36.975,186111,(,0,0,1
8:36.997,186119,N,0,0,0
8:37.056,186140,),0,0,1
8:37.603,186337,(,0,0,2
8:37.633,186348,t,0,0,0
8:37.669,186361,),0,0,2
8:43.411,188428,(,0,0,1
8:43.433,188436,N,0,0,0
8:43.456,188444,),0,0,1
8:43.658,188517,(,0,0,2
8:43.719,188539,t,0,0,0
8:43.797,188567,),0,0,2
8:44.053,188659,(,0,0,1
8:44.075,188667,N,0,0,0
8:44.097,188675,),0,0,1
8:44.661,188878,(,0,0,2
8:44.694,188890,t,0,0,0
8:44.731,188903,),0,0,2
8:47.822,190016,(,0,0,1
8:47.844,190024,N,0,0,0
8:47.867,190032,),0,0,1
8:48.419,190231,(,0,0,2
8:48.450,190242,t,0,0,0
8:48.486,190255,),0,0,2
8:50.300,190908,(,0,0,1
8:50.322,190916,N,0,0,0
8:50.347,190925,),0,0,1
8:50.922,191132,(,0,0,2
8:50.953,191143,t,0,0,0
8:50.989,191156,),0,0,2
8:52.797,191807,(,0,0,1
8:52.819,191815,N,0,0,0
8:52.872,191834,),0,0,1
8:53.417,192030,(,0,0,2
8:53.447,192041,t,0,0,0
8:53.483,192054,),0,0,2
8:55.936,192937,(,0,0,1
8:55.958,192945,N,0,0,0
8:55.981,192953,),0,0,1
8:56.547,193157,(,0,0,2
8:56.578,193168,t,0,0,0
8:56.614,193181,),0,0,2
9:12.053,198739,(,0,0,1
9:12.067,198744,N,0,0,0
9:12.097,198755,),0,0,1
9:12.308,198831,(,0,0,2
9:12.361,198850,t,0,0,0
9:12.447,198881,),0,0,2
9:12.719,198979,(,0,0,1
9:12.742,198987,N,0,0,0
9:12.764,198995,),0,0,1
9:13.356,199208,(,0,0,2
9:13.386,199219,t,0,0,0
9:13.425,199233,),0,0,2
9:14.681,199685,(,0,0,1
9:14.703,199693,N,0,0,0
9:14.756,199712,),0,0,1
9:14.939,199778,(,0,0,2
9:14.994,199798,t,0,0,0
9:15.078,199828,),0,0,2
9:15.350,199926,(,0,0,1
9:15.372,199934,N,0,0,0
9:15.394,199942,),0,0,1
9:15.625,200025,(,0,0,2
9:15.678,200044,t,0,0,0
9:15.747,200069,),0,0,2
9:16.017,200166,(,0,0,1
9:16.036,200173,N,0,0,0
9:16.092,200193,),0,0,1
9:16.675,200403,(,0,0,2
9:16.706,200414,t,0,0,0
9:16.742,200427,),0,0,2
9:17.328,200638,(,0,0,1
9:17.350,200646,N,0,0,0
9:17.372,200654,),0,0,1
9:17.964,200867,(,0,0,2
9:17.994,200878,t,0,0,0
9:18.031,200891,),0,0,2
9:18.519,201067,(,0,0,1
9:18.681,201125,N,0,0,0
9:18.731,201143,),0,0,1
9:19.269,201337,(,0,0,2
9:19.300,201348,t,0,0,0
9:19.344,201364,),0,0,2
9:23.839,202982,(,0,0,1
9:23.864,202991,N,0,0,0
9:23.883,202998,),0,0,1
9:24.469,203209,(,0,0,2
9:24.500,203220,t,0,0,0
9:24.539,203234,),0,0,2
9:27.108,204159,(,0,0,1
9:27.133,204168,N,0,0,0
9:27.156,204176,),0,0,1
9:27.353,204247,(,0,0,2
9:27.425,204273,t,0,0,0
9:27.492,204297,),0,0,2
9:27.767,204396,(,0,0,1
9:27.792,204405,N,0,0,0
9:27.817,204414,),0,0,1
9:28.408,204627,(,0,0,2
9:28.442,204639,t,0,0,0
9:28.478,204652,),0,0,2
9:58.514,215465,(,0,0,1
9:58.539,215474,N,0,0,0
9:58.561,215482,),0,0,1
9:59.169,215701,(,0,0,2
9:59.200,215712,t,0,0,0
9:59.239,215726,),0,0,2
10:01.761,216634,(,0,0,1
10:01.783,216642,N,0,0,0
10:01.806,216650,),0,0,1
10:02.403,216865,(,0,0,2
10:02.433,216876,t,0,0,0
10:02.472,216890,),0,0,2
10:03.725,217341,(,0,0,1
10:03.747,217349,N,0,0,0
10:03.769,217357,),0,0,1
10:04.369,217573,(,0,0,2
10:04.397,217583,t,0,0,0
10:04.433,217596,),0,0,2
10:33.658,228117,(,0,0,1
10:33.678,228124,N,0,0,0
10:33.733,228144,),0,0,1
10:33.922,228212,(,0,0,2
10:33.964,228227,t,0,0,0
10:34.036,228253,),0,0,2
10:34.297,228347,(,0,0,1
10:34.319,228355,N,0,0,0
10:34.375,228375,),0,0,1
10:34.944,228580,(,0,0,2
10:34.975,228591,t,0,0,0
10:35.011,228604,),0,0,2
10:38.786,229963,(,0,0,1
10:38.808,229971,N,0,0,0
10:38.869,229993,),0,0,1
10:39.433,230196,(,0,0,2
10:39.464,230207,t,0,0,0
10:39.503,230221,),0,0,2
10:40.078,230428,(,0,0,1
10:40.100,230436,N,0,0,0
10:40.125,230445,),0,0,1
10:40.544,230596,(,0,0,2
10:40.581,230609,t,0,0,1
10:40.789,230684,),0,0,2
10:41.994,231118,(,0,0,1
10:42.042,231135,N,0,0,0
10:42.067,231144,),0,0,1
10:42.647,231353,(,0,0,2
10:42.678,231364,t,0,0,0
10:42.711,231376,),0,0,2
10:58.925,237213,(,0,0,1
10:58.950,237222,N,0,0,0
10:58.972,237230,),0,0,1
10:59.575,237447,(,0,0,2
10:59.606,237458,t,0,0,0
10:59.642,237471,),0,0,2
11:02.258,238413,(,0,0,1
11:02.283,238422,N,0,0,0
11:02.306,238430,),0,0,1
11:02.522,238508,(,0,0,2
11:02.575,238527,t,0,0,0
11:02.636,238549,),0,0,2
11:02.936,238657,(,0,0,1
11:02.958,238665,N,0,0,0
11:03.019,238687,),0,0,1
11:03.203,238753,(,0,0,2
11:03.256,238772,t,0,0,0
11:03.328,238798,),0,0,2
11:03.633,238908,(,0,0,1
11:03.656,238916,N,0,0,0
11:03.675,238923,),0,0,1
11:03.906,239006,(,0,0,2
11:03.953,239023,t,0,0,0
11:04.011,239044,),0,0,2
11:04.300,239148,(,0,0,1
11:04.325,239157,N,0,0,0
11:04.347,239165,),0,0,1
11:04.575,239247,(,0,0,2
11:04.628,239266,t,0,0,0
11:04.711,239296,),0,0,2
11:04.981,239393,(,0,0,1
11:05.000,239400,N,0,0,0
11:05.053,239419,),0,0,1
11:05.236,239485,(,0,0,2
11:05.289,239504,t,0,0,0
11:05.356,239528,),0,0,2
11:05.644,239632,(,0,0,1
11:05.664,239639,N,0,0,0
11:05.683,239646,),0,0,1
11:05.897,239723,(,0,0,2
11:05.953,239743,t,0,0,0
11:06.019,239767,),0,0,2
11:06.319,239875,(,0,0,1
11:06.342,239883,N,0,0,0
11:06.364,239891,),0,0,1
11:06.581,239969,(,0,0,2
11:06.631,239987,t,0,0,0
11:06.686,240007,),0,0,2
11:06.975,240111,(,0,0,1
11:06.997,240119,N,0,0,0
11:07.019,240127,),0,0,1
11:07.250,240210,(,0,0,2
11:07.300,240228,t,0,0,0
11:07.386,240259,),0,0,2
11:07.650,240354,(,0,0,1
11:07.672,240362,N,0,0,0
11:07.697,240371,),0,0,1
11:07.919,240451,(,0,0,2
11:07.969,240469,t,0,0,0
11:08.047,240497,),0,0,2
11:08.322,240596,(,0,0,1
11:08.344,240604,N,0,0,0
11:08.367,240612,),0,0,1
11:08.581,240689,(,0,0,2
11:08.631,240707,t,0,0,0
11:08.714,240737,),0,0,2
11:08.981,240833,(,0,0,1
11:09.000,240840,N,0,0,0
11:09.022,240848,),0,0,1
11:09.244,240928,(,0,0,2
11:09.292,240945,t,0,0,0
11:09.347,240965,),0,0,2
11:09.631,241067,(,0,0,1
11:09.653,241075,N,0,0,0
11:09.675,241083,),0,0,1
11:09.875,241155,(,0,0,2
11:09.939,241178,t,0,0,0
11:09.989,241196,),0,0,2
11:10.292,241305,(,0,0,1
11:10.311,241312,N,0,0,0
11:10.333,241320,),0,0,1
11:10.561,241402,(,0,0,2
11:10.611,241420,t,0,0,0
11:10.667,241440,),0,0,2
11:10.967,241548,(,0,0,1
11:10.989,241556,N,0,0,0
11:11.011,241564,),0,0,1
11:11.236,241645,(,0,0,2
11:11.286,241663,t,0,0,0
11:11.339,241682,),0,0,2
11:11.628,241786,(,0,0,1
11:11.650,241794,N,0,0,0
11:11.672,241802,),0,0,1
11:11.897,241883,(,0,0,2
11:11.947,241901,t,0,0,0
11:12.017,241926,),0,0,2
11:12.289,242024,(,0,0,1
11:12.308,242031,N,0,0,0
11:12.331,242039,),0,0,1
11:12.550,242118,(,0,0,2
11:12.603,242137,t,0,0,0
11:12.686,242167,),0,0,2
11:12.950,242262,(,0,0,1
11:12.969,242269,N,0,0,0
11:12.992,242277,),0,0,1
11:13.214,242357,(,0,0,2
11:13.264,242375,t,0,0,0
11:13.356,242408,),0,0,2
11:13.619,242503,(,0,0,1
11:13.642,242511,N,0,0,0
11:13.694,242530,),0,0,1
11:13.878,242596,(,0,0,2
11:13.922,242612,t,0,0,0
11:14.011,242644,),0,0,2
11:14.281,242741,(,0,0,1
11:14.303,242749,N,0,0,0
11:14.325,242757,),0,0,1
11:14.553,242839,(,0,0,2
11:14.603,242857,t,0,0,0
11:14.681,242885,),0,0,2
11:14.953,242983,(,0,0,1
11:14.975,242991,N,0,0,0
11:14.997,242999,),0,0,1
11:15.231,243083,(,0,0,2
11:15.278,243100,t,0,0,0
11:15.356,243128,),0,0,2
11:15.628,243226,(,0,0,1
11:15.650,243234,N,0,0,0
11:15.669,243241,),0,0,1
11:15.892,243321,(,0,0,2
11:15.942,243339,t,0,0,0
11:16.019,243367,),0,0,2
11:16.292,243465,(,0,0,1
11:16.314,243473,N,0,0,0
11:16.333,243480,),0,0,1
11:16.553,243559,(,0,0,2
11:16.603,243577,t,0,0,0
11:16.689,243608,),0,0,2
11:16.944,243700,(,0,0,1
11:16.967,243708,N,0,0,0
11:16.989,243716,),0,0,1
11:17.211,243796,(,0,0,2
11:17.264,243815,t,0,0,0
11:17.325,243837,),0,0,2
11:17.606,243938,(,0,0,1
11:17.631,243947,N,0,0,0
11:17.653,243955,),0,0,1
11:17.881,244037,(,0,0,2
11:17.928,244054,t,0,0,0
11:18.006,244082,),0,0,2
11:18.294,244186,(,0,0,1
11:18.317,244194,N,0,0,0
11:18.339,244202,),0,0,1
11:18.558,244281,(,0,0,2
11:18.606,244298,t,0,0,0
11:18.683,244326,),0,0,2
11:18.953,244423,(,0,0,1
11:18.975,244431,N,0,0,0
11:18.997,244439,),0,0,1
11:19.222,244520,(,0,0,2
11:19.272,244538,t,0,0,0
11:19.344,244564,),0,0,2
11:19.608,244659,(,0,0,1
11:19.631,244667,N,0,0,0
11:19.650,244674,),0,0,1
11:19.881,244757,(,0,0,2
11:19.922,244772,t,0,0,0
11:19.994,244798,),0,0,2
11:20.264,244895,(,0,0,1
11:20.283,244902,N,0,0,0
11:20.303,244909,),0,0,1
11:20.519,244987,(,0,0,2
11:20.575,245007,t,0,0,0
11:20.636,245029,),0,0,2
11:20.931,245135,(,0,0,1
11:20.953,245143,N,0,0,0
11:20.972,245150,),0,0,1
11:21.181,245225,(,0,0,2
11:21.228,245242,t,0,0,0
11:21.297,245267,),0,0,2
11:21.581,245369,(,0,0,1
11:21.603,245377,N,0,0,0
11:21.625,245385,),0,0,1
11:21.847,245465,(,0,0,2
11:21.900,245484,t,0,0,0
11:21.967,245508,),0,0,2
11:22.244,245608,(,0,0,1
11:22.272,245618,N,0,0,0
11:22.294,245626,),0,0,1
11:22.522,245708,(,0,0,2
11:22.572,245726,t,0,0,0
11:22.633,245748,),0,0,2
11:22.911,245848,(,0,0,1
11:22.933,245856,N,0,0,0
11:22.956,245864,),0,0,1
11:23.169,245941,(,0,0,2
11:23.219,245959,t,0,0,0
11:23.303,245989,),0,0,2
11:23.578,246088,(,0,0,1
11:23.597,246095,N,0,0,0
11:23.619,246103,),0,0,1
11:23.831,246179,(,0,0,2
11:23.881,246197,t,0,0,0
11:23.964,246227,),0,0,2
11:24.225,246321,(,0,0,1
11:24.247,246329,N,0,0,0
11:24.269,246337,),0,0,1
11:24.486,246415,(,0,0,2
11:24.544,246436,t,0,0,0
11:24.606,246458,),0,0,2
11:24.897,246563,(,0,0,1
11:24.919,246571,N,0,0,0
11:24.942,246579,),0,0,1
11:25.172,246662,(,0,0,2
11:25.222,246680,t,0,0,0
11:25.294,246706,),0,0,2
11:25.578,246808,(,0,0,1
11:25.600,246816,N,0,0,0
11:25.619,246823,),0,0,1
11:25.831,246899,(,0,0,2
11:25.883,246918,t,0,0,0
11:25.961,246946,),0,0,2
11:26.242,247047,(,0,0,1
11:26.264,247055,N,0,0,0
11:26.286,247063,),0,0,1
11:26.500,247140,(,0,0,2
11:26.556,247160,t,0,0,0
11:26.625,247185,),0,0,2
11:26.897,247283,(,0,0,1
11:26.917,247290,N,0,0,0
11:26.969,247309,),0,0,1
11:27.164,247379,(,0,0,2
11:27.211,247396,t,0,0,0
11:27.289,247424,),0,0,2
11:27.558,247521,(,0,0,1
11:27.581,247529,N,0,0,0
11:27.603,247537,),0,0,1
11:27.822,247616,(,0,0,2
11:27.878,247636,t,0,0,0
11:27.933,247656,),0,0,2
11:28.228,247762,(,0,0,1
11:28.247,247769,N,0,0,0
11:28.269,247777,),0,0,1
11:28.489,247856,(,0,0,2
11:28.536,247873,t,0,0,0
11:28.600,247896,),0,0,2
11:28.892,248001,(,0,0,1
11:28.917,248010,N,0,0,0
11:28.936,248017,),0,0,1
11:29.158,248097,(,0,0,2
11:29.211,248116,t,0,0,0
11:29.292,248145,),0,0,2
11:29.564,248243,(,0,0,1
11:29.586,248251,N,0,0,0
11:29.608,248259,),0,0,1
11:29.831,248339,(,0,0,2
11:29.883,248358,t,0,0,0
11:29.969,248389,),0,0,2
11:30.231,248483,(,0,0,1
11:30.253,248491,N,0,0,0
11:30.275,248499,),0,0,1
11:30.494,248578,(,0,0,2
11:30.544,248596,t,0,0,0
11:30.631,248627,),0,0,2
11:30.900,248724,(,0,0,1
11:30.919,248731,N,0,0,0
11:30.942,248739,),0,0,1
11:31.153,248815,(,0,0,2
11:31.206,248834,t,0,0,0
11:31.294,248866,),0,0,2
11:31.550,248958,(,0,0,1
11:31.572,248966,N,0,0,0
11:31.594,248974,),0,0,1
11:31.819,249055,(,0,0,2
11:31.869,249073,t,0,0,0
11:31.931,249095,),0,0,2
11:32.219,249199,(,0,0,1
11:32.242,249207,N,0,0,0
11:32.264,249215,),0,0,1
11:32.489,249296,(,0,0,2
11:32.542,249315,t,0,0,0
11:32.628,249346,),0,0,2
11:32.900,249444,(,0,0,1
11:32.919,249451,N,0,0,0
11:32.939,249458,),0,0,1
11:33.150,249534,(,0,0,2
11:33.208,249555,t,0,0,0
11:33.278,249580,),0,0,2
11:33.564,249683,(,0,0,1
11:33.583,249690,N,0,0,0
11:33.606,249698,),0,0,1
11:33.817,249774,(,0,0,2
11:33.864,249791,t,0,0,0
11:33.936,249817,),0,0,2
11:34.217,249918,(,0,0,1
11:34.239,249926,N,0,0,0
11:34.261,249934,),0,0,1
11:34.481,250013,(,0,0,2
11:34.528,250030,t,0,0,0
11:34.597,250055,),0,0,2
11:34.872,250154,(,0,0,1
11:34.894,250162,N,0,0,0
11:34.917,250170,),0,0,1
11:35.144,250252,(,0,0,2
11:35.192,250269,t,0,0,0
11:35.269,250297,),0,0,2
11:35.539,250394,(,0,0,1
11:35.561,250402,N,0,0,0
11:35.581,250409,),0,0,1
11:35.803,250489,(,0,0,2
11:35.853,250507,t,0,0,0
11:35.936,250537,),0,0,2
11:36.211,250636,(,0,0,1
11:36.236,250645,N,0,0,0
11:36.256,250652,),0,0,1
11:36.475,250731,(,0,0,2
11:36.525,250749,t,0,0,0
11:36.628,250786,),0,0,2
11:36.889,250880,(,0,0,1
11:36.914,250889,N,0,0,0
11:36.936,250897,),0,0,1
11:37.161,250978,(,0,0,2
11:37.211,250996,t,0,0,0
11:37.286,251023,),0,0,2
11:37.550,251118,(,0,0,1
11:37.575,251127,N,0,0,0
11:37.631,251147,),0,0,1
11:37.817,251214,(,0,0,2
11:37.867,251232,t,0,0,0
11:37.936,251257,),0,0,2
11:38.217,251358,(,0,0,1
11:38.239,251366,N,0,0,0
11:38.303,251389,),0,0,1
11:38.864,251591,(,0,0,2
11:38.894,251602,t,0,0,0
11:38.933,251616,),0,0,2
11:40.897,252323,(,0,0,1
11:40.919,252331,N,0,0,0
11:40.942,252339,),0,0,1
11:41.150,252414,(,0,0,2
11:41.200,252432,t,0,0,0
11:41.267,252456,),0,0,2
11:41.547,252557,(,0,0,1
11:41.569,252565,N,0,0,0
11:41.592,252573,),0,0,1
11:41.808,252651,(,0,0,2
11:41.853,252667,t,0,0,0
11:41.919,252691,),0,0,2
11:42.200,252792,(,0,0,1
11:42.222,252800,N,0,0,0
11:42.244,252808,),0,0,1
11:42.472,252890,(,0,0,2
11:42.525,252909,t,0,0,0
11:42.586,252931,),0,0,2
11:42.858,253029,(,0,0,1
11:42.881,253037,N,0,0,0
11:42.903,253045,),0,0,1
11:43.125,253125,(,0,0,2
11:43.172,253142,t,0,0,0
11:43.269,253177,),0,0,2
11:43.539,253274,(,0,0,1
11:43.558,253281,N,0,0,0
11:43.581,253289,),0,0,1
11:43.800,253368,(,0,0,2
11:43.853,253387,t,0,0,0
11:43.939,253418,),0,0,2
11:44.217,253518,(,0,0,1
11:44.242,253527,N,0,0,0
11:44.264,253535,),0,0,1
11:44.483,253614,(,0,0,2
11:44.533,253632,t,0,0,0
11:44.611,253660,),0,0,2
11:44.883,253758,(,0,0,1
11:44.906,253766,N,0,0,0
11:44.928,253774,),0,0,1
11:45.153,253855,(,0,0,2
11:45.200,253872,t,0,0,0
11:45.269,253897,),0,0,2
11:45.547,253997,(,0,0,1
11:45.569,254005,N,0,0,0
11:45.592,254013,),0,0,1
11:45.803,254089,(,0,0,2
11:45.856,254108,t,0,0,0
11:45.933,254136,),0,0,2
11:46.208,254235,(,0,0,1
11:46.228,254242,N,0,0,0
11:46.281,254261,),0,0,1
11:46.469,254329,(,0,0,2
11:46.522,254348,t,0,0,0
11:46.606,254378,),0,0,2
11:46.886,254479,(,0,0,1
11:46.908,254487,N,0,0,0
11:46.933,254496,),0,0,1
11:47.158,254577,(,0,0,2
11:47.211,254596,t,0,0,0
11:47.278,254620,),0,0,2
11:47.569,254725,(,0,0,1
11:47.589,254732,N,0,0,0
11:47.608,254739,),0,0,1
11:47.836,254821,(,0,0,2
11:47.886,254839,t,0,0,0
11:47.950,254862,),0,0,2
11:48.236,254965,(,0,0,1
11:48.258,254973,N,0,0,0
11:48.314,254993,),0,0,1
11:48.483,255054,(,0,0,2
11:48.533,255072,t,0,0,0
11:48.631,255107,),0,0,2
11:48.886,255199,(,0,0,1
11:48.911,255208,N,0,0,0
11:48.933,255216,),0,0,1
11:49.142,255291,(,0,0,2
11:49.192,255309,t,0,0,0
11:49.261,255334,),0,0,2
11:49.544,255436,(,0,0,1
11:49.567,255444,N,0,0,0
11:49.589,255452,),0,0,1
11:49.814,255533,(,0,0,2
11:49.861,255550,t,0,0,0
11:49.942,255579,),0,0,2
11:50.203,255673,(,0,0,1
11:50.225,255681,N,0,0,0
11:50.247,255689,),0,0,1
11:50.472,255770,(,0,0,2
11:50.528,255790,t,0,0,0
11:50.592,255813,),0,0,2
11:50.881,255917,(,0,0,1
11:50.900,255924,N,0,0,0
11:50.922,255932,),0,0,1
11:51.142,256011,(,0,0,2
11:51.197,256031,t,0,0,0
11:51.286,256063,),0,0,2
11:51.558,256161,(,0,0,1
11:51.581,256169,N,0,0,0
11:51.642,256191,),0,0,1
11:51.817,256254,(,0,0,2
11:51.869,256273,t,0,0,0
11:51.947,256301,),0,0,2
11:52.219,256399,(,0,0,1
11:52.242,256407,N,0,0,0
11:52.264,256415,),0,0,1
11:52.486,256495,(,0,0,2
11:52.533,256512,t,0,0,0
11:52.597,256535,),0,0,2
11:52.875,256635,(,0,0,1
11:52.897,256643,N,0,0,0
11:52.919,256651,),0,0,1
11:53.136,256729,(,0,0,2
11:53.186,256747,t,0,0,0
11:53.247,256769,),0,0,2
11:53.533,256872,(,0,0,1
11:53.556,256880,N,0,0,0
11:53.578,256888,),0,0,1
11:53.806,256970,(,0,0,2
11:53.856,256988,t,0,0,0
11:53.947,257021,),0,0,2
11:54.214,257117,(,0,0,1
11:54.239,257126,N,0,0,0
11:54.261,257134,),0,0,1
11:54.483,257214,(,0,0,2
11:54.533,257232,t,0,0,0
11:54.611,257260,),0,0,2
11:54.883,257358,(,0,0,1
11:54.903,257365,N,0,0,0
11:54.925,257373,),0,0,1
11:55.150,257454,(,0,0,2
11:55.200,257472,t,0,0,0
11:55.250,257490,),0,0,2
11:55.547,257597,(,0,0,1
11:55.569,257605,N,0,0,0
11:55.589,257612,),0,0,1
11:55.803,257689,(,0,0,2
11:55.853,257707,t,0,0,0
11:55.908,257727,),0,0,2
11:56.197,257831,(,0,0,1
11:56.219,257839,N,0,0,0
11:56.242,257847,),0,0,1
11:56.453,257923,(,0,0,2
11:56.503,257941,t,0,0,0
11:56.581,257969,),0,0,2
11:56.856,258068,(,0,0,1
11:56.878,258076,N,0,0,0
11:56.936,258097,),0,0,1
11:57.117,258162,(,0,0,2
11:57.167,258180,t,0,0,0
11:57.247,258209,),0,0,2
11:57.508,258303,(,0,0,1
11:57.531,258311,N,0,0,0
11:57.553,258319,),0,0,1
11:57.778,258400,(,0,0,2
11:57.831,258419,t,0,0,0
11:57.911,258448,),0,0,2
11:58.181,258545,(,0,0,1
11:58.200,258552,N,0,0,0
11:58.222,258560,),0,0,1
11:58.453,258643,(,0,0,2
11:58.503,258661,t,0,0,0
11:58.589,258692,),0,0,2
11:58.858,258789,(,0,0,1
11:58.881,258797,N,0,0,0
11:58.903,258805,),0,0,1
11:59.111,258880,(,0,0,2
11:59.164,258899,t,0,0,0
11:59.256,258932,),0,0,2
11:59.514,259025,(,0,0,1
11:59.536,259033,N,0,0,0
11:59.556,259040,),0,0,1
12:00.153,259255,(,0,0,2
12:00.183,259266,t,0,0,0
12:00.219,259279,),0,0,2
12:00.828,259498,(,0,0,1
12:00.853,259507,N,0,0,0
12:00.875,259515,),0,0,1
12:01.106,259598,(,0,0,2
12:01.153,259615,t,0,0,0
12:01.222,259640,),0,0,2
12:01.519,259747,(,0,0,1
12:01.542,259755,N,0,0,0
12:01.564,259763,),0,0,1
12:01.783,259842,(,0,0,2
12:01.836,259861,t,0,0,0
12:01.897,259883,),0,0,2
12:02.189,259988,(,0,0,1
12:02.211,259996,N,0,0,0
12:02.231,260003,),0,0,1
12:02.456,260084,(,0,0,2
12:02.508,260103,t,0,0,0
12:02.594,260134,),0,0,2
12:02.858,260229,(,0,0,1
12:02.881,260237,N,0,0,0
12:02.903,260245,),0,0,1
12:03.119,260323,(,0,0,2
12:03.169,260341,t,0,0,0
12:03.236,260365,),0,0,2
12:03.525,260469,(,0,0,1
12:03.547,260477,N,0,0,0
12:03.569,260485,),0,0,1
12:03.786,260563,(,0,0,2
12:03.842,260583,t,0,0,0
12:03.919,260611,),0,0,2
12:04.203,260713,(,0,0,1
12:04.228,260722,N,0,0,0
12:04.247,260729,),0,0,1
12:04.458,260805,(,0,0,2
12:04.508,260823,t,0,0,0
12:04.594,260854,),0,0,2
12:04.864,260951,(,0,0,1
12:04.889,260960,N,0,0,0
12:04.911,260968,),0,0,1
12:05.139,261050,(,0,0,2
