Elapsedtime,sample,Type,Sub,Chan,Num
0:00.794,286,(,0,0,1
0:00.975,351,N,0,0,0
0:01.311,472,),0,0,1
0:01.392,501,(,0,0,2
0:01.531,551,t,0,0,0
0:01.667,600,),0,0,2
0:02.272,818,(,0,0,1
0:02.319,835,N,0,0,0
0:02.386,859,),0,0,1
0:02.544,916,t,0,0,2
0:02.714,977,),0,0,2
0:02.861,1030,(,0,0,0
0:02.903,1045,p,0,0,0
0:02.950,1062,),0,0,0
0:02.953,1063,(,0,0,1
0:02.997,1079,N,0,0,0
0:03.156,1136,),0,0,1
0:03.158,1137,t,0,0,2
0:03.339,1202,),0,0,2
0:04.183,1506,(,0,0,0
0:04.244,1528,p,0,0,0
0:04.331,1559,),0,0,0
0:04.350,1566,(,0,0,1
0:04.408,1587,N,0,0,0
0:04.475,1611,),0,0,1
0:04.581,1649,t,0,0,2
0:04.789,1724,),0,0,2
0:04.842,1743,(,0,0,0
0:04.878,1756,p,0,0,0
0:04.964,1787,),0,0,0
0:04.992,1797,(,0,0,1
0:05.061,1822,N,0,0,0
0:05.117,1842,),0,0,1
0:05.214,1877,t,0,0,2
0:05.508,1983,),0,0,2
0:06.406,2306,(,0,0,1
0:06.506,2342,N,0,0,0
0:06.569,2365,),0,0,1
0:06.675,2403,(,0,0,2
0:06.906,2486,t,0,0,0
0:06.983,2514,),0,0,2
0:07.158,2577,(,0,0,1
0:07.206,2594,N,0,0,0
0:07.269,2617,),0,0,1
0:07.436,2677,t,0,0,2
0:07.572,2726,),0,0,2
0:08.597,3095,(,0,0,1
0:08.642,3111,N,0,0,0
0:08.706,3134,),0,0,1
0:08.808,3171,(,0,0,2
0:09.061,3262,t,0,0,0
0:09.097,3275,),0,0,2
0:10.672,3842,(,0,0,1
0:10.714,3857,N,0,0,0
0:10.764,3875,),0,0,1
0:10.881,3917,(,0,0,2
0:11.111,4000,t,0,0,0
0:11.153,4015,),0,0,2
0:12.833,4620,(,0,0,1
0:12.881,4637,N,0,0,0
0:12.947,4661,),0,0,1
0:13.056,4700,(,0,0,2
0:13.308,4791,t,0,0,0
0:13.339,4802,),0,0,2
0:14.978,5392,(,0,0,1
0:15.022,5408,N,0,0,0
0:15.086,5431,),0,0,1
0:15.203,5473,(,0,0,2
0:15.431,5555,t,0,0,0
0:15.472,5570,),0,0,2
0:17.064,6143,(,0,0,1
0:17.111,6160,N,0,0,0
0:17.175,6183,),0,0,1
0:17.303,6229,(,0,0,2
0:17.514,6305,t,0,0,0
0:17.575,6327,),0,0,2
0:17.639,6350,(,0,0,0
0:17.706,6374,p,0,0,0
0:17.750,6390,),0,0,0
0:17.753,6391,(,0,0,1
0:17.872,6434,N,0,0,0
0:18.231,6563,),0,0,1
0:19.228,6922,(,0,0,1
0:19.272,6938,N,0,0,0
0:19.339,6962,),0,0,1
0:19.461,7006,(,0,0,2
0:19.714,7097,t,0,0,0
0:19.750,7110,),0,0,2
0:19.906,7166,(,0,0,1
0:19.978,7192,N,0,0,0
0:20.050,7218,),0,0,1
0:21.344,7684,(,0,0,1
0:21.386,7699,N,0,0,0
0:21.422,7712,),0,0,1
0:21.600,7776,(,0,0,2
0:21.781,7841,t,0,0,0
0:21.828,7858,),0,0,2
0:21.994,7918,(,0,0,1
0:22.139,7970,N,0,0,0
0:22.417,8070,),0,0,1
0:22.433,8076,(,0,0,2
0:22.644,8152,t,0,0,0
0:22.806,8210,),0,0,2
0:23.311,8392,(,0,0,0
0:23.336,8401,p,0,0,0
0:23.375,8415,),0,0,0
0:23.389,8420,(,0,0,1
0:23.433,8436,N,0,0,0
0:23.497,8459,),0,0,1
0:23.647,8513,(,0,0,2
0:23.856,8588,t,0,0,0
0:23.883,8598,),0,0,2
0:23.919,8611,(,0,0,0
0:23.939,8618,p,0,0,0
0:24.047,8657,),0,0,0
0:24.092,8673,(,0,0,1
0:24.222,8720,N,0,0,0
0:24.525,8829,),0,0,1
0:24.772,8918,t,0,0,3
0:24.964,8987,),0,0,2
0:25.544,9196,(,0,0,1
0:25.594,9214,N,0,0,0
0:25.661,9238,),0,0,1
0:25.778,9280,(,0,0,2
0:25.986,9355,t,0,0,0
0:26.053,9379,),0,0,2
0:26.056,9380,(,0,0,0
0:26.064,9383,p,0,0,0
0:26.183,9426,),0,0,0
0:26.211,9436,(,0,0,1
0:26.381,9497,N,0,0,0
0:26.675,9603,),0,0,1
0:27.589,9932,(,0,0,1
0:27.633,9948,N,0,0,0
0:27.697,9971,),0,0,1
0:27.706,9974,(,0,0,2
0:27.756,9992,t,0,0,4
0:28.044,10096,t,0,0,4
0:28.086,10111,),0,0,2
0:28.150,10134,(,0,0,0
0:28.233,10164,p,0,0,0
0:28.275,10179,),0,0,0
0:28.278,10180,(,0,0,1
0:28.325,10197,N,0,0,0
0:28.394,10222,),0,0,1
0:28.561,10282,t,0,0,2
0:28.683,10326,),0,0,2
0:29.631,10667,(,0,0,1
0:29.689,10688,N,0,0,0
0:29.753,10711,),0,0,1
0:29.886,10759,t,0,0,2
0:30.081,10829,),0,0,2
0:30.142,10851,(,0,0,0
0:30.164,10859,p,0,0,0
0:30.275,10899,),0,0,0
0:30.317,10914,(,0,0,1
0:30.389,10940,N,0,0,0
0:30.564,11003,),0,0,1
0:30.667,11040,(,0,0,2
0:30.808,11091,t,0,0,0
0:30.850,11106,),0,0,2
0:31.733,11424,(,0,0,1
0:31.806,11450,N,0,0,0
0:31.869,11473,),0,0,1
0:32.014,11525,t,0,0,2
0:32.189,11588,),0,0,2
0:32.342,11643,(,0,0,0
0:32.394,11662,p,0,0,0
0:32.447,11681,),0,0,0
0:32.450,11682,(,0,0,1
0:32.564,11723,N,0,0,0
0:32.842,11823,),0,0,1
0:32.867,11832,(,0,0,2
0:33.064,11903,t,0,0,0
0:33.194,11950,),0,0,2
0:33.833,12180,(,0,0,1
0:33.878,12196,N,0,0,0
0:33.939,12218,),0,0,1
0:34.103,12277,t,0,0,2
0:34.278,12340,),0,0,2
0:34.294,12346,(,0,0,0
0:34.314,12353,p,0,0,0
0:34.450,12402,),0,0,0
0:34.481,12413,(,0,0,1
0:34.550,12438,N,0,0,0
0:34.597,12455,),0,0,1
0:34.683,12486,(,0,0,2
0:34.928,12574,t,0,0,0
0:34.967,12588,),0,0,2
0:35.878,12916,(,0,0,1
0:35.933,12936,N,0,0,0
0:36.003,12961,),0,0,1
0:36.117,13002,t,0,0,2
0:36.364,13091,),0,0,2
0:36.383,13098,(,0,0,0
0:36.458,13125,p,0,0,0
0:36.561,13162,),0,0,0
0:36.592,13173,(,0,0,1
0:36.669,13201,N,0,0,0
0:36.858,13269,),0,0,1
0:36.928,13294,(,0,0,2
0:37.064,13343,t,0,0,0
0:37.125,13365,),0,0,2
0:38.050,13698,(,0,0,1
0:38.100,13716,N,0,0,0
0:38.164,13739,),0,0,1
0:39.128,14086,(,0,0,1
0:39.233,14124,N,0,0,0
0:39.325,14157,),0,0,1
0:39.539,14234,(,0,0,2
0:39.611,14260,t,0,0,0
0:39.675,14283,),0,0,2
0:39.981,14393,(,0,0,0
0:40.117,14442,p,0,0,0
0:40.144,14452,),0,0,0
0:40.292,14505,(,0,0,1
0:40.336,14521,N,0,0,0
0:40.400,14544,),0,0,1
0:40.494,14578,t,0,0,2
0:40.614,14621,),0,0,2
0:40.733,14664,(,0,0,0
0:40.803,14689,p,0,0,0
0:40.908,14727,),0,0,0
0:40.933,14736,(,0,0,1
0:41.025,14769,N,0,0,0
0:41.286,14863,),0,0,1
0:41.311,14872,(,0,0,2
0:41.367,14892,t,0,0,4
0:41.419,14911,t,0,0,4
0:41.450,14922,),0,0,2
0:41.453,14923,(,0,0,1
0:41.714,15017,N,0,0,0
0:41.761,15034,),0,0,1
0:41.808,15051,(,0,0,2
0:41.942,15099,t,0,0,0
0:42.050,15138,),0,0,2
0:42.236,15205,(,0,0,1
0:42.258,15213,(,0,0,0
0:42.292,15225,p,0,0,0
0:42.297,15227,N,0,0,0
0:42.364,15251,),0,0,0
0:42.389,15260,(,0,0,1
0:42.439,15278,),0,0,1
0:42.669,15361,N,0,0,0
0:42.739,15386,),0,0,1
0:42.803,15409,(,0,0,2
0:42.822,15416,t,0,0,1
0:43.036,15493,),0,0,2
0:43.050,15498,(,0,0,0
0:43.100,15516,p,0,0,0
0:43.131,15527,),0,0,0
0:43.222,15560,(,0,0,1
0:43.439,15638,N,0,0,0
0:43.517,15666,),0,0,1
0:43.522,15668,(,0,0,2
0:43.550,15678,t,0,0,0
0:43.656,15716,),0,0,2
0:43.692,15729,(,0,0,1
0:43.842,15783,N,0,0,0
0:43.928,15814,),0,0,1
0:44.075,15867,(,0,0,2
0:44.197,15911,t,0,0,1
0:44.325,15957,),0,0,2
0:44.481,16013,(,0,0,1
0:44.522,16028,N,0,0,0
0:44.664,16079,),0,0,1
0:44.667,16080,(,0,0,0
0:44.778,16120,p,0,0,0
0:44.839,16142,),0,0,0
0:44.886,16159,N,0,0,0
0:44.889,16160,(,0,0,1
0:45.147,16253,),0,0,1
0:45.181,16265,(,0,0,2
0:45.206,16274,t,0,0,1
0:45.331,16319,),0,0,2
0:45.475,16371,(,0,0,1
0:45.528,16390,N,0,0,0
0:45.550,16398,(,0,0,0
0:45.653,16435,),0,0,1
0:45.667,16440,p,0,0,0
0:45.722,16460,),0,0,0
0:45.772,16478,(,0,0,1
0:45.831,16499,N,0,0,0
0:45.989,16556,),0,0,1
0:46.083,16590,(,0,0,1
0:46.147,16613,N,0,0,0
0:46.278,16660,),0,0,1
0:46.367,16692,(,0,0,1
0:46.453,16723,N,0,0,0
0:46.594,16774,),0,0,1
0:46.647,16793,t,0,0,3
0:46.739,16826,),0,0,2
0:46.744,16828,(,0,0,1
0:47.078,16948,N,0,0,0
0:47.236,17005,),0,0,1
0:47.328,17038,(,0,0,2
0:47.428,17074,t,0,0,1
0:47.642,17151,),0,0,2
0:47.658,17157,(,0,0,0
0:47.678,17164,p,0,0,0
0:47.711,17176,),0,0,0
0:47.744,17188,(,0,0,1
0:47.872,17234,N,0,0,0
0:48.044,17296,),0,0,1
0:48.117,17322,(,0,0,0
0:48.208,17355,p,0,0,0
0:48.239,17366,),0,0,0
0:48.306,17390,N,0,0,0
0:48.308,17391,(,0,0,1
0:48.508,17463,),0,0,1
0:48.542,17475,(,0,0,0
0:48.567,17484,p,0,0,0
0:48.625,17505,),0,0,0
0:48.642,17511,(,0,0,1
0:48.728,17542,N,0,0,0
0:48.819,17575,),0,0,1
0:48.919,17611,(,0,0,2
0:48.969,17629,t,0,0,1
0:49.072,17666,),0,0,2
0:49.092,17673,(,0,0,1
0:49.283,17742,N,0,0,0
0:49.431,17795,),0,0,1
0:49.439,17798,(,0,0,1
0:49.608,17859,N,0,0,0
0:49.778,17920,),0,0,1
0:49.783,17922,t,0,0,3
0:49.944,17980,),0,0,2
0:50.119,18043,(,0,0,1
0:50.214,18077,N,0,0,0
0:50.350,18126,),0,0,1
0:50.356,18128,t,0,0,2
0:50.408,18147,),0,0,2
0:50.472,18170,(,0,0,1
0:50.683,18246,N,0,0,0
0:50.753,18271,),0,0,1
0:50.811,18292,(,0,0,2
0:50.956,18344,t,0,0,0
0:51.017,18366,),0,0,2
0:52.236,18805,(,0,0,1
0:52.289,18824,N,0,0,0
0:52.361,18850,),0,0,1
0:52.453,18883,(,0,0,2
0:52.692,18969,t,0,0,0
0:52.967,19068,),0,0,2
0:54.117,19482,(,0,0,0
0:54.156,19496,p,0,0,0
0:54.183,19506,),0,0,0
0:54.325,19557,(,0,0,1
0:54.386,19579,N,0,0,0
0:54.453,19603,),0,0,1
0:54.983,19794,(,0,0,1
0:55.086,19831,N,0,0,0
0:55.217,19878,),0,0,1
0:55.253,19891,(,0,0,2
0:55.275,19899,t,0,0,0
0:55.300,19908,),0,0,2
0:55.350,19926,(,0,0,1
0:55.358,19929,(,0,0,0
0:55.453,19963,p,0,0,0
0:55.461,19966,N,0,0,0
0:55.536,19993,),0,0,0
0:55.592,20013,),0,0,1
0:55.631,20027,(,0,0,1
0:55.781,20081,N,0,0,0
0:55.889,20120,),0,0,1
0:55.953,20143,(,0,0,1
0:56.092,20193,N,0,0,0
0:56.219,20239,),0,0,1
0:56.281,20261,(,0,0,1
0:56.406,20306,N,0,0,0
0:56.406,20306,(,0,0,1
0:56.553,20359,),0,0,1
0:56.683,20406,N,0,0,0
0:56.686,20407,(,0,0,1
0:56.775,20439,),0,0,1
0:56.822,20456,(,0,0,0
0:56.908,20487,p,0,0,0
0:56.917,20490,N,0,0,0
0:56.997,20519,),0,0,0
0:57.017,20526,(,0,0,1
0:57.031,20531,),0,0,1
0:57.244,20608,N,0,0,0
0:57.328,20638,),0,0,1
0:57.383,20658,(,0,0,1
0:57.550,20718,N,0,0,0
0:57.672,20762,),0,0,1
0:57.706,20774,(,0,0,2
0:57.839,20822,t,0,0,0
0:57.939,20858,),0,0,2
0:58.008,20883,(,0,0,1
0:58.122,20924,(,0,0,0
0:58.156,20936,p,0,0,0
0:58.178,20944,N,0,0,0
0:58.208,20955,),0,0,0
0:58.244,20968,),0,0,1
0:58.314,20993,(,0,0,1
0:58.461,21046,N,0,0,0
0:58.600,21096,),0,0,1
0:58.606,21098,t,0,0,2
0:58.731,21143,),0,0,2
0:58.733,21144,(,0,0,1
0:58.836,21181,N,0,0,0
0:58.958,21225,),0,0,1
0:59.094,21274,(,0,0,1
0:59.183,21306,N,0,0,0
0:59.331,21359,),0,0,1
0:59.425,21393,(,0,0,1
0:59.558,21441,N,0,0,0
0:59.692,21489,),0,0,1
0:59.697,21491,(,0,0,2
0:59.725,21501,t,0,0,0
0:59.753,21511,),0,0,2
0:59.808,21531,(,0,0,0
0:59.894,21562,p,0,0,0
0:59.956,21584,),0,0,0
0:59.958,21585,(,0,0,1
1:00.014,21605,N,0,0,0
1:00.094,21634,),0,0,1
1:00.144,21652,(,0,0,2
1:00.239,21686,t,0,0,0
1:00.581,21809,),0,0,2
1:01.200,22032,(,0,0,0
1:01.250,22050,p,0,0,0
1:01.356,22088,),0,0,0
1:01.381,22097,(,0,0,1
1:01.436,22117,N,0,0,0
1:01.508,22143,),0,0,1
1:02.089,22352,(,0,0,1
1:02.167,22380,N,0,0,0
1:02.269,22417,),0,0,1
1:02.300,22428,(,0,0,2
1:02.425,22473,t,0,0,0
1:02.458,22485,),0,0,2
1:02.628,22546,(,0,0,0
1:02.706,22574,p,0,0,0
1:02.800,22608,),0,0,0
1:02.858,22629,(,0,0,1
1:02.953,22663,N,0,0,0
1:03.003,22681,),0,0,1
1:03.067,22704,t,0,0,2
1:03.211,22756,),0,0,2
1:03.300,22788,(,0,0,0
1:03.361,22810,p,0,0,0
1:03.478,22852,),0,0,0
1:03.506,22862,(,0,0,1
1:03.558,22881,N,0,0,0
1:03.617,22902,),0,0,1
1:03.664,22919,(,0,0,2
1:03.858,22989,t,0,0,0
1:04.139,23090,),0,0,2
1:04.322,23156,(,0,0,1
1:04.369,23173,N,0,0,0
1:04.433,23196,),0,0,1
1:04.486,23215,t,0,0,2
1:04.619,23263,),0,0,2
1:04.986,23395,(,0,0,0
1:05.092,23433,p,0,0,0
1:05.153,23455,),0,0,0
1:05.228,23482,(,0,0,1
1:05.281,23501,N,0,0,0
1:05.344,23524,),0,0,1
1:05.400,23544,(,0,0,2
1:05.614,23621,t,0,0,0
1:05.647,23633,),0,0,2
1:05.828,23698,(,0,0,1
1:05.953,23743,N,0,0,0
1:06.017,23766,),0,0,1
1:06.189,23828,t,0,0,2
1:06.444,23920,),0,0,2
1:06.881,24077,(,0,0,0
1:06.903,24085,p,0,0,0
1:06.986,24115,),0,0,0
1:07.111,24160,(,0,0,1
1:07.158,24177,N,0,0,0
1:07.225,24201,),0,0,1
1:07.269,24217,t,0,0,2
1:07.500,24300,),0,0,2
1:07.708,24375,(,0,0,0
1:07.817,24414,p,0,0,0
1:07.836,24421,),0,0,0
1:07.886,24439,(,0,0,1
1:07.908,24447,N,0,0,0
1:08.011,24484,),0,0,1
1:08.100,24516,(,0,0,1
1:08.150,24534,N,0,0,0
1:08.214,24557,),0,0,1
1:08.258,24573,t,0,0,2
1:08.428,24634,),0,0,2
1:09.019,24847,(,0,0,1
1:09.069,24865,N,0,0,0
1:09.131,24887,),0,0,1
1:09.158,24897,t,0,0,2
1:09.331,24959,),0,0,2
1:09.661,25078,(,0,0,0
1:09.686,25087,p,0,0,0
1:09.736,25105,),0,0,0
1:09.908,25167,(,0,0,1
1:09.953,25183,N,0,0,0
1:10.014,25205,),0,0,1
1:10.053,25219,(,0,0,2
1:10.244,25288,t,0,0,0
1:10.531,25391,),0,0,2
1:10.769,25477,(,0,0,1
1:10.819,25495,N,0,0,0
1:10.881,25517,),0,0,1
1:11.233,25644,(,0,0,0
1:11.256,25652,p,0,0,0
1:11.386,25699,),0,0,0
1:11.414,25709,(,0,0,1
1:11.539,25754,N,0,0,0
1:11.597,25775,),0,0,1
1:12.411,26068,(,0,0,0
1:12.508,26103,p,0,0,0
1:12.589,26132,),0,0,0
1:12.622,26144,(,0,0,1
1:12.672,26162,N,0,0,0
1:12.736,26185,),0,0,1
1:12.814,26213,t,0,0,2
1:12.964,26267,),0,0,2
1:13.289,26384,(,0,0,0
1:13.325,26397,p,0,0,0
1:13.419,26431,),0,0,0
1:13.436,26437,(,0,0,1
1:13.464,26447,N,0,0,0
1:13.500,26460,),0,0,1
1:13.553,26479,t,0,0,2
1:13.822,26576,),0,0,2
1:14.428,26794,(,0,0,1
1:14.469,26809,N,0,0,0
1:14.536,26833,),0,0,1
1:14.625,26865,t,0,0,2
1:14.797,26927,),0,0,2
1:15.036,27013,(,0,0,1
1:15.144,27052,N,0,0,0
1:15.200,27072,),0,0,1
1:15.267,27096,(,0,0,2
1:15.311,27112,t,0,0,1
1:15.672,27242,),0,0,2
1:16.228,27442,(,0,0,1
1:16.272,27458,N,0,0,0
1:16.342,27483,),0,0,1
1:16.442,27519,(,0,0,2
1:16.625,27585,t,0,0,0
1:16.856,27668,),0,0,2
1:16.875,27675,(,0,0,0
1:16.950,27702,p,0,0,0
1:17.025,27729,),0,0,0
1:17.131,27767,(,0,0,1
1:17.178,27784,N,0,0,0
1:17.239,27806,),0,0,1
1:17.325,27837,t,0,0,2
1:17.450,27882,),0,0,2
1:17.572,27926,(,0,0,0
1:17.600,27936,p,0,0,0
1:17.733,27984,),0,0,0
1:17.764,27995,(,0,0,1
1:17.878,28036,N,0,0,0
1:17.939,28058,),0,0,1
1:17.981,28073,(,0,0,2
1:17.992,28077,t,0,0,1
1:18.006,28082,),0,0,2
1:18.022,28088,(,0,0,1
1:18.306,28190,N,0,0,0
1:18.458,28245,),0,0,1
1:18.494,28258,t,0,0,2
1:18.744,28348,),0,0,2
1:19.653,28675,(,0,0,0
1:19.678,28684,p,0,0,0
1:19.711,28696,),0,0,0
1:19.725,28701,(,0,0,1
1:19.767,28716,N,0,0,0
1:19.833,28740,),0,0,1
1:19.922,28772,(,0,0,2
1:20.136,28849,t,0,0,0
1:20.222,28880,),0,0,2
1:20.367,28932,(,0,0,0
1:20.381,28937,p,0,0,0
1:20.442,28959,),0,0,0
1:20.456,28964,(,0,0,1
1:20.558,29001,N,0,0,0
1:20.653,29035,),0,0,1
1:20.667,29040,(,0,0,2
1:20.764,29075,t,0,0,0
1:20.786,29083,),0,0,2
1:21.658,29397,(,0,0,0
1:21.706,29414,p,0,0,0
1:21.736,29425,),0,0,0
1:21.769,29437,(,0,0,1
1:21.817,29454,N,0,0,0
1:21.883,29478,),0,0,1
1:21.967,29508,(,0,0,2
1:22.164,29579,t,0,0,0
1:22.311,29632,),0,0,2
1:22.858,29829,(,0,0,1
1:22.906,29846,N,0,0,0
1:22.964,29867,),0,0,1
1:23.033,29892,(,0,0,2
1:23.194,29950,t,0,0,0
1:23.231,29963,),0,0,2
1:23.461,30046,(,0,0,1
1:23.575,30087,N,0,0,0
1:23.631,30107,),0,0,1
1:24.839,30542,(,0,0,1
1:24.906,30566,N,0,0,0
1:24.972,30590,),0,0,1
1:25.319,30715,(,0,0,0
1:25.469,30769,p,0,0,0
1:25.492,30777,),0,0,0
1:25.522,30788,(,0,0,1
1:25.633,30828,N,0,0,0
1:25.692,30849,),0,0,1
1:25.697,30851,(,0,0,2
1:25.800,30888,t,0,0,1
1:26.156,31016,),0,0,2
1:26.594,31174,(,0,0,0
1:26.619,31183,p,0,0,0
1:26.678,31204,),0,0,0
1:26.775,31239,(,0,0,1
1:26.836,31261,N,0,0,0
1:26.900,31284,),0,0,1
1:26.983,31314,t,0,0,2
1:27.175,31383,),0,0,2
1:27.528,31510,(,0,0,0
1:27.556,31520,p,0,0,0
1:27.589,31532,),0,0,0
1:27.769,31597,(,0,0,1
1:27.814,31613,N,0,0,0
1:27.875,31635,),0,0,1
1:27.903,31645,(,0,0,2
1:28.103,31717,t,0,0,0
1:28.375,31815,),0,0,2
1:28.686,31927,(,0,0,1
1:28.731,31943,N,0,0,0
1:28.786,31963,),0,0,1
1:28.892,32001,(,0,0,2
1:29.006,32042,t,0,0,0
1:29.317,32154,),0,0,2
1:29.625,32265,(,0,0,1
1:29.675,32283,N,0,0,0
1:29.739,32306,),0,0,1
1:29.767,32316,(,0,0,2
1:29.978,32392,t,0,0,0
1:30.267,32496,),0,0,2
1:30.608,32619,(,0,0,1
1:30.656,32636,N,0,0,0
1:30.717,32658,),0,0,1
1:30.786,32683,t,0,0,2
1:30.928,32734,),0,0,2
1:31.569,32965,(,0,0,1
1:31.622,32984,N,0,0,0
1:31.681,33005,),0,0,1
1:31.742,33027,(,0,0,2
1:31.911,33088,t,0,0,0
1:32.231,33203,),0,0,2
1:32.558,33321,(,0,0,1
1:32.606,33338,N,0,0,0
1:32.667,33360,),0,0,1
1:32.731,33383,(,0,0,2
1:32.892,33441,t,0,0,0
1:33.153,33535,),0,0,2
1:33.208,33555,(,0,0,1
1:33.342,33603,N,0,0,0
1:33.403,33625,),0,0,1
1:33.461,33646,(,0,0,2
1:33.519,33667,t,0,0,1
1:33.833,33780,),0,0,2
1:34.178,33904,(,0,0,0
1:34.206,33914,p,0,0,0
1:34.242,33927,),0,0,0
1:34.375,33975,(,0,0,1
1:34.431,33995,N,0,0,0
1:34.497,34019,),0,0,1
1:34.561,34042,t,0,0,2
1:34.739,34106,),0,0,2
1:35.358,34329,(,0,0,1
1:35.406,34346,N,0,0,0
1:35.467,34368,),0,0,1
1:35.506,34382,(,0,0,2
1:35.694,34450,t,0,0,0
1:35.975,34551,),0,0,2
1:36.356,34688,(,0,0,1
1:36.408,34707,N,0,0,0
1:36.469,34729,),0,0,1
1:36.506,34742,(,0,0,2
1:36.708,34815,t,0,0,0
1:37.036,34933,),0,0,2
1:37.153,34975,(,0,0,0
1:37.256,35012,p,0,0,0
1:37.314,35033,),0,0,0
1:37.381,35057,(,0,0,1
1:37.431,35075,N,0,0,0
1:37.494,35098,),0,0,1
1:38.336,35401,(,0,0,1
1:38.386,35419,N,0,0,0
1:38.447,35441,),0,0,1
1:38.503,35461,(,0,0,2
1:38.664,35519,t,0,0,0
1:38.961,35626,),0,0,2
1:38.975,35631,(,0,0,0
1:39.031,35651,p,0,0,0
1:39.083,35670,),0,0,0
1:39.283,35742,(,0,0,1
1:39.331,35759,N,0,0,0
1:39.392,35781,),0,0,1
1:39.458,35805,(,0,0,2
1:39.622,35864,t,0,0,0
1:39.917,35970,),0,0,2
1:39.931,35975,(,0,0,0
1:39.967,35988,p,0,0,0
1:40.042,36015,),0,0,0
1:40.242,36087,(,0,0,1
1:40.289,36104,N,0,0,0
1:40.350,36126,),0,0,1
1:40.417,36150,(,0,0,2
1:40.569,36205,t,0,0,0
1:40.847,36305,),0,0,2
1:40.942,36339,(,0,0,0
1:41.022,36368,p,0,0,0
1:41.044,36376,),0,0,0
1:41.167,36420,(,0,0,1
1:41.217,36438,N,0,0,0
1:41.281,36461,),0,0,1
1:41.317,36474,(,0,0,2
1:41.514,36545,t,0,0,0
1:41.783,36642,),0,0,2
1:42.144,36772,(,0,0,1
1:42.197,36791,N,0,0,0
1:42.258,36813,),0,0,1
1:42.306,36830,(,0,0,2
1:42.500,36900,t,0,0,0
1:42.781,37001,),0,0,2
1:42.822,37016,(,0,0,0
1:42.853,37027,p,0,0,0
1:42.889,37040,),0,0,0
1:43.133,37128,(,0,0,1
1:43.183,37146,N,0,0,0
1:43.244,37168,),0,0,1
1:43.306,37190,(,0,0,2
1:43.483,37254,t,0,0,0
1:43.758,37353,),0,0,2
1:44.117,37482,(,0,0,1
1:44.164,37499,N,0,0,0
1:44.225,37521,),0,0,1
1:44.275,37539,(,0,0,2
1:44.461,37606,t,0,0,0
1:44.739,37706,),0,0,2
1:44.772,37718,(,0,0,0
1:44.814,37733,p,0,0,0
1:44.894,37762,),0,0,0
1:45.083,37830,(,0,0,1
1:45.131,37847,N,0,0,0
1:45.189,37868,),0,0,1
1:45.244,37888,(,0,0,2
1:45.419,37951,t,0,0,0
1:45.681,38045,),0,0,2
1:46.008,38163,(,0,0,1
1:46.058,38181,N,0,0,0
1:46.117,38202,),0,0,1
1:46.183,38226,(,0,0,2
1:46.344,38284,t,0,0,0
1:46.614,38381,),0,0,2
1:46.633,38388,(,0,0,0
1:46.681,38405,p,0,0,0
1:46.719,38419,),0,0,0
1:46.917,38490,(,0,0,1
1:46.967,38508,N,0,0,0
1:47.022,38528,),0,0,1
1:47.047,38537,t,0,0,2
1:47.242,38607,),0,0,2
1:47.906,38846,(,0,0,1
1:47.961,38866,N,0,0,0
1:48.025,38889,),0,0,1
1:48.928,39214,(,0,0,1
1:48.981,39233,N,0,0,0
1:49.039,39254,),0,0,1
1:49.106,39278,(,0,0,2
1:49.294,39346,t,0,0,0
1:49.575,39447,),0,0,2
1:49.881,39557,(,0,0,1
1:49.928,39574,N,0,0,0
1:49.989,39596,),0,0,1
1:50.025,39609,(,0,0,2
1:50.228,39682,t,0,0,0
1:50.525,39789,),0,0,2
1:50.583,39810,(,0,0,0
1:50.611,39820,p,0,0,0
1:50.644,39832,),0,0,0
1:50.844,39904,(,0,0,1
1:50.894,39922,N,0,0,0
1:50.956,39944,),0,0,1
1:51.028,39970,(,0,0,2
1:51.192,40029,t,0,0,0
1:51.489,40136,),0,0,2
1:51.542,40155,(,0,0,0
1:51.567,40164,p,0,0,0
1:51.600,40176,),0,0,0
1:51.792,40245,(,0,0,1
1:51.842,40263,N,0,0,0
1:51.903,40285,),0,0,1
1:51.981,40313,(,0,0,2
1:52.142,40371,t,0,0,0
1:52.433,40476,),0,0,2
1:52.722,40580,(,0,0,1
1:52.772,40598,N,0,0,0
1:52.831,40619,),0,0,1
1:52.908,40647,t,0,0,2
1:53.064,40703,),0,0,2
1:53.700,40932,(,0,0,1
1:53.750,40950,N,0,0,0
1:53.808,40971,),0,0,1
1:54.672,41282,(,0,0,1
1:54.722,41300,N,0,0,0
1:54.786,41323,),0,0,1
1:54.881,41357,t,0,0,2
1:55.011,41404,),0,0,2
1:55.378,41536,(,0,0,0
1:55.414,41549,p,0,0,0
1:55.450,41562,),0,0,0
1:55.653,41635,(,0,0,1
1:55.703,41653,N,0,0,0
1:55.764,41675,),0,0,1
1:55.800,41688,(,0,0,2
1:56.011,41764,t,0,0,0
1:56.289,41864,),0,0,2
1:56.356,41888,(,0,0,0
1:56.394,41902,p,0,0,0
1:56.436,41917,),0,0,0
1:56.619,41983,(,0,0,1
1:56.664,41999,N,0,0,0
1:56.725,42021,),0,0,1
1:56.781,42041,(,0,0,2
1:56.967,42108,t,0,0,0
1:57.269,42217,),0,0,2
1:57.286,42223,(,0,0,0
1:57.311,42232,p,0,0,0
1:57.353,42247,),0,0,0
1:57.533,42312,(,0,0,1
1:57.583,42330,N,0,0,0
1:57.642,42351,),0,0,1
1:57.708,42375,(,0,0,2
1:57.869,42433,t,0,0,0
1:58.153,42535,),0,0,2
1:58.450,42642,(,0,0,1
1:58.497,42659,N,0,0,0
1:58.556,42680,),0,0,1
1:59.347,42965,(,0,0,1
1:59.400,42984,N,0,0,0
1:59.461,43006,),0,0,1
1:59.514,43025,t,0,0,2
1:59.689,43088,),0,0,2
2:00.039,43214,(,0,0,0
2:00.067,43224,p,0,0,0
2:00.117,43242,),0,0,0
2:00.317,43314,(,0,0,1
2:00.369,43333,N,0,0,0
2:00.433,43356,),0,0,1
2:00.494,43378,(,0,0,2
2:00.694,43450,t,0,0,0
2:01.017,43566,),0,0,2
2:01.036,43573,(,0,0,0
2:01.061,43582,p,0,0,0
2:01.100,43596,),0,0,0
2:01.294,43666,(,0,0,1
2:01.344,43684,N,0,0,0
2:01.408,43707,),0,0,1
2:01.478,43732,(,0,0,2
2:01.644,43792,t,0,0,0
2:01.944,43900,),0,0,2
2:01.958,43905,(,0,0,0
2:01.989,43916,p,0,0,0
2:02.031,43931,),0,0,0
2:02.222,44000,(,0,0,1
2:02.275,44019,N,0,0,0
2:02.336,44041,),0,0,1
2:02.403,44065,(,0,0,2
2:02.567,44124,t,0,0,0
2:02.867,44232,),0,0,2
2:02.883,44238,(,0,0,0
2:02.917,44250,p,0,0,0
2:02.964,44267,),0,0,0
2:03.153,44335,(,0,0,1
2:03.203,44353,N,0,0,0
2:03.264,44375,),0,0,1
2:03.317,44394,(,0,0,2
2:03.506,44462,t,0,0,0
2:03.797,44567,),0,0,2
2:03.817,44574,(,0,0,0
2:03.847,44585,p,0,0,0
2:03.886,44599,),0,0,0
2:04.083,44670,(,0,0,1
2:04.131,44687,N,0,0,0
2:04.192,44709,),0,0,1
2:04.239,44726,(,0,0,2
2:04.425,44793,t,0,0,0
2:04.678,44884,),0,0,2
2:04.719,44899,(,0,0,0
2:04.733,44904,p,0,0,0
2:04.814,44933,),0,0,0
2:04.969,44989,(,0,0,1
2:05.022,45008,N,0,0,0
2:05.086,45031,),0,0,1
2:05.158,45057,(,0,0,2
2:05.325,45117,t,0,0,0
2:05.622,45224,),0,0,2
2:05.783,45282,(,0,0,0
2:05.808,45291,p,0,0,0
2:05.842,45303,),0,0,0
2:05.906,45326,(,0,0,1
2:05.958,45345,N,0,0,0
2:06.019,45367,),0,0,1
2:06.081,45389,(,0,0,2
2:06.256,45452,t,0,0,0
2:06.558,45561,),0,0,2
2:06.606,45578,(,0,0,0
2:06.725,45621,p,0,0,0
2:06.781,45641,),0,0,0
2:06.847,45665,(,0,0,1
2:06.906,45686,N,0,0,0
2:06.969,45709,),0,0,1
2:07.036,45733,(,0,0,2
2:07.197,45791,t,0,0,0
2:07.464,45887,),0,0,2
2:07.511,45904,(,0,0,0
2:07.544,45916,p,0,0,0
2:07.614,45941,),0,0,0
2:07.786,46003,(,0,0,1
2:07.844,46024,N,0,0,0
2:07.911,46048,),0,0,1
2:07.947,46061,t,0,0,2
2:08.136,46129,),0,0,2
2:08.203,46153,(,0,0,0
2:08.294,46186,p,0,0,0
2:08.381,46217,),0,0,0
2:08.444,46240,(,0,0,1
2:08.578,46288,N,0,0,0
2:08.644,46312,),0,0,1
2:08.650,46314,(,0,0,2
2:08.739,46346,t,0,0,1
2:09.144,46492,),0,0,2
2:09.353,46567,(,0,0,0
2:09.378,46576,p,0,0,0
2:09.456,46604,),0,0,0
2:09.611,46660,(,0,0,1
2:09.664,46679,N,0,0,0
2:09.725,46701,),0,0,1
2:09.789,46724,(,0,0,2
2:09.981,46793,t,0,0,0
2:10.072,46826,),0,0,2
2:10.086,46831,(,0,0,0
2:10.108,46839,p,0,0,0
2:10.211,46876,),0,0,0
2:10.233,46884,(,0,0,1
2:10.283,46902,N,0,0,0
2:10.386,46939,),0,0,1
2:10.392,46941,(,0,0,2
2:10.447,46961,t,0,0,1
2:10.800,47088,),0,0,2
2:11.186,47227,(,0,0,0
2:11.289,47264,p,0,0,0
2:11.308,47271,),0,0,0
2:11.353,47287,(,0,0,1
2:11.406,47306,N,0,0,0
2:11.481,47333,),0,0,1
2:12.111,47560,(,0,0,0
2:12.194,47590,p,0,0,0
2:12.258,47613,),0,0,0
2:12.289,47624,(,0,0,1
2:12.325,47637,N,0,0,0
2:12.350,47646,),0,0,1
2:12.436,47677,(,0,0,1
2:12.619,47743,N,0,0,0
2:12.692,47769,),0,0,1
2:12.697,47771,(,0,0,2
2:12.792,47805,t,0,0,1
2:13.097,47915,),0,0,2
2:13.333,48000,(,0,0,1
2:13.383,48018,N,0,0,0
2:13.450,48042,),0,0,1
2:13.489,48056,t,0,0,2
2:13.658,48117,),0,0,2
2:13.697,48131,(,0,0,0
2:13.778,48160,p,0,0,0
2:13.811,48172,),0,0,0
2:13.872,48194,(,0,0,1
2:14.014,48245,N,0,0,0
2:14.114,48281,),0,0,1
2:14.925,48573,(,0,0,0
2:14.956,48584,p,0,0,0
2:14.997,48599,),0,0,0
2:15.131,48647,(,0,0,1
2:15.189,48668,N,0,0,0
2:15.256,48692,),0,0,1
2:15.697,48851,(,0,0,1
2:15.789,48884,N,0,0,0
2:15.867,48912,),0,0,1
2:15.933,48936,(,0,0,2
2:16.086,48991,t,0,0,0
2:16.275,49059,),0,0,2
2:16.772,49238,(,0,0,0
2:16.800,49248,p,0,0,0
2:16.842,49263,),0,0,0
2:16.981,49313,(,0,0,1
2:17.028,49330,N,0,0,0
2:17.097,49355,),0,0,1
2:17.192,49389,t,0,0,2
2:17.392,49461,),0,0,2
2:17.444,49480,(,0,0,0
2:17.525,49509,p,0,0,0
2:17.558,49521,),0,0,0
2:17.575,49527,(,0,0,1
2:17.658,49557,N,0,0,0
2:17.722,49580,),0,0,1
2:17.781,49601,(,0,0,2
2:17.947,49661,t,0,0,0
2:18.114,49721,),0,0,2
2:18.692,49929,(,0,0,0
2:18.722,49940,p,0,0,0
2:18.761,49954,),0,0,0
2:18.900,50004,(,0,0,1
2:18.958,50025,N,0,0,0
2:19.025,50049,),0,0,1
2:19.394,50182,(,0,0,0
2:19.478,50212,p,0,0,0
2:19.511,50224,),0,0,0
2:19.525,50229,(,0,0,1
2:19.614,50261,N,0,0,0
2:19.678,50284,),0,0,1
2:19.750,50310,(,0,0,2
2:19.894,50362,t,0,0,0
2:20.097,50435,),0,0,2
2:20.628,50626,(,0,0,0
2:20.675,50643,p,0,0,0
2:20.719,50659,),0,0,0
2:20.844,50704,(,0,0,1
2:20.897,50723,N,0,0,0
2:20.969,50749,),0,0,1
2:21.322,50876,(,0,0,0
2:21.392,50901,p,0,0,0
2:21.417,50910,),0,0,0
2:21.433,50916,(,0,0,1
2:21.514,50945,N,0,0,0
2:21.578,50968,),0,0,1
2:21.619,50983,(,0,0,2
2:21.767,51036,t,0,0,0
2:22.006,51122,),0,0,2
2:22.494,51298,(,0,0,0
2:22.528,51310,p,0,0,0
2:22.561,51322,),0,0,0
2:22.681,51365,(,0,0,1
2:22.728,51382,N,0,0,0
2:22.797,51407,),0,0,1
2:22.872,51434,t,0,0,2
2:23.081,51509,),0,0,2
2:23.128,51526,(,0,0,1
2:23.339,51602,N,0,0,0
2:23.414,51629,),0,0,1
2:24.422,51992,(,0,0,0
2:24.456,52004,p,0,0,0
2:24.500,52020,),0,0,0
2:24.639,52070,(,0,0,1
2:24.692,52089,N,0,0,0
2:24.764,52115,),0,0,1
2:24.775,52119,(,0,0,2
2:24.831,52139,t,0,0,1
2:25.083,52230,),0,0,2
2:25.233,52284,(,0,0,1
2:25.333,52320,N,0,0,0
2:25.414,52349,),0,0,1
2:25.467,52368,(,0,0,2
2:25.608,52419,t,0,0,0
2:25.814,52493,),0,0,2
2:26.375,52695,(,0,0,0
2:26.406,52706,p,0,0,0
2:26.444,52720,),0,0,0
2:26.575,52767,(,0,0,1
2:26.622,52784,N,0,0,0
2:26.692,52809,),0,0,1
2:27.142,52971,(,0,0,1
2:27.253,53011,N,0,0,0
2:27.328,53038,),0,0,1
2:27.400,53064,(,0,0,2
2:27.536,53113,t,0,0,0
2:27.744,53188,),0,0,2
2:28.283,53382,(,0,0,0
2:28.317,53394,p,0,0,0
2:28.358,53409,),0,0,0
2:28.469,53449,(,0,0,1
2:28.528,53470,N,0,0,0
2:28.594,53494,),0,0,1
2:29.042,53655,(,0,0,1
2:29.139,53690,N,0,0,0
2:29.219,53719,),0,0,1
2:29.294,53746,(,0,0,2
2:29.408,53787,t,0,0,0
2:29.647,53873,),0,0,2
2:30.181,54065,(,0,0,0
2:30.211,54076,p,0,0,0
2:30.247,54089,),0,0,0
2:30.392,54141,(,0,0,1
2:30.442,54159,N,0,0,0
2:30.511,54184,),0,0,1
2:31.008,54363,(,0,0,1
2:31.108,54399,N,0,0,0
2:31.186,54427,),0,0,1
2:31.250,54450,(,0,0,2
2:31.381,54497,t,0,0,0
2:31.636,54589,),0,0,2
2:32.156,54776,(,0,0,0
2:32.186,54787,p,0,0,0
2:32.219,54799,),0,0,0
2:32.356,54848,(,0,0,1
2:32.408,54867,N,0,0,0
2:32.478,54892,),0,0,1
2:32.806,55010,(,0,0,0
2:32.928,55054,p,0,0,0
2:32.933,55056,),0,0,0
2:33.011,55084,(,0,0,1
2:33.042,55095,N,0,0,0
2:33.139,55130,),0,0,1
2:33.214,55157,(,0,0,2
2:33.328,55198,t,0,0,0
2:33.569,55285,),0,0,2
2:34.083,55470,(,0,0,0
2:34.111,55480,p,0,0,0
2:34.158,55497,),0,0,0
2:34.275,55539,(,0,0,1
2:34.328,55558,N,0,0,0
2:34.392,55581,),0,0,1
2:34.472,55610,t,0,0,2
2:34.678,55684,),0,0,2
2:34.764,55715,(,0,0,0
2:34.806,55730,p,0,0,0
2:34.917,55770,),0,0,0
2:34.922,55772,N,0,0,0
2:34.922,55772,(,0,0,1
2:35.050,55818,),0,0,1
2:35.094,55834,(,0,0,2
2:35.206,55874,t,0,0,0
2:35.464,55967,),0,0,2
2:36.028,56170,(,0,0,0
2:36.058,56181,p,0,0,0
2:36.103,56197,),0,0,0
2:36.231,56243,(,0,0,1
2:36.292,56265,N,0,0,0
2:36.364,56291,),0,0,1
2:36.956,56504,N,0,0,0
2:36.956,56504,(,0,0,1
2:37.075,56547,),0,0,1
2:37.122,56564,(,0,0,2
2:37.244,56608,t,0,0,0
2:37.481,56693,),0,0,2
2:38.003,56881,(,0,0,0
2:38.033,56892,p,0,0,0
2:38.075,56907,),0,0,0
2:38.197,56951,(,0,0,1
2:38.258,56973,N,0,0,0
2:38.328,56998,),0,0,1
2:38.814,57173,(,0,0,1
2:38.897,57203,N,0,0,0
2:38.994,57238,),0,0,1
2:39.031,57251,t,0,0,2
2:39.158,57297,),0,0,2
2:39.928,57574,(,0,0,0
2:39.969,57589,p,0,0,0
2:40.000,57600,),0,0,0
2:40.139,57650,(,0,0,1
2:40.181,57665,N,0,0,0
2:40.247,57689,),0,0,1
2:40.764,57875,(,0,0,1
2:40.800,57888,N,0,0,0
2:40.900,57924,),0,0,1
2:40.953,57943,(,0,0,2
2:41.083,57990,t,0,0,0
2:41.336,58081,),0,0,2
2:41.878,58276,(,0,0,0
2:41.911,58288,p,0,0,0
2:41.944,58300,),0,0,0
2:42.086,58351,(,0,0,1
2:42.136,58369,N,0,0,0
2:42.208,58395,),0,0,1
2:42.700,58572,(,0,0,1
2:42.792,58605,N,0,0,0
2:42.892,58641,),0,0,1
2:42.947,58661,(,0,0,2
2:43.075,58707,t,0,0,0
2:43.342,58803,),0,0,2
2:43.881,58997,(,0,0,0
2:43.914,59009,p,0,0,0
2:43.950,59022,),0,0,0
2:44.086,59071,(,0,0,1
2:44.133,59088,N,0,0,0
2:44.203,59113,),0,0,1
2:44.581,59249,(,0,0,1
2:44.769,59317,N,0,0,0
2:44.867,59352,),0,0,1
2:44.914,59369,(,0,0,2
2:45.056,59420,t,0,0,0
2:45.314,59513,),0,0,2
2:45.817,59694,(,0,0,0
2:45.853,59707,p,0,0,0
2:45.911,59728,),0,0,0
2:46.019,59767,(,0,0,1
2:46.067,59784,N,0,0,0
2:46.128,59806,),0,0,1
2:46.214,59837,t,0,0,2
2:46.433,59916,),0,0,2
2:46.486,59935,(,0,0,1
2:46.669,60001,N,0,0,0
2:46.761,60034,),0,0,1
2:47.769,60397,(,0,0,0
2:47.800,60408,p,0,0,0
2:47.839,60422,),0,0,0
2:47.978,60472,(,0,0,1
2:48.028,60490,N,0,0,0
2:48.100,60516,),0,0,1
2:48.525,60669,(,0,0,1
2:48.689,60728,N,0,0,0
2:48.769,60757,),0,0,1
2:48.836,60781,(,0,0,2
2:48.967,60828,t,0,0,0
2:49.225,60921,),0,0,2
2:49.806,61130,(,0,0,0
2:49.839,61142,p,0,0,0
2:49.872,61154,),0,0,0
2:49.997,61199,(,0,0,1
2:50.044,61216,N,0,0,0
2:50.114,61241,),0,0,1
2:50.364,61331,(,0,0,0
2:50.422,61352,p,0,0,0
2:50.528,61390,),0,0,0
2:50.583,61410,(,0,0,1
2:50.664,61439,N,0,0,0
2:50.753,61471,),0,0,1
2:50.825,61497,(,0,0,2
2:50.947,61541,t,0,0,0
2:51.175,61623,),0,0,2
2:51.736,61825,(,0,0,0
2:51.764,61835,p,0,0,0
2:51.800,61848,),0,0,0
2:51.928,61894,(,0,0,1
2:51.975,61911,N,0,0,0
2:52.047,61937,),0,0,1
2:52.514,62105,(,0,0,1
2:52.592,62133,N,0,0,0
2:52.678,62164,),0,0,1
2:52.733,62184,(,0,0,2
2:52.867,62232,t,0,0,0
2:53.083,62310,),0,0,2
2:53.647,62513,(,0,0,0
2:53.681,62525,p,0,0,0
2:53.733,62544,),0,0,0
2:53.844,62584,(,0,0,1
2:53.892,62601,N,0,0,0
2:53.961,62626,),0,0,1
2:54.347,62765,(,0,0,1
2:54.536,62833,N,0,0,0
2:54.631,62867,),0,0,1
2:54.706,62894,(,0,0,2
2:54.839,62942,t,0,0,0
2:55.067,63024,),0,0,2
2:55.664,63239,(,0,0,0
2:55.694,63250,p,0,0,0
2:55.733,63264,),0,0,0
2:55.847,63305,(,0,0,1
2:55.897,63323,N,0,0,0
2:55.967,63348,),0,0,1
2:55.975,63351,(,0,0,2
2:56.036,63373,t,0,0,1
2:56.289,63464,),0,0,2
2:56.336,63481,(,0,0,1
2:56.517,63546,N,0,0,0
2:56.619,63583,),0,0,1
2:56.694,63610,(,0,0,2
2:56.814,63653,t,0,0,0
2:57.081,63749,),0,0,2
2:57.639,63950,(,0,0,0
2:57.669,63961,p,0,0,0
2:57.703,63973,),0,0,0
2:57.811,64012,(,0,0,1
2:57.864,64031,N,0,0,0
2:57.936,64057,),0,0,1
2:58.383,64218,(,0,0,1
2:58.469,64249,N,0,0,0
2:58.550,64278,),0,0,1
2:58.631,64307,(,0,0,2
2:58.717,64338,t,0,0,0
2:58.961,64426,),0,0,2
2:59.558,64641,(,0,0,0
2:59.589,64652,p,0,0,0
2:59.628,64666,),0,0,0
2:59.747,64709,(,0,0,1
2:59.803,64729,N,0,0,0
2:59.878,64756,),0,0,1
3:00.358,64929,(,0,0,1
3:00.458,64965,N,0,0,0
3:00.550,64998,),0,0,1
3:00.553,64999,t,0,0,2
3:00.739,65066,),0,0,2
3:01.589,65372,(,0,0,0
3:01.628,65386,p,0,0,0
3:01.667,65400,),0,0,0
3:01.764,65435,(,0,0,1
3:01.822,65456,N,0,0,0
3:01.892,65481,),0,0,1
3:02.442,65679,(,0,0,1
3:02.647,65753,N,0,0,0
3:02.814,65813,),0,0,1
3:02.817,65814,t,0,0,3
3:02.936,65857,),0,0,2
3:03.533,66072,(,0,0,0
3:03.567,66084,p,0,0,0
3:03.603,66097,),0,0,0
3:03.714,66137,(,0,0,1
3:03.767,66156,N,0,0,0
3:03.836,66181,),0,0,1
3:04.375,66375,(,0,0,1
3:04.569,66445,N,0,0,0
3:04.597,66455,),0,0,1
3:04.658,66477,t,0,0,3
3:04.844,66544,),0,0,2
3:05.469,66769,(,0,0,0
3:05.506,66782,p,0,0,0
3:05.547,66797,),0,0,0
3:05.672,66842,(,0,0,1
3:05.719,66859,N,0,0,0
3:05.789,66884,),0,0,1
3:06.294,67066,(,0,0,0
3:06.367,67092,p,0,0,0
3:06.444,67120,),0,0,0
3:06.544,67156,(,0,0,1
3:06.550,67158,N,0,0,0
3:06.667,67200,),0,0,1
3:07.506,67502,(,0,0,0
3:07.539,67514,p,0,0,0
3:07.581,67529,),0,0,0
3:07.703,67573,(,0,0,1
3:07.750,67590,N,0,0,0
3:07.822,67616,),0,0,1
3:07.950,67662,t,0,0,2
3:08.139,67730,),0,0,2
3:08.386,67819,(,0,0,1
3:08.517,67866,N,0,0,0
3:08.664,67919,),0,0,1
3:08.675,67923,t,0,0,3
3:08.869,67993,),0,0,2
3:09.489,68216,(,0,0,0
3:09.517,68226,p,0,0,0
3:09.550,68238,),0,0,0
3:09.678,68284,(,0,0,1
3:09.722,68300,N,0,0,0
3:09.786,68323,),0,0,1
3:09.836,68341,(,0,0,2
3:09.864,68351,t,0,0,1
3:10.097,68435,),0,0,2
3:10.231,68483,(,0,0,0
3:10.242,68487,p,0,0,0
3:10.300,68508,),0,0,0
3:10.331,68519,(,0,0,1
3:10.453,68563,N,0,0,0
3:10.606,68618,),0,0,1
3:10.611,68620,t,0,0,3
3:10.789,68684,),0,0,2
3:11.397,68903,(,0,0,0
3:11.433,68916,p,0,0,0
3:11.475,68931,),0,0,0
3:11.594,68974,(,0,0,1
3:11.650,68994,N,0,0,0
3:11.725,69021,),0,0,1
3:12.203,69193,(,0,0,0
3:12.217,69198,p,0,0,0
3:12.275,69219,),0,0,0
3:12.311,69232,(,0,0,1
3:12.442,69279,N,0,0,0
3:12.458,69285,),0,0,1
3:12.558,69321,(,0,0,2
3:12.611,69340,t,0,0,0
3:12.808,69411,),0,0,2
3:13.456,69644,(,0,0,0
3:13.483,69654,p,0,0,0
3:13.519,69667,),0,0,0
3:13.656,69716,(,0,0,1
3:13.700,69732,N,0,0,0
3:13.767,69756,),0,0,1
3:14.225,69921,(,0,0,0
3:14.242,69927,p,0,0,0
3:14.289,69944,),0,0,0
3:14.300,69948,(,0,0,1
3:14.444,70000,N,0,0,0
3:14.561,70042,),0,0,1
3:14.614,70061,t,0,0,3
3:14.753,70111,),0,0,2
3:15.397,70343,(,0,0,0
3:15.431,70355,p,0,0,0
3:15.475,70371,),0,0,0
3:15.586,70411,(,0,0,1
3:15.647,70433,N,0,0,0
3:15.717,70458,),0,0,1
3:16.175,70623,(,0,0,1
3:16.211,70636,N,0,0,0
3:16.344,70684,),0,0,1
3:16.406,70706,t,0,0,2
3:16.561,70762,),0,0,2
3:17.342,71043,(,0,0,0
3:17.372,71054,p,0,0,0
3:17.406,71066,),0,0,0
3:17.536,71113,(,0,0,1
3:17.586,71131,N,0,0,0
3:17.650,71154,),0,0,1
3:17.658,71157,(,0,0,2
3:17.728,71182,t,0,0,1
3:17.983,71274,),0,0,2
3:18.122,71324,(,0,0,1
3:18.161,71338,N,0,0,0
3:18.308,71391,),0,0,1
3:18.400,71424,(,0,0,2
3:18.542,71475,t,0,0,0
3:18.764,71555,),0,0,2
3:19.369,71773,(,0,0,0
3:19.397,71783,p,0,0,0
3:19.439,71798,),0,0,0
3:19.572,71846,(,0,0,1
3:19.622,71864,N,0,0,0
3:19.689,71888,),0,0,1
3:19.844,71944,t,0,0,2
3:20.011,72004,),0,0,2
3:20.014,72005,(,0,0,0
3:20.025,72009,p,0,0,0
3:20.139,72050,),0,0,0
3:20.153,72055,(,0,0,1
3:20.192,72069,N,0,0,0
3:20.336,72121,),0,0,1
3:20.417,72150,(,0,0,2
3:20.583,72210,t,0,0,0
3:20.772,72278,),0,0,2
3:21.361,72490,(,0,0,0
3:21.394,72502,p,0,0,0
3:21.431,72515,),0,0,0
3:21.558,72561,(,0,0,1
3:21.611,72580,N,0,0,0
3:21.678,72604,),0,0,1
3:21.786,72643,(,0,0,2
3:21.997,72719,t,0,0,0
3:22.111,72760,),0,0,2
3:22.119,72763,(,0,0,0
3:22.136,72769,p,0,0,0
3:22.189,72788,),0,0,0
3:22.208,72795,(,0,0,1
3:22.350,72846,N,0,0,0
3:22.403,72865,),0,0,1
3:22.464,72887,(,0,0,2
3:22.503,72901,t,0,0,0
3:22.669,72961,),0,0,2
3:23.278,73180,(,0,0,0
3:23.314,73193,p,0,0,0
3:23.367,73212,),0,0,0
3:23.500,73260,(,0,0,1
3:23.553,73279,N,0,0,0
3:23.622,73304,),0,0,1
3:24.117,73482,(,0,0,0
3:24.119,73483,p,0,0,0
3:24.186,73507,),0,0,0
3:24.217,73518,(,0,0,1
3:24.344,73564,N,0,0,0
3:24.369,73573,),0,0,1
3:24.378,73576,(,0,0,2
3:24.531,73631,t,0,0,0
3:24.703,73693,),0,0,2
3:25.353,73927,(,0,0,0
3:25.383,73938,p,0,0,0
3:25.419,73951,),0,0,0
3:25.556,74000,(,0,0,1
3:25.606,74018,N,0,0,0
3:25.672,74042,),0,0,1
3:26.164,74219,(,0,0,0
3:26.211,74236,p,0,0,0
3:26.286,74263,),0,0,0
3:26.317,74274,(,0,0,1
3:26.364,74291,N,0,0,0
3:26.386,74299,),0,0,1
3:26.442,74319,(,0,0,2
3:26.514,74345,t,0,0,0
3:26.678,74404,),0,0,2
3:27.308,74631,(,0,0,0
3:27.344,74644,p,0,0,0
3:27.392,74661,),0,0,0
3:27.489,74696,(,0,0,1
3:27.569,74725,N,0,0,0
3:27.639,74750,),0,0,1
3:28.183,74946,(,0,0,1
3:28.314,74993,N,0,0,0
3:28.336,75001,),0,0,1
3:28.422,75032,(,0,0,2
3:28.486,75055,t,0,0,0
3:28.656,75116,),0,0,2
3:29.231,75323,(,0,0,0
3:29.289,75344,p,0,0,0
3:29.328,75358,),0,0,0
3:29.467,75408,(,0,0,1
3:29.522,75428,N,0,0,0
3:29.594,75454,),0,0,1
3:29.653,75475,t,0,0,2
3:29.919,75571,),0,0,2
3:30.014,75605,(,0,0,1
3:30.100,75636,N,0,0,0
3:30.253,75691,),0,0,1
3:30.336,75721,(,0,0,2
3:30.497,75779,t,0,0,0
3:30.694,75850,),0,0,2
3:31.314,76073,(,0,0,0
3:31.344,76084,p,0,0,0
3:31.392,76101,),0,0,0
3:31.525,76149,(,0,0,1
3:31.586,76171,N,0,0,0
3:31.656,76196,),0,0,1
3:32.122,76364,(,0,0,1
3:32.161,76378,N,0,0,0
3:32.300,76428,),0,0,1
3:32.389,76460,(,0,0,2
3:32.539,76514,t,0,0,0
3:32.736,76585,),0,0,2
3:33.322,76796,(,0,0,0
3:33.353,76807,p,0,0,0
3:33.386,76819,),0,0,0
3:33.519,76867,(,0,0,1
3:33.569,76885,N,0,0,0
3:33.636,76909,),0,0,1
3:34.081,77069,(,0,0,1
3:34.111,77080,N,0,0,0
3:34.244,77128,),0,0,1
3:35.250,77490,(,0,0,0
3:35.278,77500,p,0,0,0
3:35.317,77514,),0,0,0
3:35.453,77563,(,0,0,1
3:35.508,77583,N,0,0,0
3:35.578,77608,),0,0,1
3:36.056,77780,(,0,0,1
3:36.092,77793,N,0,0,0
3:36.233,77844,),0,0,1
3:36.333,77880,(,0,0,2
3:36.489,77936,t,0,0,0
3:36.683,78006,),0,0,2
3:37.317,78234,(,0,0,0
3:37.344,78244,p,0,0,0
3:37.389,78260,),0,0,0
3:37.533,78312,(,0,0,1
3:37.583,78330,N,0,0,0
3:37.650,78354,),0,0,1
3:38.147,78533,(,0,0,0
3:38.200,78552,p,0,0,0
3:38.275,78579,),0,0,0
3:38.294,78586,(,0,0,1
3:38.342,78603,N,0,0,0
3:38.492,78657,),0,0,1
3:38.522,78668,t,0,0,3
3:38.661,78718,),0,0,2
3:39.314,78953,(,0,0,0
3:39.342,78963,p,0,0,0
3:39.381,78977,),0,0,0
3:39.517,79026,(,0,0,1
3:39.572,79046,N,0,0,0
3:39.639,79070,),0,0,1
3:40.094,79234,(,0,0,1
3:40.131,79247,N,0,0,0
3:40.264,79295,),0,0,1
3:40.353,79327,(,0,0,2
3:40.503,79381,t,0,0,0
3:40.661,79438,),0,0,2
3:41.264,79655,(,0,0,0
3:41.294,79666,p,0,0,0
3:41.333,79680,),0,0,0
3:41.464,79727,(,0,0,1
3:41.517,79746,N,0,0,0
3:41.589,79772,),0,0,1
3:41.594,79774,(,0,0,2
3:41.656,79796,t,0,0,1
3:41.678,79804,),0,0,2
3:42.067,79944,(,0,0,1
3:42.100,79956,N,0,0,0
3:42.244,80008,),0,0,1
3:42.247,80009,t,0,0,2
3:42.475,80091,),0,0,2
3:43.322,80396,(,0,0,0
3:43.347,80405,p,0,0,0
3:43.389,80420,),0,0,0
3:43.519,80467,(,0,0,1
3:43.583,80490,N,0,0,0
3:43.650,80514,),0,0,1
3:44.125,80685,(,0,0,0
3:44.142,80691,p,0,0,0
3:44.192,80709,),0,0,0
3:44.208,80715,(,0,0,1
3:44.344,80764,N,0,0,0
3:44.533,80832,),0,0,1
3:44.553,80839,t,0,0,3
3:44.728,80902,),0,0,2
3:45.347,81125,(,0,0,0
3:45.378,81136,p,0,0,0
3:45.408,81147,),0,0,0
3:45.533,81192,(,0,0,1
3:45.589,81212,N,0,0,0
3:45.656,81236,),0,0,1
3:46.097,81395,(,0,0,1
3:46.133,81408,N,0,0,0
3:46.264,81455,),0,0,1
3:46.333,81480,t,0,0,2
3:46.481,81533,),0,0,2
3:47.272,81818,(,0,0,0
3:47.303,81829,p,0,0,0
3:47.339,81842,),0,0,0
3:47.464,81887,(,0,0,1
3:47.522,81908,N,0,0,0
3:47.594,81934,),0,0,1
3:48.083,82110,(,0,0,0
3:48.097,82115,p,0,0,0
3:48.150,82134,),0,0,0
3:48.189,82148,(,0,0,1
3:48.311,82192,N,0,0,0
3:48.492,82257,),0,0,1
3:48.508,82263,t,0,0,3
3:48.667,82320,),0,0,2
3:49.322,82556,(,0,0,0
3:49.353,82567,p,0,0,0
3:49.394,82582,),0,0,0
3:49.511,82624,(,0,0,1
3:49.564,82643,N,0,0,0
3:49.631,82667,),0,0,1
3:49.833,82740,t,0,0,2
3:49.947,82781,),0,0,2
3:50.089,82832,(,0,0,0
3:50.103,82837,p,0,0,0
3:50.164,82859,),0,0,0
3:50.192,82869,(,0,0,1
3:50.317,82914,N,0,0,0
3:50.486,82975,),0,0,1
3:50.553,82999,t,0,0,3
3:50.697,83051,),0,0,2
3:51.303,83269,(,0,0,0
3:51.333,83280,p,0,0,0
3:51.372,83294,),0,0,0
3:51.494,83338,(,0,0,1
3:51.539,83354,N,0,0,0
3:51.608,83379,),0,0,1
3:52.172,83582,(,0,0,1
3:52.297,83627,N,0,0,0
3:52.458,83685,),0,0,1
3:52.467,83688,t,0,0,3
3:52.631,83747,),0,0,2
3:53.269,83977,(,0,0,0
3:53.300,83988,p,0,0,0
3:53.342,84003,),0,0,0
3:53.461,84046,(,0,0,1
3:53.506,84062,N,0,0,0
3:53.578,84088,),0,0,1
3:53.583,84090,(,0,0,2
3:53.644,84112,t,0,0,1
3:53.906,84206,),0,0,2
3:54.050,84258,(,0,0,0
3:54.069,84265,p,0,0,0
3:54.131,84287,),0,0,0
3:54.164,84299,(,0,0,1
3:54.289,84344,N,0,0,0
3:54.461,84406,),0,0,1
3:55.336,84721,(,0,0,0
3:55.369,84733,p,0,0,0
3:55.411,84748,),0,0,0
3:55.525,84789,(,0,0,1
3:55.569,84805,N,0,0,0
3:55.642,84831,),0,0,1
3:56.111,85000,(,0,0,1
3:56.144,85012,N,0,0,0
3:56.278,85060,),0,0,1
3:56.339,85082,(,0,0,2
3:56.533,85152,t,0,0,0
3:56.700,85212,),0,0,2
3:57.328,85438,(,0,0,0
3:57.356,85448,p,0,0,0
3:57.394,85462,),0,0,0
3:57.481,85493,(,0,0,1
3:57.536,85513,N,0,0,0
3:57.606,85538,),0,0,1
3:58.014,85685,(,0,0,1
3:58.083,85710,N,0,0,0
3:58.217,85758,),0,0,1
3:58.250,85770,t,0,0,2
3:58.439,85838,),0,0,2
3:59.267,86136,(,0,0,0
3:59.297,86147,p,0,0,0
3:59.336,86161,),0,0,0
3:59.406,86186,(,0,0,1
3:59.483,86214,N,0,0,0
3:59.556,86240,),0,0,1
3:59.728,86302,t,0,0,2
3:59.875,86355,),0,0,2
3:59.883,86358,(,0,0,0
3:59.908,86367,p,0,0,0
4:00.003,86401,),0,0,0
4:00.011,86404,(,0,0,1
4:00.058,86421,N,0,0,0
4:00.222,86480,),0,0,1
4:00.225,86481,t,0,0,2
4:00.325,86517,),0,0,2
4:00.450,86562,(,0,0,0
4:00.481,86573,p,0,0,0
4:00.572,86606,),0,0,0
4:00.647,86633,(,0,0,1
4:00.711,86656,N,0,0,0
4:00.811,86692,),0,0,1
4:00.869,86713,(,0,0,2
4:01.064,86783,t,0,0,0
4:01.183,86826,),0,0,2
4:01.678,87004,(,0,0,0
4:01.700,87012,p,0,0,0
4:01.764,87035,),0,0,0
4:01.772,87038,(,0,0,1
4:01.922,87092,N,0,0,0
4:01.981,87113,),0,0,1
4:02.186,87187,(,0,0,0
4:02.278,87220,p,0,0,0
4:02.297,87227,),0,0,0
4:02.314,87233,(,0,0,1
4:02.342,87243,N,0,0,0
4:02.386,87259,),0,0,1
4:02.461,87286,(,0,0,2
4:02.697,87371,t,0,0,0
4:02.800,87408,),0,0,2
4:02.803,87409,(,0,0,0
4:02.911,87448,p,0,0,0
4:02.967,87468,),0,0,0
4:03.139,87530,(,0,0,1
4:03.286,87583,N,0,0,0
4:03.294,87586,(,0,0,0
4:03.378,87616,p,0,0,0
4:03.389,87620,N,0,0,0
4:03.433,87636,),0,0,1
4:03.453,87643,),0,0,0
4:03.478,87652,(,0,0,1
4:03.569,87685,),0,0,1
4:03.719,87739,N,0,0,0
4:03.858,87789,),0,0,1
4:03.861,87790,t,0,0,2
4:03.942,87819,),0,0,2
4:03.944,87820,(,0,0,1
4:04.050,87858,N,0,0,0
4:04.175,87903,),0,0,1
4:04.189,87908,(,0,0,2
4:04.364,87971,t,0,0,0
4:04.472,88010,),0,0,2
4:04.519,88027,(,0,0,1
4:04.692,88089,N,0,0,0
4:04.825,88137,),0,0,1
4:04.981,88193,(,0,0,2
4:05.053,88219,t,0,0,0
4:05.175,88263,),0,0,2
4:05.700,88452,(,0,0,1
4:05.800,88488,N,0,0,0
4:05.875,88515,),0,0,1
4:06.217,88638,(,0,0,1
4:06.375,88695,N,0,0,0
4:06.433,88716,),0,0,1
4:06.483,88734,t,0,0,3
4:06.731,88823,),0,0,2
4:07.253,89011,(,0,0,0
4:07.342,89043,p,0,0,0
4:07.394,89062,),0,0,0
4:07.519,89107,(,0,0,1
4:07.581,89129,N,0,0,0
4:07.661,89158,),0,0,1
4:08.217,89358,(,0,0,0
4:08.250,89370,p,0,0,0
4:08.319,89395,),0,0,0
4:08.350,89406,(,0,0,1
4:08.550,89478,N,0,0,0
4:08.669,89521,),0,0,1
4:08.919,89611,(,0,0,2
4:08.967,89628,t,0,0,0
4:09.022,89648,),0,0,2
4:09.350,89766,(,0,0,0
4:09.506,89822,p,0,0,0
4:09.522,89828,),0,0,0
4:09.581,89849,(,0,0,1
4:09.664,89879,N,0,0,0
4:09.803,89929,),0,0,1
4:09.850,89946,(,0,0,2
4:09.900,89964,t,0,0,1
4:10.014,90005,),0,0,2
4:10.311,90112,(,0,0,0
4:10.372,90134,p,0,0,0
4:10.411,90148,),0,0,0
4:10.661,90238,(,0,0,1
4:10.778,90280,N,0,0,0
4:10.922,90332,),0,0,1
4:10.925,90333,(,0,0,2
4:10.986,90355,t,0,0,1
4:11.150,90414,),0,0,2
4:11.667,90600,(,0,0,1
4:11.728,90622,N,0,0,0
4:11.728,90622,(,0,0,1
4:11.983,90714,),0,0,1
4:12.019,90727,N,0,0,0
4:12.169,90781,),0,0,1
4:12.172,90782,t,0,0,2
4:12.311,90832,),0,0,2
4:12.467,90888,(,0,0,1
4:12.608,90939,N,0,0,0
4:12.794,91006,),0,0,1
4:12.808,91011,(,0,0,1
4:12.997,91079,N,0,0,0
4:13.106,91118,),0,0,1
4:13.125,91125,(,0,0,2
4:13.300,91188,t,0,0,0
4:13.425,91233,),0,0,2
4:13.431,91235,(,0,0,1
4:13.628,91306,N,0,0,0
4:13.739,91346,),0,0,1
4:13.753,91351,(,0,0,2
4:13.925,91413,t,0,0,0
4:14.042,91455,),0,0,2
4:14.067,91464,(,0,0,0
4:14.147,91493,p,0,0,0
4:14.244,91528,),0,0,0
4:14.372,91574,(,0,0,1
4:14.592,91653,N,0,0,0
4:14.694,91690,),0,0,1
4:14.697,91691,t,0,0,2
4:14.781,91721,),0,0,2
4:14.783,91722,(,0,0,1
4:14.894,91762,N,0,0,0
4:14.989,91796,),0,0,1
4:14.994,91798,t,0,0,2
4:15.094,91834,),0,0,2
4:15.097,91835,(,0,0,1
4:15.203,91873,N,0,0,0
4:15.297,91907,),0,0,1
4:15.306,91910,t,0,0,2
4:15.408,91947,),0,0,2
4:15.411,91948,(,0,0,1
4:15.453,91963,(,0,0,0
4:15.517,91986,p,0,0,0
4:15.597,92015,),0,0,0
4:15.617,92022,N,0,0,0
4:15.619,92023,(,0,0,1
4:15.731,92063,),0,0,1
4:15.911,92128,N,0,0,0
4:16.047,92177,),0,0,1
4:16.053,92179,(,0,0,2
4:16.064,92183,(,0,0,0
4:16.086,92191,t,0,0,0
4:16.119,92203,),0,0,2
4:16.122,92204,(,0,0,1
4:16.125,92205,p,0,0,0
4:16.208,92235,),0,0,0
4:16.219,92239,N,0,0,0
4:16.222,92240,(,0,0,1
4:16.347,92285,),0,0,1
4:16.431,92315,N,0,0,0
4:16.531,92351,),0,0,1
4:16.925,92493,(,0,0,0
4:16.989,92516,p,0,0,0
4:17.050,92538,),0,0,0
4:17.128,92566,(,0,0,1
4:17.286,92623,N,0,0,0
4:17.428,92674,),0,0,1
4:17.525,92709,(,0,0,2
4:17.589,92732,t,0,0,0
4:17.678,92764,),0,0,2
4:17.733,92784,(,0,0,1
4:17.825,92817,(,0,0,0
4:17.886,92839,p,0,0,0
4:17.892,92841,N,0,0,0
4:17.953,92863,),0,0,0
4:18.014,92885,),0,0,1
4:18.017,92886,(,0,0,1
4:18.208,92955,N,0,0,0
4:18.319,92995,),0,0,1
4:18.503,93061,(,0,0,1
4:18.525,93069,N,0,0,0
4:18.586,93091,),0,0,1
4:18.644,93112,(,0,0,1
4:18.847,93185,N,0,0,0
4:18.897,93203,),0,0,1
4:19.000,93240,(,0,0,2
4:19.136,93289,t,0,0,0
4:19.281,93341,),0,0,2
4:19.319,93355,(,0,0,1
4:19.489,93416,N,0,0,0
4:19.658,93477,),0,0,1
4:19.694,93490,(,0,0,2
4:19.725,93501,t,0,0,0
4:19.817,93534,),0,0,2
4:20.217,93678,(,0,0,1
4:20.369,93733,N,0,0,0
4:20.556,93800,),0,0,1
4:20.561,93802,(,0,0,1
4:20.692,93849,N,0,0,0
4:20.728,93862,(,0,0,0
4:20.750,93870,),0,0,1
4:20.761,93874,p,0,0,0
4:20.892,93921,),0,0,0
4:20.894,93922,(,0,0,1
4:20.956,93944,N,0,0,0
4:21.033,93972,),0,0,1
4:21.067,93984,(,0,0,2
4:21.150,94014,t,0,0,0
4:21.392,94101,),0,0,2
4:22.111,94360,(,0,0,0
4:22.150,94374,p,0,0,0
4:22.192,94389,),0,0,0
4:22.228,94402,(,0,0,1
4:22.322,94436,N,0,0,0
4:22.386,94459,),0,0,1
4:22.597,94535,t,0,0,2
4:22.775,94599,),0,0,2
4:22.958,94665,(,0,0,1
4:23.000,94680,N,0,0,0
4:23.119,94723,),0,0,1
4:23.197,94751,(,0,0,2
4:23.417,94830,t,0,0,0
4:23.469,94849,),0,0,2
4:24.400,95184,(,0,0,1
4:24.458,95205,N,0,0,0
4:24.525,95229,),0,0,1
4:24.547,95237,(,0,0,2
4:24.933,95376,t,0,0,0
4:25.189,95468,),0,0,2
4:25.408,95547,(,0,0,1
4:25.458,95565,N,0,0,0
4:25.522,95588,),0,0,1
4:25.567,95604,t,0,0,2
4:25.744,95668,),0,0,2
4:26.089,95792,(,0,0,0
4:26.208,95835,p,0,0,0
4:26.261,95854,),0,0,0
4:26.389,95900,(,0,0,1
4:26.442,95919,N,0,0,0
4:26.506,95942,),0,0,1
4:26.558,95961,t,0,0,2
4:26.733,96024,),0,0,2
4:26.842,96063,(,0,0,0
4:26.872,96074,p,0,0,0
4:26.997,96119,),0,0,0
4:27.069,96145,(,0,0,0
4:27.108,96159,p,0,0,0
4:27.117,96162,(,0,0,1
4:27.158,96177,),0,0,0
4:27.281,96221,N,0,0,0
4:27.283,96222,(,0,0,1
4:27.492,96297,),0,0,1
4:27.494,96298,N,0,0,0
4:27.575,96327,),0,0,1
4:27.581,96329,(,0,0,2
4:27.633,96348,t,0,0,1
4:27.978,96472,),0,0,2
4:29.083,96870,(,0,0,0
4:29.106,96878,p,0,0,0
4:29.172,96902,),0,0,0
4:29.178,96904,(,0,0,1
4:29.328,96958,N,0,0,0
4:29.386,96979,),0,0,1
4:29.564,97043,(,0,0,2
4:29.689,97088,t,0,0,0
4:29.817,97134,),0,0,2
4:29.875,97155,(,0,0,0
4:29.942,97179,p,0,0,0
4:30.047,97217,),0,0,0
4:30.064,97223,(,0,0,1
4:30.072,97226,N,0,0,0
4:30.133,97248,),0,0,1
4:30.172,97262,(,0,0,2
4:30.211,97276,t,0,0,1
4:30.350,97326,),0,0,2
4:30.547,97397,(,0,0,1
4:30.708,97455,N,0,0,0
4:30.814,97493,),0,0,1
4:30.839,97502,(,0,0,1
4:31.025,97569,N,0,0,0
4:31.122,97604,),0,0,1
4:31.128,97606,(,0,0,1
4:31.356,97688,N,0,0,0
4:31.539,97754,),0,0,1
4:31.544,97756,(,0,0,2
4:31.661,97798,t,0,0,0
4:31.753,97831,),0,0,2
4:31.856,97868,(,0,0,0
4:31.942,97899,p,0,0,0
4:32.025,97929,),0,0,0
4:32.069,97945,(,0,0,1
4:32.275,98019,N,0,0,0
4:32.433,98076,),0,0,1
4:32.439,98078,(,0,0,2
4:32.597,98135,t,0,0,0
4:32.683,98166,),0,0,2
4:32.844,98224,(,0,0,1
4:32.903,98245,N,0,0,0
4:33.022,98288,),0,0,1
4:33.075,98307,t,0,0,2
4:33.172,98342,),0,0,2
4:33.194,98350,(,0,0,0
4:33.267,98376,p,0,0,0
4:33.308,98391,),0,0,0
4:33.375,98415,(,0,0,1
4:33.461,98446,N,0,0,0
4:33.608,98499,),0,0,1
4:33.672,98522,(,0,0,2
4:33.739,98546,t,0,0,0
4:33.864,98591,),0,0,2
4:34.314,98753,(,0,0,1
4:34.339,98762,N,0,0,0
4:34.531,98831,),0,0,1
4:34.547,98837,(,0,0,2
4:34.597,98855,t,0,0,0
4:34.703,98893,),0,0,2
4:34.706,98894,(,0,0,1
4:34.822,98936,N,0,0,0
4:34.972,98990,),0,0,1
4:35.008,99003,(,0,0,2
4:35.067,99024,t,0,0,0
4:35.086,99031,),0,0,2
4:35.097,99035,(,0,0,1
4:35.186,99067,N,0,0,0
4:35.347,99125,),0,0,1
4:35.397,99143,(,0,0,2
4:35.447,99161,t,0,0,0
4:35.467,99168,),0,0,2
4:36.778,99640,(,0,0,1
4:36.933,99696,N,0,0,0
4:37.039,99734,),0,0,1
4:37.114,99761,t,0,0,2
4:37.231,99803,),0,0,2
4:37.375,99855,(,0,0,1
4:37.528,99910,N,0,0,0
4:37.617,99942,),0,0,1
4:37.808,100011,(,0,0,2
4:37.922,100052,t,0,0,1
4:38.072,100106,),0,0,2
4:38.231,100163,(,0,0,1
4:38.372,100214,N,0,0,0
4:38.458,100245,),0,0,1
4:38.508,100263,(,0,0,1
4:38.672,100322,N,0,0,0
4:38.864,100391,),0,0,1
4:38.867,100392,t,0,0,2
4:38.953,100423,),0,0,2
4:39.231,100523,(,0,0,1
4:39.294,100546,N,0,0,0
4:39.464,100607,),0,0,1
4:39.561,100642,(,0,0,1
4:39.672,100682,N,0,0,0
4:39.728,100702,),0,0,1
4:39.939,100778,(,0,0,1
4:40.014,100805,N,0,0,0
4:40.128,100846,),0,0,1
4:40.136,100849,t,0,0,3
4:40.222,100880,),0,0,2
4:40.431,100955,(,0,0,1
4:40.469,100969,N,0,0,0
4:40.517,100986,),0,0,1
4:40.792,101085,(,0,0,2
4:40.981,101153,t,0,0,0
4:41.203,101233,),0,0,2
4:41.617,101382,(,0,0,1
4:41.728,101422,N,0,0,0
4:41.789,101444,),0,0,1
4:42.233,101604,(,0,0,2
4:42.447,101681,t,0,0,1
4:42.533,101712,),0,0,2
4:43.653,102115,(,0,0,1
4:43.739,102146,N,0,0,0
4:43.797,102167,),0,0,1
4:43.869,102193,t,0,0,2
4:44.033,102252,),0,0,2
4:44.264,102335,(,0,0,1
4:44.389,102380,N,0,0,0
4:44.494,102418,),0,0,1
4:44.608,102459,(,0,0,2
4:44.908,102567,t,0,0,0
4:44.925,102573,),0,0,2
4:45.461,102766,(,0,0,1
4:45.500,102780,N,0,0,0
4:45.569,102805,),0,0,1
4:45.628,102826,(,0,0,2
4:45.836,102901,t,0,0,0
4:46.069,102985,),0,0,2
4:46.233,103044,(,0,0,1
4:46.353,103087,N,0,0,0
4:46.411,103108,),0,0,1
4:46.497,103139,(,0,0,2
4:46.617,103182,t,0,0,0
4:46.789,103244,),0,0,2
4:46.822,103256,(,0,0,0
4:46.864,103271,p,0,0,0
4:46.900,103284,),0,0,0
4:47.058,103341,(,0,0,1
4:47.181,103385,N,0,0,0
4:47.244,103408,),0,0,1
4:47.378,103456,(,0,0,2
4:47.461,103486,t,0,0,0
4:47.647,103553,),0,0,2
4:47.908,103647,(,0,0,1
4:48.042,103695,N,0,0,0
4:48.106,103718,),0,0,1
4:48.167,103740,(,0,0,2
4:48.422,103832,t,0,0,0
4:48.594,103894,),0,0,2
4:48.864,103991,(,0,0,1
4:48.900,104004,N,0,0,0
4:48.969,104029,),0,0,1
4:49.108,104079,(,0,0,2
4:49.203,104113,t,0,0,0
4:49.392,104181,),0,0,2
4:49.697,104291,(,0,0,1
4:49.739,104306,N,0,0,0
4:49.794,104326,),0,0,1
4:49.822,104336,(,0,0,2
4:50.028,104410,t,0,0,0
4:50.178,104464,),0,0,2
4:50.444,104560,(,0,0,1
4:50.544,104596,N,0,0,0
4:50.600,104616,),0,0,1
4:50.700,104652,(,0,0,2
4:50.808,104691,t,0,0,0
4:50.903,104725,),0,0,2
4:51.306,104870,(,0,0,1
4:51.347,104885,N,0,0,0
4:51.414,104909,),0,0,1
4:51.472,104930,(,0,0,2
4:51.578,104968,t,0,0,5
4:51.831,105059,t,0,0,5
4:51.850,105066,),0,0,2
4:52.106,105158,(,0,0,1
4:52.150,105174,N,0,0,0
4:52.231,105203,),0,0,1
4:52.264,105215,(,0,0,2
4:52.436,105277,t,0,0,0
4:52.606,105338,),0,0,2
4:52.867,105432,(,0,0,1
4:52.906,105446,N,0,0,0
4:52.983,105474,),0,0,1
4:53.003,105481,(,0,0,2
4:53.153,105535,t,0,0,0
4:53.375,105615,),0,0,2
4:53.661,105718,(,0,0,1
4:53.703,105733,N,0,0,0
4:53.767,105756,),0,0,1
4:53.808,105771,(,0,0,2
4:53.989,105836,t,0,0,0
4:54.144,105892,),0,0,2
4:54.492,106017,(,0,0,1
4:54.556,106040,N,0,0,0
4:54.803,106129,),0,0,1
4:54.989,106196,(,0,0,2
4:55.039,106214,t,0,0,1
4:55.097,106235,),0,0,2
4:55.342,106323,(,0,0,1
4:55.383,106338,N,0,0,0
4:55.453,106363,),0,0,1
4:55.572,106406,(,0,0,2
4:55.681,106445,t,0,0,0
4:55.758,106473,),0,0,2
4:56.081,106589,(,0,0,1
4:56.186,106627,N,0,0,0
4:56.233,106644,),0,0,1
4:56.289,106664,(,0,0,2
4:56.372,106694,t,0,0,1
4:56.450,106722,),0,0,2
4:57.072,106946,(,0,0,1
4:57.156,106976,N,0,0,0
4:57.336,107041,),0,0,1
4:57.339,107042,t,0,0,3
4:57.503,107101,),0,0,2
4:57.731,107183,(,0,0,1
4:57.769,107197,N,0,0,0
4:57.831,107219,),0,0,1
4:57.869,107233,(,0,0,2
4:58.031,107291,t,0,0,0
4:58.242,107367,),0,0,2
4:58.367,107412,(,0,0,1
4:58.522,107468,N,0,0,0
4:58.581,107489,),0,0,1
4:58.633,107508,(,0,0,2
4:58.736,107545,t,0,0,0
4:59.000,107640,),0,0,2
4:59.236,107725,(,0,0,1
4:59.294,107746,N,0,0,0
4:59.358,107769,),0,0,1
4:59.417,107790,(,0,0,2
4:59.561,107842,t,0,0,0
4:59.783,107922,),0,0,2
5:00.047,108017,(,0,0,1
5:00.086,108031,N,0,0,0
5:00.153,108055,),0,0,1
5:00.222,108080,(,0,0,2
5:00.397,108143,t,0,0,0
5:00.497,108179,),0,0,2
5:02.303,108829,(,0,0,1
5:02.375,108855,N,0,0,0
5:02.550,108918,),0,0,1
5:02.689,108968,t,0,0,3
5:02.856,109028,),0,0,2
5:03.058,109101,(,0,0,1
5:03.103,109117,N,0,0,0
5:03.169,109141,),0,0,1
5:03.214,109157,(,0,0,2
5:03.367,109212,t,0,0,0
5:03.578,109288,),0,0,2
5:03.808,109371,(,0,0,1
5:03.850,109386,N,0,0,0
5:03.914,109409,),0,0,1
5:03.958,109425,(,0,0,2
5:04.117,109482,t,0,0,0
5:04.325,109557,),0,0,2
5:04.547,109637,(,0,0,1
5:04.592,109653,N,0,0,0
5:04.650,109674,),0,0,1
5:04.711,109696,(,0,0,2
5:04.844,109744,t,0,0,0
5:05.039,109814,),0,0,2
5:05.225,109881,(,0,0,1
5:05.314,109913,N,0,0,0
5:05.372,109934,),0,0,1
5:05.456,109964,(,0,0,2
5:05.581,110009,t,0,0,0
5:05.789,110084,),0,0,2
5:06.028,110170,(,0,0,1
5:06.072,110186,N,0,0,0
5:06.161,110218,),0,0,1
5:06.203,110233,(,0,0,2
5:06.347,110285,t,0,0,0
5:06.531,110351,),0,0,2
5:06.808,110451,(,0,0,1
5:06.858,110469,N,0,0,0
5:06.919,110491,),0,0,1
5:06.978,110512,(,0,0,2
5:07.169,110581,t,0,0,0
5:07.381,110657,),0,0,2
5:07.583,110730,(,0,0,1
5:07.631,110747,N,0,0,0
5:07.692,110769,),0,0,1
5:07.736,110785,(,0,0,2
5:07.881,110837,t,0,0,0
5:08.119,110923,),0,0,2
5:08.336,111001,(,0,0,1
5:08.375,111015,N,0,0,0
5:08.439,111038,),0,0,1
5:08.533,111072,(,0,0,2
5:08.639,111110,t,0,0,0
5:08.853,111187,),0,0,2
5:09.078,111268,(,0,0,1
5:09.119,111283,N,0,0,0
5:09.175,111303,),0,0,1
5:09.222,111320,(,0,0,2
5:09.378,111376,t,0,0,0
5:09.575,111447,),0,0,2
5:09.786,111523,(,0,0,1
5:09.831,111539,N,0,0,0
5:09.894,111562,),0,0,1
5:09.931,111575,(,0,0,2
5:10.072,111626,t,0,0,0
5:10.308,111711,),0,0,2
5:10.522,111788,(,0,0,1
5:10.567,111804,N,0,0,0
5:10.625,111825,),0,0,1
5:10.653,111835,(,0,0,2
5:10.786,111883,t,0,0,0
5:11.000,111960,),0,0,2
5:11.236,112045,(,0,0,1
5:11.283,112062,N,0,0,0
5:11.356,112088,),0,0,1
5:11.397,112103,(,0,0,2
5:11.553,112159,t,0,0,0
5:11.772,112238,),0,0,2
5:11.953,112303,(,0,0,1
5:12.067,112344,N,0,0,0
5:12.131,112367,),0,0,1
5:12.242,112407,(,0,0,2
5:12.344,112444,t,0,0,0
5:12.569,112525,),0,0,2
5:12.794,112606,(,0,0,1
5:12.842,112623,N,0,0,0
5:12.908,112647,),0,0,1
5:12.953,112663,(,0,0,2
5:13.111,112720,t,0,0,0
5:13.289,112784,),0,0,2
5:13.517,112866,(,0,0,1
5:13.597,112895,N,0,0,0
5:13.656,112916,),0,0,1
5:13.744,112948,(,0,0,2
5:13.856,112988,t,0,0,0
5:14.042,113055,),0,0,2
5:14.228,113122,(,0,0,1
5:14.331,113159,N,0,0,0
5:14.389,113180,),0,0,1
5:14.456,113204,(,0,0,2
5:14.583,113250,t,0,0,0
5:14.789,113324,),0,0,2
5:14.950,113382,(,0,0,1
5:15.069,113425,N,0,0,0
5:15.133,113448,),0,0,1
5:15.200,113472,(,0,0,2
5:15.331,113519,t,0,0,0
5:15.544,113596,),0,0,2
5:15.775,113679,(,0,0,1
5:15.814,113693,N,0,0,0
5:15.878,113716,),0,0,1
5:15.928,113734,(,0,0,2
5:16.031,113771,t,0,0,0
5:16.103,113797,),0,0,2
5:16.458,113925,(,0,0,1
5:16.556,113960,N,0,0,0
5:16.608,113979,),0,0,1
5:16.683,114006,(,0,0,2
5:16.769,114037,t,0,0,0
5:16.981,114113,),0,0,2
5:17.219,114199,(,0,0,1
5:17.264,114215,N,0,0,0
5:17.328,114238,),0,0,1
5:17.394,114262,(,0,0,2
5:17.525,114309,t,0,0,0
5:17.750,114390,),0,0,2
5:17.983,114474,(,0,0,1
5:18.033,114492,N,0,0,0
5:18.097,114515,),0,0,1
5:18.156,114536,(,0,0,2
5:18.303,114589,t,0,0,0
5:18.528,114670,),0,0,2
5:18.764,114755,(,0,0,1
5:18.808,114771,N,0,0,0
5:18.878,114796,),0,0,1
5:18.922,114812,(,0,0,2
5:19.072,114866,t,0,0,0
5:19.383,114978,),0,0,2
5:19.511,115024,(,0,0,1
5:19.589,115052,N,0,0,0
5:19.650,115074,),0,0,1
5:19.689,115088,(,0,0,2
5:19.839,115142,t,0,0,0
5:20.053,115219,),0,0,2
5:20.300,115308,(,0,0,1
5:20.344,115324,N,0,0,0
5:20.411,115348,),0,0,1
5:20.478,115372,(,0,0,2
5:20.669,115441,t,0,0,0
5:20.817,115494,),0,0,2
5:21.042,115575,(,0,0,1
5:21.089,115592,N,0,0,0
5:21.178,115624,),0,0,1
5:21.214,115637,(,0,0,2
5:21.378,115696,t,0,0,0
5:21.525,115749,),0,0,2
5:21.767,115836,(,0,0,1
5:21.806,115850,N,0,0,0
5:21.864,115871,),0,0,1
5:21.919,115891,(,0,0,2
5:22.069,115945,t,0,0,5
5:22.111,115960,t,0,0,5
5:22.131,115967,),0,0,2
5:22.444,116080,(,0,0,1
5:22.519,116107,N,0,0,0
5:22.567,116124,),0,0,1
5:22.644,116152,(,0,0,2
5:22.803,116209,t,0,0,0
5:22.953,116263,),0,0,2
5:23.200,116352,(,0,0,1
5:23.258,116373,N,0,0,0
5:23.411,116428,),0,0,1
5:23.436,116437,(,0,0,2
5:23.489,116456,t,0,0,5
5:23.750,116550,t,0,0,5
5:23.783,116562,),0,0,2
5:23.961,116626,(,0,0,1
5:24.014,116645,N,0,0,0
5:24.075,116667,),0,0,1
5:24.211,116716,(,0,0,2
5:24.308,116751,t,0,0,0
5:24.422,116792,),0,0,2
5:24.736,116905,(,0,0,1
5:24.783,116922,N,0,0,0
5:24.839,116942,),0,0,1
5:24.917,116970,(,0,0,2
5:25.122,117044,t,0,0,0
5:25.250,117090,),0,0,2
5:25.389,117140,(,0,0,1
5:25.544,117196,N,0,0,0
5:25.597,117215,),0,0,1
5:25.697,117251,(,0,0,2
5:25.786,117283,t,0,0,0
5:25.864,117311,),0,0,2
5:26.236,117445,(,0,0,1
5:26.281,117461,N,0,0,0
5:26.356,117488,),0,0,1
5:26.450,117522,(,0,0,2
5:26.531,117551,t,0,0,0
5:26.614,117581,),0,0,2
5:26.950,117702,(,0,0,1
5:26.989,117716,N,0,0,0
5:27.058,117741,),0,0,1
5:27.119,117763,(,0,0,2
5:27.303,117829,t,0,0,0
5:27.414,117869,),0,0,2
5:27.661,117958,(,0,0,1
5:27.700,117972,N,0,0,0
5:27.728,117982,),0,0,1
5:27.850,118026,(,0,0,2
5:27.997,118079,t,0,0,0
5:28.089,118112,),0,0,2
5:28.183,118146,(,0,0,1
5:28.358,118209,N,0,0,0
5:28.411,118228,),0,0,1
5:28.492,118257,(,0,0,2
5:28.639,118310,t,0,0,0
5:28.775,118359,),0,0,2
5:28.931,118415,(,0,0,1
5:29.014,118445,N,0,0,0
5:29.078,118468,),0,0,1
5:29.200,118512,(,0,0,2
5:29.214,118517,t,0,0,4
5:29.278,118540,t,0,0,4
5:29.311,118552,),0,0,2
5:29.658,118677,(,0,0,1
5:29.703,118693,N,0,0,0
5:29.792,118725,),0,0,1
5:29.850,118746,(,0,0,2
5:29.897,118763,t,0,0,5
5:30.081,118829,t,0,0,5
5:30.094,118834,),0,0,2
5:30.292,118905,(,0,0,1
5:30.381,118937,N,0,0,0
5:30.411,118948,),0,0,1
5:30.522,118988,(,0,0,2
5:30.642,119031,t,0,0,0
5:30.769,119077,),0,0,2
5:31.050,119178,(,0,0,1
5:31.119,119203,N,0,0,0
5:31.156,119216,),0,0,1
5:31.281,119261,(,0,0,2
5:31.378,119296,t,0,0,0
5:31.467,119328,),0,0,2
5:31.661,119398,(,0,0,1
5:31.803,119449,N,0,0,0
5:31.853,119467,),0,0,1
5:31.906,119486,(,0,0,2
5:32.031,119531,t,0,0,0
5:32.111,119560,),0,0,2
5:32.417,119670,(,0,0,1
5:32.492,119697,N,0,0,0
5:32.550,119718,),0,0,1
5:32.697,119771,(,0,0,2
5:32.714,119777,t,0,0,4
5:32.814,119813,t,0,0,4
5:32.864,119831,),0,0,2
5:33.089,119912,(,0,0,1
5:33.178,119944,N,0,0,0
5:33.222,119960,),0,0,1
5:33.311,119992,(,0,0,2
5:33.397,120023,t,0,0,0
5:33.497,120059,),0,0,2
5:33.744,120148,(,0,0,1
5:33.822,120176,N,0,0,0
5:33.872,120194,),0,0,1
5:33.933,120216,(,0,0,2
5:34.003,120241,t,0,0,5
5:34.119,120283,t,0,0,5
5:34.142,120291,),0,0,2
5:34.378,120376,(,0,0,1
5:34.508,120423,N,0,0,0
5:34.561,120442,),0,0,1
5:34.647,120473,(,0,0,2
5:34.736,120505,t,0,0,0
5:34.847,120545,),0,0,2
5:35.136,120649,(,0,0,1
5:35.206,120674,N,0,0,0
5:35.269,120697,),0,0,1
5:35.353,120727,(,0,0,2
5:35.453,120763,t,0,0,0
5:35.572,120806,),0,0,2
5:35.856,120908,(,0,0,1
5:35.903,120925,N,0,0,0
5:35.972,120950,),0,0,1
5:36.014,120965,(,0,0,2
5:36.167,121020,t,0,0,0
5:36.406,121106,),0,0,2
5:36.622,121184,(,0,0,1
5:36.669,121201,N,0,0,0
5:36.733,121224,),0,0,1
5:36.786,121243,(,0,0,2
5:36.925,121293,t,0,0,0
5:37.067,121344,),0,0,2
5:37.344,121444,(,0,0,1
5:37.392,121461,N,0,0,0
5:37.456,121484,),0,0,1
5:37.519,121507,(,0,0,2
5:37.633,121548,t,0,0,0
5:37.750,121590,),0,0,2
5:38.044,121696,(,0,0,1
5:38.086,121711,N,0,0,0
5:38.153,121735,),0,0,1
5:38.178,121744,(,0,0,2
5:38.333,121800,t,0,0,0
5:38.483,121854,),0,0,2
5:38.772,121958,(,0,0,1
5:38.819,121975,N,0,0,0
5:38.883,121998,),0,0,1
5:38.983,122034,(,0,0,2
5:39.047,122057,t,0,0,0
5:39.222,122120,),0,0,2
5:39.461,122206,(,0,0,1
5:39.503,122221,N,0,0,0
5:39.567,122244,),0,0,1
5:39.631,122267,(,0,0,2
5:39.742,122307,t,0,0,0
5:40.031,122411,),0,0,2
5:40.206,122474,(,0,0,1
5:40.247,122489,N,0,0,0
5:40.314,122513,),0,0,1
5:40.367,122532,(,0,0,2
5:40.536,122593,t,0,0,0
5:40.728,122662,),0,0,2
5:40.919,122731,(,0,0,1
5:40.961,122746,N,0,0,0
5:41.025,122769,),0,0,1
5:41.119,122803,(,0,0,2
5:41.200,122832,t,0,0,0
5:41.250,122850,),0,0,2
5:41.347,122885,(,0,0,1
5:41.458,122925,N,0,0,0
5:41.617,122982,),0,0,1
5:41.658,122997,(,0,0,1
5:41.733,123024,N,0,0,0
5:41.800,123048,),0,0,1
5:41.883,123078,(,0,0,2
5:42.011,123124,t,0,0,0
5:42.125,123165,),0,0,2
5:42.492,123297,(,0,0,1
5:42.542,123315,N,0,0,0
5:42.606,123338,),0,0,1
5:42.667,123360,(,0,0,2
5:42.806,123410,t,0,0,0
5:42.922,123452,),0,0,2
5:43.292,123585,(,0,0,1
5:43.339,123602,N,0,0,0
5:43.403,123625,),0,0,1
5:43.572,123686,(,0,0,2
5:43.683,123726,t,0,0,0
5:43.778,123760,),0,0,2
5:44.081,123869,(,0,0,1
5:44.122,123884,N,0,0,0
5:44.186,123907,),0,0,1
5:44.272,123938,(,0,0,2
5:44.356,123968,t,0,0,0
5:44.433,123996,),0,0,2
5:44.836,124141,(,0,0,1
5:44.886,124159,N,0,0,0
5:44.944,124180,),0,0,1
5:44.994,124198,(,0,0,2
5:45.203,124273,t,0,0,0
5:45.322,124316,),0,0,2
5:45.597,124415,(,0,0,1
5:45.642,124431,N,0,0,0
5:45.708,124455,),0,0,1
5:45.758,124473,(,0,0,2
5:45.883,124518,t,0,0,0
5:46.106,124598,),0,0,2
5:46.353,124687,(,0,0,1
5:46.397,124703,N,0,0,0
5:46.456,124724,),0,0,1
5:46.517,124746,(,0,0,2
5:46.633,124788,t,0,0,0
5:46.858,124869,),0,0,2
5:47.108,124959,(,0,0,1
5:47.158,124977,N,0,0,0
5:47.222,125000,),0,0,1
5:47.281,125021,(,0,0,2
5:47.422,125072,t,0,0,0
5:47.636,125149,),0,0,2
5:47.900,125244,(,0,0,1
5:47.944,125260,N,0,0,0
5:48.011,125284,),0,0,1
5:48.075,125307,(,0,0,2
5:48.208,125355,t,0,0,0
5:48.433,125436,),0,0,2
5:48.683,125526,(,0,0,1
5:48.728,125542,N,0,0,0
5:48.789,125564,),0,0,1
5:48.828,125578,(,0,0,2
5:49.106,125678,t,0,0,0
5:49.211,125716,),0,0,2
5:49.469,125809,(,0,0,1
5:49.517,125826,N,0,0,0
5:49.572,125846,),0,0,1
5:49.625,125865,(,0,0,2
5:49.744,125908,t,0,0,0
5:49.867,125952,),0,0,2
5:50.236,126085,(,0,0,1
5:50.278,126100,N,0,0,0
5:50.339,126122,),0,0,1
5:50.383,126138,(,0,0,2
5:50.525,126189,t,0,0,0
5:50.736,126265,),0,0,2
5:50.992,126357,(,0,0,1
5:51.036,126373,N,0,0,0
5:51.100,126396,),0,0,1
5:51.128,126406,(,0,0,2
5:51.283,126462,t,0,0,0
5:51.500,126540,),0,0,2
5:51.756,126632,(,0,0,1
5:51.800,126648,N,0,0,0
5:51.864,126671,),0,0,1
5:51.908,126687,(,0,0,2
5:52.050,126738,t,0,0,0
5:52.150,126774,),0,0,2
5:52.489,126896,(,0,0,1
5:52.536,126913,N,0,0,0
5:52.594,126934,),0,0,1
5:52.678,126964,(,0,0,2
5:52.764,126995,t,0,0,0
5:52.975,127071,),0,0,2
5:53.228,127162,(,0,0,1
5:53.275,127179,N,0,0,0
5:53.339,127202,),0,0,1
5:53.383,127218,(,0,0,2
5:53.525,127269,t,0,0,0
5:53.750,127350,),0,0,2
5:54.011,127444,(,0,0,1
5:54.056,127460,N,0,0,0
5:54.122,127484,),0,0,1
5:54.172,127502,(,0,0,2
5:54.325,127557,t,0,0,0
5:54.556,127640,),0,0,2
5:54.817,127734,(,0,0,1
5:54.864,127751,N,0,0,0
5:54.931,127775,),0,0,1
5:54.983,127794,(,0,0,2
5:55.117,127842,t,0,0,0
5:55.261,127894,),0,0,2
5:55.603,128017,(,0,0,1
5:55.644,128032,N,0,0,0
5:55.706,128054,),0,0,1
5:55.753,128071,(,0,0,2
5:55.883,128118,t,0,0,0
5:56.122,128204,),0,0,2
5:56.369,128293,(,0,0,1
5:56.417,128310,N,0,0,0
5:56.478,128332,),0,0,1
5:56.497,128339,(,0,0,2
5:56.661,128398,t,0,0,0
5:56.803,128449,),0,0,2
5:57.114,128561,(,0,0,1
5:57.161,128578,N,0,0,0
5:57.222,128600,),0,0,1
5:57.278,128620,(,0,0,2
5:57.397,128663,t,0,0,0
5:57.606,128738,),0,0,2
5:57.856,128828,(,0,0,1
5:57.897,128843,N,0,0,0
5:57.961,128866,),0,0,1
5:57.992,128877,(,0,0,2
5:58.147,128933,t,0,0,0
5:58.356,129008,),0,0,2
5:58.589,129092,(,0,0,1
5:58.631,129107,N,0,0,0
5:58.686,129127,),0,0,1
5:58.753,129151,(,0,0,2
5:58.875,129195,t,0,0,0
5:59.097,129275,),0,0,2
5:59.344,129364,(,0,0,1
5:59.392,129381,N,0,0,0
5:59.453,129403,),0,0,1
5:59.508,129423,(,0,0,2
5:59.653,129475,t,0,0,0
5:59.881,129557,),0,0,2
6:00.147,129653,(,0,0,1
6:00.194,129670,N,0,0,0
6:00.258,129693,),0,0,1
6:00.311,129712,(,0,0,2
6:00.444,129760,t,0,0,0
6:00.617,129822,),0,0,2
6:00.942,129939,(,0,0,1
6:00.989,129956,N,0,0,0
6:01.053,129979,),0,0,1
6:01.106,129998,(,0,0,2
6:01.233,130044,t,0,0,0
6:01.369,130093,),0,0,2
6:01.703,130213,(,0,0,1
6:01.747,130229,N,0,0,0
6:01.811,130252,),0,0,1
6:01.858,130269,(,0,0,2
6:01.992,130317,t,0,0,0
6:02.117,130362,),0,0,2
6:02.458,130485,(,0,0,1
6:02.508,130503,N,0,0,0
6:02.572,130526,),0,0,1
6:02.608,130539,(,0,0,2
6:02.761,130594,t,0,0,0
6:02.897,130643,),0,0,2
6:03.242,130767,(,0,0,1
6:03.286,130783,N,0,0,0
6:03.347,130805,),0,0,1
6:03.400,130824,(,0,0,2
6:03.519,130867,t,0,0,0
6:03.739,130946,),0,0,2
6:03.997,131039,(,0,0,1
6:04.042,131055,N,0,0,0
6:04.103,131077,),0,0,1
6:04.158,131097,(,0,0,2
6:04.278,131140,t,0,0,0
6:04.458,131205,),0,0,2
6:04.708,131295,(,0,0,1
6:04.756,131312,N,0,0,0
6:04.847,131345,),0,0,1
6:04.911,131368,(,0,0,2
6:04.994,131398,t,0,0,0
6:05.219,131479,),0,0,2
6:05.481,131573,(,0,0,1
6:05.528,131590,N,0,0,0
6:05.592,131613,),0,0,1
6:05.639,131630,(,0,0,2
6:05.778,131680,t,0,0,0
6:06.017,131766,),0,0,2
6:06.281,131861,(,0,0,1
6:06.325,131877,N,0,0,0
6:06.389,131900,),0,0,1
6:06.431,131915,(,0,0,2
6:06.569,131965,t,0,0,0
6:06.808,132051,),0,0,2
6:07.075,132147,(,0,0,1
6:07.122,132164,N,0,0,0
6:07.186,132187,),0,0,1
6:07.231,132203,(,0,0,2
6:07.364,132251,t,0,0,0
6:07.594,132334,),0,0,2
6:07.858,132429,(,0,0,1
6:07.906,132446,N,0,0,0
6:07.972,132470,),0,0,1
6:08.019,132487,(,0,0,2
6:08.167,132540,t,0,0,0
6:08.378,132616,),0,0,2
6:08.631,132707,(,0,0,1
6:08.678,132724,N,0,0,0
6:08.739,132746,),0,0,1
6:08.792,132765,(,0,0,2
6:08.917,132810,t,0,0,0
6:09.128,132886,),0,0,2
6:09.372,132974,(,0,0,1
6:09.419,132991,N,0,0,0
6:09.478,133012,),0,0,1
6:09.528,133030,(,0,0,2
6:09.653,133075,t,0,0,0
6:09.869,133153,),0,0,2
6:10.122,133244,(,0,0,1
6:10.167,133260,N,0,0,0
6:10.231,133283,),0,0,1
6:10.275,133299,(,0,0,2
6:10.400,133344,t,0,0,0
6:10.711,133456,),0,0,2
6:10.878,133516,(,0,0,1
6:10.922,133532,N,0,0,0
6:10.989,133556,),0,0,1
6:11.047,133577,(,0,0,2
6:11.178,133624,t,0,0,0
6:11.400,133704,),0,0,2
6:11.656,133796,(,0,0,1
6:11.700,133812,N,0,0,0
6:11.764,133835,),0,0,1
6:11.819,133855,(,0,0,2
6:11.958,133905,t,0,0,0
6:12.197,133991,),0,0,2
6:12.456,134084,(,0,0,1
6:12.503,134101,N,0,0,0
6:12.567,134124,),0,0,1
6:12.619,134143,(,0,0,2
6:12.753,134191,t,0,0,0
6:12.978,134272,),0,0,2
6:13.244,134368,(,0,0,1
6:13.292,134385,N,0,0,0
6:13.353,134407,),0,0,1
6:13.381,134417,(,0,0,2
6:13.533,134472,t,0,0,0
6:13.756,134552,),0,0,2
6:14.014,134645,(,0,0,1
6:14.061,134662,N,0,0,0
6:14.128,134686,),0,0,1
6:14.178,134704,(,0,0,2
6:14.314,134753,t,0,0,0
6:14.531,134831,),0,0,2
6:14.792,134925,(,0,0,1
6:14.839,134942,N,0,0,0
6:14.900,134964,),0,0,1
6:14.933,134976,(,0,0,2
6:15.086,135031,t,0,0,0
6:15.311,135112,),0,0,2
6:15.561,135202,(,0,0,1
6:15.606,135218,N,0,0,0
6:15.672,135242,),0,0,1
6:15.717,135258,(,0,0,2
6:15.853,135307,t,0,0,0
6:16.075,135387,),0,0,2
6:16.317,135474,(,0,0,1
6:16.364,135491,N,0,0,0
6:16.425,135513,),0,0,1
6:16.464,135527,(,0,0,2
6:16.597,135575,t,0,0,0
6:16.808,135651,),0,0,2
6:17.072,135746,(,0,0,1
6:17.119,135763,N,0,0,0
6:17.181,135785,),0,0,1
6:17.222,135800,(,0,0,2
6:17.367,135852,t,0,0,0
6:17.592,135933,),0,0,2
6:17.858,136029,(,0,0,1
6:17.906,136046,N,0,0,0
6:17.972,136070,),0,0,1
6:18.019,136087,(,0,0,2
6:18.167,136140,t,0,0,0
6:18.397,136223,),0,0,2
6:18.678,136324,(,0,0,1
6:18.728,136342,N,0,0,0
6:18.792,136365,),0,0,1
6:18.842,136383,(,0,0,2
6:18.989,136436,t,0,0,0
6:19.228,136522,),0,0,2
6:19.497,136619,(,0,0,1
6:19.542,136635,N,0,0,0
6:19.606,136658,),0,0,1
6:19.647,136673,(,0,0,2
6:19.786,136723,t,0,0,0
6:20.017,136806,),0,0,2
6:20.283,136902,(,0,0,1
6:20.331,136919,N,0,0,0
6:20.392,136941,),0,0,1
6:20.433,136956,(,0,0,2
6:20.567,137004,t,0,0,0
6:20.783,137082,),0,0,2
6:21.039,137174,(,0,0,1
6:21.086,137191,N,0,0,0
6:21.150,137214,),0,0,1
6:21.200,137232,(,0,0,2
6:21.328,137278,t,0,0,0
6:21.478,137332,),0,0,2
6:21.806,137450,(,0,0,1
6:21.850,137466,N,0,0,0
6:21.911,137488,),0,0,1
6:21.964,137507,(,0,0,2
6:22.103,137557,t,0,0,0
6:22.231,137603,),0,0,2
6:22.561,137722,(,0,0,1
6:22.600,137736,N,0,0,0
6:22.656,137756,),0,0,1
6:22.700,137772,(,0,0,2
6:22.833,137820,t,0,0,0
6:22.975,137871,),0,0,2
6:23.328,137998,(,0,0,1
6:23.372,138014,N,0,0,0
6:23.439,138038,),0,0,1
6:23.489,138056,(,0,0,2
6:23.633,138108,t,0,0,0
6:23.772,138158,),0,0,2
6:24.156,138296,(,0,0,1
6:24.200,138312,N,0,0,0
6:24.267,138336,),0,0,1
6:24.319,138355,(,0,0,2
6:24.456,138404,t,0,0,0
6:24.586,138451,),0,0,2
6:24.947,138581,(,0,0,1
6:25.022,138608,N,0,0,0
6:25.111,138640,),0,0,1
6:25.122,138644,(,0,0,2
6:25.294,138706,t,0,0,0
6:25.394,138742,),0,0,2
6:25.764,138875,(,0,0,1
6:25.811,138892,N,0,0,0
6:25.878,138916,),0,0,1
6:25.922,138932,(,0,0,2
6:26.064,138983,t,0,0,0
6:26.219,139039,),0,0,2
6:26.561,139162,(,0,0,1
6:26.614,139181,N,0,0,0
6:26.678,139204,),0,0,1
6:26.742,139227,(,0,0,2
6:26.881,139277,t,0,0,0
6:27.019,139327,),0,0,2
6:27.367,139452,(,0,0,1
6:27.417,139470,N,0,0,0
6:27.475,139491,),0,0,1
6:27.503,139501,(,0,0,2
6:27.653,139555,t,0,0,0
6:27.781,139601,),0,0,2
6:28.114,139721,(,0,0,1
6:28.192,139749,N,0,0,0
6:28.253,139771,),0,0,1
6:28.300,139788,(,0,0,2
6:28.428,139834,t,0,0,0
6:28.639,139910,),0,0,2
6:28.900,140004,(,0,0,1
6:28.947,140021,N,0,0,0
6:29.011,140044,),0,0,1
6:29.061,140062,(,0,0,2
6:29.200,140112,t,0,0,0
6:29.350,140166,),0,0,2
6:29.703,140293,(,0,0,1
6:29.753,140311,N,0,0,0
6:29.814,140333,),0,0,1
6:29.881,140357,(,0,0,2
6:30.036,140413,t,0,0,0
6:30.156,140456,),0,0,2
6:30.522,140588,(,0,0,1
6:30.569,140605,N,0,0,0
6:30.633,140628,),0,0,1
6:30.686,140647,(,0,0,2
6:30.831,140699,t,0,0,0
6:30.989,140756,),0,0,2
6:31.364,140891,(,0,0,1
6:31.411,140908,N,0,0,0
6:31.472,140930,),0,0,1
6:31.517,140946,(,0,0,2
6:31.669,141001,t,0,0,0
6:31.817,141054,),0,0,2
6:32.183,141186,(,0,0,1
6:32.225,141201,N,0,0,0
6:32.286,141223,),0,0,1
6:32.339,141242,(,0,0,2
6:32.467,141288,t,0,0,0
6:32.600,141336,),0,0,2
6:32.969,141469,(,0,0,1
6:33.017,141486,N,0,0,0
6:33.072,141506,),0,0,1
6:33.111,141520,(,0,0,2
6:33.264,141575,t,0,0,0
6:33.486,141655,),0,0,2
6:33.742,141747,(,0,0,1
6:33.789,141764,N,0,0,0
6:33.850,141786,),0,0,1
6:33.894,141802,(,0,0,2
6:34.031,141851,t,0,0,0
6:34.264,141935,),0,0,2
6:34.528,142030,(,0,0,1
6:34.572,142046,N,0,0,0
6:34.625,142065,),0,0,1
6:34.656,142076,(,0,0,2
6:34.806,142130,t,0,0,0
6:34.956,142184,),0,0,2
6:35.319,142315,(,0,0,1
6:35.367,142332,N,0,0,0
6:35.428,142354,),0,0,1
6:35.472,142370,(,0,0,2
6:35.622,142424,t,0,0,0
6:35.811,142492,),0,0,2
6:36.161,142618,(,0,0,1
6:36.208,142635,N,0,0,0
6:36.275,142659,),0,0,1
6:36.319,142675,(,0,0,2
6:36.464,142727,t,0,0,0
6:36.606,142778,),0,0,2
6:36.975,142911,(,0,0,1
6:37.025,142929,N,0,0,0
6:37.089,142952,),0,0,1
6:37.128,142966,(,0,0,2
6:37.289,143024,t,0,0,0
6:37.419,143071,),0,0,2
6:37.786,143203,(,0,0,1
6:37.836,143221,N,0,0,0
6:37.897,143243,),0,0,1
6:37.950,143262,(,0,0,2
6:38.092,143313,t,0,0,0
6:38.336,143401,),0,0,2
6:51.611,148180,(,0,0,1
6:51.656,148196,N,0,0,0
6:51.714,148217,),0,0,1
6:51.764,148235,(,0,0,2
6:51.900,148284,t,0,0,0
6:52.039,148334,),0,0,2
6:52.403,148465,(,0,0,1
6:52.450,148482,N,0,0,0
6:52.508,148503,),0,0,1
6:52.553,148519,(,0,0,2
6:52.672,148562,t,0,0,0
6:52.914,148649,),0,0,2
6:59.108,150879,(,0,0,1
6:59.183,150906,N,0,0,0
6:59.239,150926,),0,0,1
6:59.589,151052,(,0,0,2
6:59.633,151068,t,0,0,1
7:00.053,151219,),0,0,2
7:03.564,152483,(,0,0,1
7:03.611,152500,N,0,0,0
7:03.672,152522,),0,0,1
7:03.711,152536,(,0,0,2
7:03.861,152590,t,0,0,0
7:04.111,152680,),0,0,2
7:08.300,154188,(,0,0,1
7:08.347,154205,N,0,0,0
7:08.403,154225,),0,0,1
7:08.447,154241,(,0,0,2
7:08.589,154292,t,0,0,0
7:08.728,154342,),0,0,2
7:10.569,155005,(,0,0,1
7:10.608,155019,N,0,0,0
7:10.667,155040,),0,0,1
7:10.722,155060,(,0,0,2
7:10.858,155109,t,0,0,0
7:11.086,155191,),0,0,2
7:23.883,159798,(,0,0,1
7:23.925,159813,N,0,0,0
7:24.089,159872,),0,0,1
7:24.267,159936,t,0,0,3
7:24.386,159979,),0,0,2
7:33.919,163411,(,0,0,1
7:33.961,163426,N,0,0,0
7:34.036,163453,),0,0,1
7:34.100,163476,(,0,0,2
7:34.197,163511,t,0,0,0
7:34.331,163559,),0,0,2
7:41.578,166168,(,0,0,1
7:41.653,166195,N,0,0,0
7:41.717,166218,),0,0,1
7:41.778,166240,(,0,0,2
7:41.875,166275,t,0,0,0
7:42.025,166329,),0,0,2
7:43.986,167035,(,0,0,1
7:44.036,167053,N,0,0,0
7:44.131,167087,),0,0,1
7:44.233,167124,(,0,0,2
7:44.278,167140,t,0,0,0
7:44.442,167199,),0,0,2
7:44.764,167315,(,0,0,1
7:44.811,167332,N,0,0,0
7:44.892,167361,),0,0,1
7:44.928,167374,(,0,0,2
7:45.058,167421,t,0,0,0
7:45.122,167444,),0,0,2
7:45.497,167579,(,0,0,1
7:45.556,167600,N,0,0,0
7:45.622,167624,),0,0,1
7:45.703,167653,(,0,0,2
7:45.806,167690,t,0,0,0
7:45.906,167726,),0,0,2
7:46.272,167858,(,0,0,1
7:46.314,167873,N,0,0,0
7:46.411,167908,),0,0,1
7:46.447,167921,(,0,0,2
7:46.528,167950,t,0,0,5
7:46.761,168034,t,0,0,5
7:46.778,168040,),0,0,2
7:47.028,168130,(,0,0,1
7:47.069,168145,N,0,0,0
7:47.153,168175,),0,0,1
7:47.289,168224,(,0,0,2
7:47.339,168242,t,0,0,0
7:47.419,168271,),0,0,2
7:48.594,168694,(,0,0,1
7:48.639,168710,N,0,0,0
7:48.719,168739,),0,0,1
7:48.747,168749,(,0,0,2
7:48.886,168799,t,0,0,0
7:49.033,168852,),0,0,2
7:50.139,169250,(,0,0,1
7:50.178,169264,N,0,0,0
7:50.244,169288,),0,0,1
7:50.331,169319,(,0,0,2
7:50.442,169359,t,0,0,0
7:50.569,169405,),0,0,2
7:50.900,169524,(,0,0,1
7:50.942,169539,N,0,0,0
7:51.008,169563,),0,0,1
7:51.056,169580,(,0,0,2
7:51.278,169660,t,0,0,0
7:51.428,169714,),0,0,2
7:51.658,169797,(,0,0,1
7:51.706,169814,N,0,0,0
7:51.764,169835,),0,0,1
7:51.878,169876,(,0,0,2
7:51.933,169896,t,0,0,0
7:52.072,169946,),0,0,2
7:52.358,170049,(,0,0,1
7:52.442,170079,N,0,0,0
7:52.503,170101,),0,0,1
7:52.575,170127,(,0,0,2
7:52.697,170171,t,0,0,0
7:52.775,170199,),0,0,2
7:53.122,170324,(,0,0,1
7:53.164,170339,N,0,0,0
7:53.228,170362,),0,0,1
7:53.275,170379,(,0,0,2
7:53.414,170429,t,0,0,0
7:53.578,170488,),0,0,2
7:53.903,170605,(,0,0,1
7:53.956,170624,N,0,0,0
7:54.028,170650,),0,0,1
7:54.089,170672,(,0,0,2
7:54.242,170727,t,0,0,0
7:54.386,170779,),0,0,2
7:54.706,170894,(,0,0,1
7:54.781,170921,N,0,0,0
7:54.944,170980,),0,0,1
7:54.961,170986,(,0,0,2
7:55.158,171057,t,0,0,0
7:55.336,171121,),0,0,2
7:55.519,171187,(,0,0,1
7:55.561,171202,N,0,0,0
7:55.631,171227,),0,0,1
7:55.800,171288,(,0,0,2
7:55.825,171297,t,0,0,0
7:55.950,171342,),0,0,2
7:56.275,171459,(,0,0,1
7:56.319,171475,N,0,0,0
7:56.383,171498,),0,0,1
7:56.447,171521,(,0,0,2
7:56.594,171574,t,0,0,0
7:56.669,171601,),0,0,2
7:57.022,171728,(,0,0,1
7:57.064,171743,N,0,0,0
7:57.122,171764,),0,0,1
7:57.258,171813,(,0,0,2
7:57.339,171842,t,0,0,0
7:57.425,171873,),0,0,2
7:57.717,171978,(,0,0,1
7:57.808,172011,N,0,0,0
7:57.897,172043,),0,0,1
7:57.969,172069,(,0,0,2
7:58.039,172094,t,0,0,0
7:58.189,172148,),0,0,2
7:59.214,172517,(,0,0,1
7:59.303,172549,N,0,0,0
7:59.400,172584,),0,0,1
7:59.450,172602,(,0,0,2
7:59.544,172636,t,0,0,5
7:59.719,172699,t,0,0,5
7:59.739,172706,),0,0,2
8:00.033,172812,(,0,0,1
8:00.078,172828,N,0,0,0
8:00.147,172853,),0,0,1
8:00.219,172879,(,0,0,2
8:00.347,172925,t,0,0,0
8:00.472,172970,),0,0,2
8:00.819,173095,(,0,0,1
8:00.867,173112,N,0,0,0
8:00.931,173135,),0,0,1
8:00.983,173154,(,0,0,2
8:01.122,173204,t,0,0,0
8:01.417,173310,),0,0,2
8:01.594,173374,(,0,0,1
8:01.642,173391,N,0,0,0
8:01.706,173414,),0,0,1
8:01.747,173429,(,0,0,2
8:01.908,173487,t,0,0,0
8:02.217,173598,),0,0,2
8:02.375,173655,(,0,0,1
8:02.422,173672,N,0,0,0
8:02.492,173697,),0,0,1
8:02.564,173723,(,0,0,2
8:02.706,173774,t,0,0,0
8:02.736,173785,),0,0,2
8:03.136,173929,(,0,0,1
8:03.183,173946,N,0,0,0
8:03.247,173969,),0,0,1
8:03.303,173989,(,0,0,2
8:03.433,174036,t,0,0,0
8:03.653,174115,),0,0,2
8:03.892,174201,(,0,0,1
8:03.939,174218,N,0,0,0
8:03.997,174239,),0,0,1
8:04.039,174254,(,0,0,2
8:04.183,174306,t,0,0,0
8:04.306,174350,),0,0,2
8:04.617,174462,(,0,0,1
8:04.661,174478,N,0,0,0
8:04.722,174500,),0,0,1
8:04.781,174521,(,0,0,2
8:04.908,174567,t,0,0,0
8:05.139,174650,),0,0,2
8:05.389,174740,(,0,0,1
8:05.436,174757,N,0,0,0
8:05.500,174780,),0,0,1
8:05.556,174800,(,0,0,2
8:05.706,174854,t,0,0,0
8:05.928,174934,),0,0,2
8:06.186,175027,(,0,0,1
8:06.233,175044,N,0,0,0
8:06.300,175068,),0,0,1
8:06.383,175098,(,0,0,2
8:06.503,175141,t,0,0,0
8:06.828,175258,),0,0,2
8:07.775,175599,(,0,0,1
8:07.822,175616,N,0,0,0
8:07.883,175638,),0,0,1
8:07.950,175662,(,0,0,2
8:08.086,175711,t,0,0,0
8:08.200,175752,),0,0,2
8:09.303,176149,(,0,0,1
8:09.347,176165,N,0,0,0
8:09.408,176187,),0,0,1
8:09.456,176204,(,0,0,2
8:09.589,176252,t,0,0,0
8:09.825,176337,),0,0,2
8:10.061,176422,(,0,0,1
8:10.111,176440,N,0,0,0
8:10.169,176461,),0,0,1
8:10.256,176492,(,0,0,2
8:10.344,176524,t,0,0,5
8:10.494,176578,t,0,0,5
8:10.522,176588,),0,0,2
8:10.817,176694,(,0,0,1
8:10.864,176711,N,0,0,0
8:10.925,176733,),0,0,1
8:11.017,176766,(,0,0,2
8:11.150,176814,t,0,0,0
8:11.244,176848,),0,0,2
8:11.600,176976,(,0,0,1
8:11.650,176994,N,0,0,0
8:11.708,177015,),0,0,1
8:11.764,177035,(,0,0,2
8:11.911,177088,t,0,0,0
8:12.008,177123,),0,0,2
8:14.708,178095,(,0,0,1
8:14.781,178121,N,0,0,0
8:14.922,178172,),0,0,1
8:14.939,178178,(,0,0,2
8:15.028,178210,t,0,0,0
8:15.156,178256,),0,0,2
8:15.514,178385,(,0,0,1
8:15.558,178401,N,0,0,0
8:15.617,178422,),0,0,1
8:15.653,178435,(,0,0,2
8:15.811,178492,t,0,0,0
8:15.936,178537,),0,0,2
9:12.219,198799,(,0,0,1
9:12.264,198815,N,0,0,0
9:12.328,198838,),0,0,1
9:12.397,198863,(,0,0,2
9:12.531,198911,t,0,0,0
9:12.692,198969,),0,0,2
9:12.850,199026,(,0,0,0
9:12.947,199061,p,0,0,0
9:13.019,199087,),0,0,0
9:13.044,199096,(,0,0,1
9:13.092,199113,N,0,0,0
9:13.156,199136,),0,0,1
9:13.194,199150,(,0,0,2
9:13.356,199208,t,0,0,0
9:13.506,199262,),0,0,2
9:13.692,199329,(,0,0,0
9:13.736,199345,p,0,0,0
9:13.847,199385,),0,0,0
9:13.872,199394,(,0,0,1
9:13.922,199412,N,0,0,0
9:13.989,199436,),0,0,1
9:14.033,199452,(,0,0,2
9:14.197,199511,t,0,0,0
9:14.414,199589,),0,0,2
9:14.664,199679,(,0,0,1
9:14.742,199707,N,0,0,0
9:14.803,199729,),0,0,1
9:14.850,199746,(,0,0,2
9:14.994,199798,t,0,0,0
9:15.125,199845,),0,0,2
9:15.289,199904,(,0,0,0
9:15.328,199918,p,0,0,0
9:15.356,199928,),0,0,0
9:15.481,199973,(,0,0,1
9:15.528,199990,N,0,0,0
9:15.586,200011,),0,0,1
9:15.642,200031,(,0,0,2
9:15.764,200075,t,0,0,0
9:15.925,200133,),0,0,2
9:15.986,200155,(,0,0,0
9:16.083,200190,p,0,0,0
9:16.156,200216,),0,0,0
9:16.256,200252,(,0,0,1
9:16.306,200270,N,0,0,0
9:16.364,200291,),0,0,1
9:16.425,200313,(,0,0,2
9:16.544,200356,t,0,0,0
9:16.767,200436,),0,0,2
9:16.789,200444,(,0,0,0
9:16.933,200496,p,0,0,0
9:16.958,200505,),0,0,0
9:17.042,200535,(,0,0,1
9:17.089,200552,N,0,0,0
9:17.147,200573,),0,0,1
9:17.175,200583,(,0,0,2
9:17.342,200643,t,0,0,0
9:17.558,200721,),0,0,2
9:17.864,200831,(,0,0,1
9:17.911,200848,N,0,0,0
9:17.978,200872,),0,0,1
9:18.033,200892,(,0,0,2
9:18.178,200944,t,0,0,0
9:18.358,201009,),0,0,2
9:18.717,201138,(,0,0,1
9:18.767,201156,N,0,0,0
9:18.833,201180,),0,0,1
9:18.897,201203,(,0,0,2
9:19.044,201256,t,0,0,0
9:19.242,201327,),0,0,2
9:19.542,201435,(,0,0,1
9:19.589,201452,N,0,0,0
9:19.650,201474,),0,0,1
9:19.708,201495,(,0,0,2
9:19.842,201543,t,0,0,0
9:20.058,201621,),0,0,2
9:20.350,201726,(,0,0,1
9:20.394,201742,N,0,0,0
9:20.456,201764,),0,0,1
9:20.500,201780,(,0,0,2
9:20.647,201833,t,0,0,0
9:20.869,201913,),0,0,2
9:21.067,201984,(,0,0,0
9:21.094,201994,p,0,0,0
9:21.117,202002,),0,0,0
9:21.150,202014,(,0,0,1
9:21.194,202030,N,0,0,0
9:21.258,202053,),0,0,1
9:21.317,202074,(,0,0,2
9:21.456,202124,t,0,0,0
9:21.589,202172,),0,0,2
9:21.856,202268,(,0,0,0
9:21.875,202275,p,0,0,0
9:21.931,202295,),0,0,0
9:21.964,202307,(,0,0,1
9:22.006,202322,N,0,0,0
9:22.075,202347,),0,0,1
9:22.136,202369,(,0,0,2
9:22.256,202412,t,0,0,0
9:22.397,202463,),0,0,2
9:22.642,202551,(,0,0,1
9:22.778,202600,N,0,0,0
9:22.833,202620,),0,0,1
9:22.928,202654,(,0,0,2
9:23.028,202690,t,0,0,0
9:23.186,202747,),0,0,2
9:23.544,202876,(,0,0,1
9:23.592,202893,N,0,0,0
9:23.653,202915,),0,0,1
9:23.681,202925,(,0,0,2
9:23.856,202988,t,0,0,0
9:24.011,203044,),0,0,2
9:24.378,203176,(,0,0,1
9:24.425,203193,N,0,0,0
9:24.492,203217,),0,0,1
9:24.547,203237,(,0,0,2
9:24.694,203290,t,0,0,0
9:24.858,203349,),0,0,2
9:25.206,203474,(,0,0,1
9:25.253,203491,N,0,0,0
9:25.317,203514,),0,0,1
9:25.339,203522,(,0,0,2
9:25.514,203585,t,0,0,0
9:25.633,203628,),0,0,2
9:25.861,203710,(,0,0,0
9:25.883,203718,p,0,0,0
9:25.911,203728,),0,0,0
9:25.931,203735,(,0,0,1
9:26.075,203787,N,0,0,0
9:26.133,203808,),0,0,1
9:26.208,203835,(,0,0,2
9:26.339,203882,t,0,0,0
9:26.464,203927,),0,0,2
9:26.786,204043,(,0,0,1
9:26.889,204080,N,0,0,0
9:26.950,204102,),0,0,1
9:27.017,204126,(,0,0,2
9:27.147,204173,t,0,0,0
9:27.269,204217,),0,0,2
9:27.456,204284,(,0,0,0
9:27.528,204310,p,0,0,0
9:27.594,204334,),0,0,0
9:27.625,204345,(,0,0,1
9:27.669,204361,N,0,0,0
9:27.731,204383,),0,0,1
9:27.806,204410,(,0,0,2
9:27.936,204457,t,0,0,0
9:28.058,204501,),0,0,2
9:28.181,204545,(,0,0,0
9:28.247,204569,p,0,0,0
9:28.264,204575,),0,0,0
9:28.375,204615,(,0,0,1
9:28.447,204641,N,0,0,0
9:28.506,204662,),0,0,1
9:28.556,204680,(,0,0,2
9:28.678,204724,t,0,0,0
9:28.822,204776,),0,0,2
9:28.919,204811,(,0,0,0
9:29.047,204857,p,0,0,0
9:29.072,204866,),0,0,0
9:29.139,204890,(,0,0,1
9:29.231,204923,N,0,0,0
9:29.292,204945,),0,0,1
9:29.336,204961,(,0,0,2
9:29.506,205022,t,0,0,0
9:29.639,205070,),0,0,2
9:29.794,205126,(,0,0,0
9:29.864,205151,p,0,0,0
9:29.889,205160,),0,0,0
9:30.003,205201,(,0,0,1
9:30.081,205229,N,0,0,0
9:30.261,205294,),0,0,1
9:30.289,205304,(,0,0,2
9:30.344,205324,t,0,0,0
9:30.489,205376,),0,0,2
9:30.586,205411,(,0,0,0
9:30.600,205416,p,0,0,0
9:30.628,205426,),0,0,0
9:30.806,205490,(,0,0,1
9:30.919,205531,N,0,0,0
9:30.981,205553,),0,0,1
9:31.100,205596,(,0,0,2
9:31.186,205627,t,0,0,0
9:31.397,205703,),0,0,2
9:31.461,205726,(,0,0,0
9:31.519,205747,p,0,0,0
9:31.594,205774,),0,0,0
9:31.631,205787,(,0,0,1
9:31.728,205822,N,0,0,0
9:31.783,205842,),0,0,1
9:31.853,205867,(,0,0,2
9:31.992,205917,t,0,0,0
9:32.219,205999,),0,0,2
9:32.483,206094,(,0,0,1
9:32.531,206111,N,0,0,0
9:32.594,206134,),0,0,1
9:32.631,206147,(,0,0,2
9:32.797,206207,t,0,0,0
9:32.958,206265,),0,0,2
9:33.281,206381,(,0,0,1
9:33.331,206399,N,0,0,0
9:33.389,206420,),0,0,1
9:33.431,206435,(,0,0,2
9:33.592,206493,t,0,0,0
9:33.828,206578,),0,0,2
9:34.075,206667,(,0,0,1
9:34.125,206685,N,0,0,0
9:34.183,206706,),0,0,1
9:34.231,206723,(,0,0,2
9:34.381,206777,t,0,0,0
9:34.603,206857,),0,0,2
9:34.858,206949,(,0,0,1
9:34.906,206966,N,0,0,0
9:34.967,206988,),0,0,1
9:35.000,207000,(,0,0,2
9:35.164,207059,t,0,0,5
9:35.275,207099,t,0,0,5
9:35.367,207132,),0,0,2
9:35.675,207243,(,0,0,1
9:35.722,207260,N,0,0,0
9:35.792,207285,),0,0,1
9:35.842,207303,(,0,0,2
9:35.994,207358,t,0,0,0
9:36.231,207443,),0,0,2
9:36.494,207538,(,0,0,1
9:36.542,207555,N,0,0,0
9:36.603,207577,),0,0,1
9:36.642,207591,(,0,0,2
9:36.814,207653,t,0,0,0
9:37.044,207736,),0,0,2
9:37.083,207750,(,0,0,0
9:37.181,207785,p,0,0,0
9:37.206,207794,),0,0,0
9:37.319,207835,(,0,0,1
9:37.369,207853,N,0,0,0
9:37.433,207876,),0,0,1
9:37.486,207895,(,0,0,2
9:37.644,207952,t,0,0,0
9:37.875,208035,),0,0,2
9:37.961,208066,(,0,0,0
9:37.992,208077,p,0,0,0
9:38.114,208121,),0,0,0
9:38.144,208132,(,0,0,1
9:38.192,208149,N,0,0,0
9:38.256,208172,),0,0,1
9:38.286,208183,(,0,0,2
9:38.450,208242,t,0,0,0
9:38.683,208326,),0,0,2
9:38.772,208358,(,0,0,0
9:38.856,208388,p,0,0,0
9:38.919,208411,),0,0,0
9:38.947,208421,(,0,0,1
9:38.989,208436,N,0,0,0
9:39.047,208457,),0,0,1
9:39.092,208473,(,0,0,2
9:39.242,208527,t,0,0,0
9:39.472,208610,),0,0,2
9:39.719,208699,(,0,0,1
9:39.764,208715,N,0,0,0
9:39.825,208737,),0,0,1
9:39.892,208761,(,0,0,2
9:40.019,208807,t,0,0,0
9:40.247,208889,),0,0,2
9:40.494,208978,(,0,0,1
9:40.539,208994,N,0,0,0
9:40.594,209014,),0,0,1
9:40.639,209030,(,0,0,2
9:40.786,209083,t,0,0,0
9:41.025,209169,),0,0,2
9:41.272,209258,(,0,0,1
9:41.317,209274,N,0,0,0
9:41.383,209298,),0,0,1
9:41.431,209315,(,0,0,2
9:41.592,209373,t,0,0,0
9:41.847,209465,),0,0,2
9:42.111,209560,(,0,0,1
9:42.161,209578,N,0,0,0
9:42.228,209602,),0,0,1
9:42.272,209618,(,0,0,2
9:42.439,209678,t,0,0,0
9:42.692,209769,),0,0,2
9:42.736,209785,(,0,0,0
9:42.814,209813,p,0,0,0
9:42.833,209820,),0,0,0
9:42.964,209867,(,0,0,1
9:43.008,209883,N,0,0,0
9:43.072,209906,),0,0,1
9:43.114,209921,(,0,0,2
9:43.272,209978,t,0,0,0
9:43.514,210065,),0,0,2
9:43.547,210077,(,0,0,0
9:43.644,210112,p,0,0,0
9:43.681,210125,),0,0,0
9:43.778,210160,(,0,0,1
9:43.825,210177,N,0,0,0
9:43.886,210199,),0,0,1
9:43.933,210216,(,0,0,2
9:44.081,210269,t,0,0,0
9:44.308,210351,),0,0,2
9:44.575,210447,(,0,0,1
9:44.619,210463,N,0,0,0
9:44.681,210485,),0,0,1
9:44.731,210503,(,0,0,2
9:44.875,210555,t,0,0,0
9:45.022,210608,),0,0,2
9:45.156,210656,(,0,0,0
9:45.242,210687,p,0,0,0
9:45.292,210705,),0,0,0
9:45.378,210736,(,0,0,1
9:45.428,210754,N,0,0,0
9:45.489,210776,),0,0,1
9:45.533,210792,(,0,0,2
9:45.689,210848,t,0,0,0
9:45.817,210894,),0,0,2
9:46.178,211024,(,0,0,1
9:46.225,211041,N,0,0,0
9:46.283,211062,),0,0,1
9:46.358,211089,(,0,0,2
9:46.483,211134,t,0,0,0
9:46.686,211207,),0,0,2
9:46.964,211307,(,0,0,1
9:47.011,211324,N,0,0,0
9:47.072,211346,),0,0,1
9:47.122,211364,(,0,0,2
9:47.272,211418,t,0,0,0
9:47.500,211500,),0,0,2
9:47.783,211602,(,0,0,1
9:47.831,211619,N,0,0,0
9:47.894,211642,),0,0,1
9:47.933,211656,(,0,0,2
9:48.100,211716,t,0,0,0
9:48.225,211761,),0,0,2
9:48.614,211901,(,0,0,1
9:48.667,211920,N,0,0,0
9:48.731,211943,),0,0,1
9:48.783,211962,(,0,0,2
9:48.931,212015,t,0,0,0
9:49.156,212096,),0,0,2
9:49.444,212200,(,0,0,1
9:49.492,212217,N,0,0,0
9:49.556,212240,),0,0,1
9:49.619,212263,(,0,0,2
9:49.764,212315,t,0,0,0
9:50.011,212404,),0,0,2
9:50.089,212432,(,0,0,0
9:50.192,212469,p,0,0,0
9:50.236,212485,),0,0,0
9:50.264,212495,(,0,0,1
9:50.314,212513,N,0,0,0
9:50.378,212536,),0,0,1
9:50.417,212550,(,0,0,2
9:50.583,212610,t,0,0,0
9:50.808,212691,),0,0,2
9:50.850,212706,(,0,0,0
9:50.947,212741,p,0,0,0
9:51.000,212760,),0,0,0
9:51.067,212784,(,0,0,1
9:51.114,212801,N,0,0,0
9:51.175,212823,),0,0,1
9:51.225,212841,(,0,0,2
9:51.369,212893,t,0,0,0
9:51.614,212981,),0,0,2
9:51.861,213070,(,0,0,1
9:51.911,213088,N,0,0,0
9:51.967,213108,),0,0,1
9:52.011,213124,(,0,0,2
9:52.161,213178,t,0,0,0
9:52.369,213253,),0,0,2
9:52.622,213344,(,0,0,1
9:52.669,213361,N,0,0,0
9:52.733,213384,),0,0,1
9:52.769,213397,(,0,0,2
9:52.931,213455,t,0,0,0
9:53.150,213534,),0,0,2
9:53.447,213641,(,0,0,1
9:53.500,213660,N,0,0,0
9:53.567,213684,),0,0,1
9:53.614,213701,(,0,0,2
9:53.772,213758,t,0,0,0
9:54.047,213857,),0,0,2
9:54.239,213926,(,0,0,1
9:54.353,213967,N,0,0,0
9:54.411,213988,),0,0,1
9:54.467,214008,(,0,0,2
9:54.633,214068,t,0,0,0
9:54.767,214116,),0,0,2
9:55.144,214252,(,0,0,1
9:55.192,214269,N,0,0,0
9:55.253,214291,),0,0,1
9:55.308,214311,(,0,0,2
9:55.447,214361,t,0,0,0
9:55.703,214453,),0,0,2
9:55.953,214543,(,0,0,1
9:56.000,214560,N,0,0,0
9:56.061,214582,),0,0,1
9:56.100,214596,(,0,0,2
9:56.258,214653,t,0,0,0
9:56.508,214743,),0,0,2
9:56.603,214777,(,0,0,0
9:56.636,214789,p,0,0,0
9:56.747,214829,),0,0,0
9:56.772,214838,(,0,0,1
9:56.822,214856,N,0,0,0
9:56.881,214877,),0,0,1
9:56.928,214894,(,0,0,2
9:57.072,214946,t,0,0,0
9:57.208,214995,),0,0,2
9:57.569,215125,(,0,0,1
9:57.617,215142,N,0,0,0
9:57.681,215165,),0,0,1
9:57.717,215178,(,0,0,2
9:57.864,215231,t,0,0,0
9:58.128,215326,),0,0,2
9:58.372,215414,(,0,0,1
9:58.422,215432,N,0,0,0
9:58.483,215454,),0,0,1
9:58.533,215472,(,0,0,2
9:58.675,215523,t,0,0,0
9:58.886,215599,),0,0,2
9:59.169,215701,(,0,0,1
9:59.217,215718,N,0,0,0
9:59.283,215742,),0,0,1
9:59.325,215757,(,0,0,2
9:59.486,215815,t,0,0,0
9:59.739,215906,),0,0,2
10:00.006,216002,(,0,0,1
10:00.056,216020,N,0,0,0
10:00.119,216043,),0,0,1
10:00.219,216079,(,0,0,2
10:00.317,216114,t,0,0,0
10:00.492,216177,),0,0,2
10:00.842,216303,(,0,0,1
10:00.894,216322,N,0,0,0
10:00.958,216345,),0,0,1
10:01.019,216367,(,0,0,2
10:01.167,216420,t,0,0,0
10:01.419,216511,),0,0,2
10:01.708,216615,(,0,0,1
10:01.756,216632,N,0,0,0
10:01.817,216654,),0,0,1
10:01.864,216671,(,0,0,2
10:02.019,216727,t,0,0,0
10:02.258,216813,),0,0,2
10:02.522,216908,(,0,0,1
10:02.572,216926,N,0,0,0
10:02.633,216948,),0,0,1
10:02.681,216965,(,0,0,2
10:02.833,217020,t,0,0,0
10:03.064,217103,),0,0,2
10:03.317,217194,(,0,0,1
10:03.367,217212,N,0,0,0
10:03.428,217234,),0,0,1
10:03.467,217248,(,0,0,2
10:03.631,217307,t,0,0,0
10:03.858,217389,),0,0,2
10:03.883,217398,(,0,0,0
10:03.892,217401,p,0,0,0
10:03.942,217419,),0,0,0
10:04.119,217483,(,0,0,1
10:04.167,217500,N,0,0,0
10:04.228,217522,),0,0,1
10:04.278,217540,(,0,0,2
10:04.422,217592,t,0,0,0
10:04.642,217671,),0,0,2
10:04.908,217767,(,0,0,1
10:04.953,217783,N,0,0,0
10:05.014,217805,),0,0,1
10:05.042,217815,(,0,0,2
10:05.214,217877,t,0,0,0
10:05.383,217938,),0,0,2
10:05.556,218000,(,0,0,0
10:05.592,218013,p,0,0,0
10:05.725,218061,),0,0,0
10:05.753,218071,(,0,0,1
10:05.806,218090,N,0,0,0
10:05.869,218113,),0,0,1
10:05.917,218130,(,0,0,2
10:06.081,218189,t,0,0,0
10:06.328,218278,),0,0,2
10:06.639,218390,(,0,0,1
10:06.686,218407,N,0,0,0
10:06.750,218430,),0,0,1
10:06.797,218447,(,0,0,2
10:06.953,218503,t,0,0,0
10:07.206,218594,),0,0,2
10:07.475,218691,(,0,0,1
10:07.525,218709,N,0,0,0
10:07.589,218732,),0,0,1
10:07.653,218755,(,0,0,2
10:07.789,218804,t,0,0,0
10:08.042,218895,),0,0,2
10:08.303,218989,(,0,0,1
10:08.353,219007,N,0,0,0
10:08.417,219030,),0,0,1
10:08.447,219041,(,0,0,2
10:08.617,219102,t,0,0,0
10:08.853,219187,),0,0,2
10:09.131,219287,(,0,0,1
10:09.178,219304,N,0,0,0
10:09.242,219327,),0,0,1
10:09.269,219337,(,0,0,2
10:09.444,219400,t,0,0,0
10:09.686,219487,),0,0,2
10:09.953,219583,(,0,0,1
10:10.003,219601,N,0,0,0
10:10.061,219622,),0,0,1
10:10.089,219632,(,0,0,2
10:10.253,219691,t,0,0,0
10:10.494,219778,),0,0,2
10:10.531,219791,(,0,0,0
10:10.625,219825,p,0,0,0
10:10.681,219845,),0,0,0
10:10.750,219870,(,0,0,1
10:10.800,219888,N,0,0,0
10:10.861,219910,),0,0,1
10:10.900,219924,(,0,0,2
10:11.056,219980,t,0,0,0
10:11.303,220069,),0,0,2
10:11.578,220168,(,0,0,1
10:11.628,220186,N,0,0,0
10:11.692,220209,),0,0,1
10:11.739,220226,(,0,0,2
10:11.894,220282,t,0,0,0
10:12.150,220374,),0,0,2
10:12.433,220476,(,0,0,1
10:12.483,220494,N,0,0,0
10:12.553,220519,),0,0,1
10:12.594,220534,(,0,0,2
10:12.750,220590,t,0,0,0
10:12.994,220678,),0,0,2
10:13.286,220783,(,0,0,1
10:13.336,220801,N,0,0,0
10:13.400,220824,),0,0,1
10:13.464,220847,(,0,0,2
10:13.608,220899,t,0,0,0
10:13.772,220958,),0,0,2
10:14.128,221086,(,0,0,1
10:14.175,221103,N,0,0,0
10:14.242,221127,),0,0,1
10:14.286,221143,(,0,0,2
10:14.442,221199,t,0,0,0
10:14.650,221274,),0,0,2
10:14.958,221385,(,0,0,1
10:15.003,221401,N,0,0,0
10:15.067,221424,),0,0,1
10:15.103,221437,(,0,0,2
10:15.258,221493,t,0,0,0
10:15.403,221545,),0,0,2
10:15.772,221678,(,0,0,1
10:15.819,221695,N,0,0,0
10:15.881,221717,),0,0,1
10:15.939,221738,(,0,0,2
10:16.081,221789,t,0,0,0
10:16.300,221868,),0,0,2
10:16.336,221881,(,0,0,0
10:16.453,221923,p,0,0,0
10:16.478,221932,),0,0,0
10:16.558,221961,(,0,0,1
10:16.603,221977,N,0,0,0
10:16.664,221999,),0,0,1
10:16.714,222017,(,0,0,2
10:16.861,222070,t,0,0,0
10:17.006,222122,),0,0,2
10:17.133,222168,(,0,0,0
10:17.144,222172,p,0,0,0
10:17.183,222186,),0,0,0
10:17.403,222265,(,0,0,1
10:17.456,222284,N,0,0,0
10:17.522,222308,),0,0,1
10:17.556,222320,(,0,0,2
10:17.733,222384,t,0,0,0
10:17.875,222435,),0,0,2
10:18.031,222491,(,0,0,0
10:18.111,222520,p,0,0,0
10:18.125,222525,),0,0,0
10:18.278,222580,(,0,0,1
10:18.328,222598,N,0,0,0
10:18.392,222621,),0,0,1
10:18.453,222643,(,0,0,2
10:18.608,222699,t,0,0,0
10:18.844,222784,),0,0,2
10:19.142,222891,(,0,0,1
10:19.189,222908,N,0,0,0
10:19.250,222930,),0,0,1
10:19.292,222945,(,0,0,2
10:19.450,223002,t,0,0,0
10:19.694,223090,),0,0,2
10:19.711,223096,(,0,0,0
10:19.725,223101,p,0,0,0
10:19.761,223114,),0,0,0
10:19.969,223189,(,0,0,1
10:20.022,223208,N,0,0,0
10:20.081,223229,),0,0,1
10:20.133,223248,(,0,0,2
10:20.289,223304,t,0,0,0
10:20.461,223366,),0,0,2
10:20.811,223492,(,0,0,1
10:20.858,223509,N,0,0,0
10:20.914,223529,),0,0,1
10:20.964,223547,(,0,0,2
10:21.111,223600,t,0,0,0
10:21.350,223686,),0,0,2
10:21.372,223694,(,0,0,0
10:21.383,223698,p,0,0,0
10:21.417,223710,),0,0,0
10:21.625,223785,(,0,0,1
10:21.672,223802,N,0,0,0
10:21.733,223824,),0,0,1
10:21.769,223837,(,0,0,2
10:21.928,223894,t,0,0,0
10:22.164,223979,),0,0,2
10:22.456,224084,(,0,0,1
10:22.503,224101,N,0,0,0
10:22.558,224121,),0,0,1
10:22.606,224138,(,0,0,2
10:22.753,224191,t,0,0,0
10:22.900,224244,),0,0,2
10:23.011,224284,(,0,0,0
10:23.025,224289,p,0,0,0
10:23.061,224302,),0,0,0
10:23.272,224378,(,0,0,1
10:23.319,224395,N,0,0,0
10:23.383,224418,),0,0,1
10:23.414,224429,(,0,0,2
10:23.589,224492,t,0,0,0
10:23.833,224580,),0,0,2
10:23.853,224587,(,0,0,0
10:23.867,224592,p,0,0,0
10:23.903,224605,),0,0,0
10:24.131,224687,(,0,0,1
10:24.178,224704,N,0,0,0
10:24.242,224727,),0,0,1
10:24.300,224748,(,0,0,2
10:24.450,224802,t,0,0,0
10:24.689,224888,),0,0,2
10:25.003,225001,(,0,0,1
10:25.053,225019,N,0,0,0
10:25.119,225043,),0,0,1
10:25.164,225059,(,0,0,2
10:25.333,225120,t,0,0,0
10:25.581,225209,),0,0,2
10:25.606,225218,(,0,0,0
10:25.619,225223,p,0,0,0
10:25.658,225237,),0,0,0
10:25.867,225312,(,0,0,1
10:25.917,225330,N,0,0,0
10:25.975,225351,),0,0,1
10:26.044,225376,(,0,0,2
10:26.183,225426,t,0,0,0
10:26.400,225504,),0,0,2
10:26.706,225614,(,0,0,1
10:26.753,225631,N,0,0,0
10:26.814,225653,),0,0,1
10:26.858,225669,(,0,0,2
10:27.011,225724,t,0,0,0
10:27.153,225775,),0,0,2
10:27.339,225842,(,0,0,0
10:27.411,225868,p,0,0,0
10:27.494,225898,),0,0,0
10:27.519,225907,(,0,0,1
10:27.569,225925,N,0,0,0
10:27.631,225947,),0,0,1
10:27.667,225960,(,0,0,2
10:27.836,226021,t,0,0,0
10:28.047,226097,),0,0,2
10:28.333,226200,(,0,0,1
10:28.383,226218,N,0,0,0
10:28.444,226240,),0,0,1
10:28.494,226258,(,0,0,2
10:28.628,226306,t,0,0,0
10:28.847,226385,),0,0,2
10:28.889,226400,(,0,0,0
10:28.897,226403,p,0,0,0
10:28.939,226418,),0,0,0
10:29.150,226494,(,0,0,1
10:29.200,226512,N,0,0,0
10:29.264,226535,),0,0,1
10:29.308,226551,(,0,0,2
10:29.481,226613,t,0,0,0
10:29.731,226703,),0,0,2
10:30.033,226812,(,0,0,1
10:30.086,226831,N,0,0,0
10:30.150,226854,),0,0,1
10:30.214,226877,(,0,0,2
10:30.372,226934,t,0,0,0
10:30.647,227033,),0,0,2
10:30.681,227045,(,0,0,0
10:30.778,227080,p,0,0,0
10:30.803,227089,),0,0,0
10:30.914,227129,(,0,0,1
10:30.958,227145,N,0,0,0
10:31.022,227168,),0,0,1
10:31.072,227186,(,0,0,2
10:31.231,227243,t,0,0,0
10:31.364,227291,),0,0,2
10:31.525,227349,(,0,0,0
10:31.667,227400,p,0,0,0
10:31.689,227408,),0,0,0
10:31.767,227436,(,0,0,1
10:31.814,227453,N,0,0,0
10:31.878,227476,),0,0,1
10:31.939,227498,(,0,0,2
10:32.081,227549,t,0,0,0
10:32.303,227629,),0,0,2
10:32.597,227735,(,0,0,1
10:32.644,227752,N,0,0,0
10:32.708,227775,),0,0,1
10:32.764,227795,(,0,0,2
10:32.908,227847,t,0,0,0
10:33.061,227902,),0,0,2
10:33.431,228035,(,0,0,1
10:33.478,228052,N,0,0,0
10:33.542,228075,),0,0,1
10:33.597,228095,(,0,0,2
10:33.747,228149,t,0,0,0
10:33.978,228232,),0,0,2
10:34.253,228331,(,0,0,1
10:34.303,228349,N,0,0,0
10:34.364,228371,),0,0,1
10:34.422,228392,(,0,0,2
10:34.561,228442,t,0,0,0
10:34.778,228520,),0,0,2
10:34.850,228546,(,0,0,0
10:34.928,228574,p,0,0,0
10:34.950,228582,),0,0,0
10:35.061,228622,(,0,0,1
10:35.108,228639,N,0,0,0
10:35.172,228662,),0,0,1
10:35.222,228680,(,0,0,2
10:35.372,228734,t,0,0,0
10:35.531,228791,),0,0,2
10:35.669,228841,(,0,0,0
10:35.683,228846,p,0,0,0
10:35.839,228902,),0,0,0
10:35.881,228917,(,0,0,1
10:35.958,228945,N,0,0,0
10:36.025,228969,),0,0,1
10:36.075,228987,(,0,0,2
10:36.136,229009,t,0,0,0
10:36.433,229116,),0,0,2
10:36.553,229159,(,0,0,0
10:36.642,229191,p,0,0,0
10:36.708,229215,),0,0,0
10:36.792,229245,(,0,0,1
10:36.839,229262,N,0,0,0
10:36.900,229284,),0,0,1
10:36.947,229301,(,0,0,2
10:37.103,229357,t,0,0,0
10:37.261,229414,),0,0,2
10:37.461,229486,(,0,0,0
10:37.544,229516,p,0,0,0
10:37.617,229542,),0,0,0
10:37.642,229551,(,0,0,1
10:37.692,229569,N,0,0,0
10:37.753,229591,),0,0,1
10:37.781,229601,(,0,0,2
10:37.944,229660,t,0,0,0
10:38.200,229752,),0,0,2
10:38.256,229772,(,0,0,0
10:38.378,229816,p,0,0,0
10:38.400,229824,),0,0,0
10:38.489,229856,(,0,0,1
10:38.539,229874,N,0,0,0
10:38.600,229896,),0,0,1
10:38.658,229917,(,0,0,2
10:38.808,229971,t,0,0,0
10:39.017,230046,),0,0,2
10:39.067,230064,(,0,0,0
10:39.081,230069,p,0,0,0
10:39.119,230083,),0,0,0
10:39.322,230156,(,0,0,1
10:39.369,230173,N,0,0,0
10:39.431,230195,),0,0,1
10:39.481,230213,(,0,0,2
10:39.633,230268,t,0,0,0
10:39.758,230313,),0,0,2
10:39.911,230368,(,0,0,0
10:39.997,230399,p,0,0,0
10:40.050,230418,),0,0,0
10:40.128,230446,(,0,0,1
10:40.178,230464,N,0,0,0
10:40.236,230485,),0,0,1
10:40.292,230505,(,0,0,2
10:40.433,230556,t,0,0,0
10:40.644,230632,),0,0,2
10:40.942,230739,(,0,0,1
10:40.989,230756,N,0,0,0
10:41.053,230779,),0,0,1
10:41.103,230797,(,0,0,2
10:41.272,230858,t,0,0,0
10:41.528,230950,),0,0,2
10:41.556,230960,(,0,0,0
10:41.572,230966,p,0,0,0
10:41.658,230997,),0,0,0
10:41.828,231058,(,0,0,1
10:41.878,231076,N,0,0,0
10:41.942,231099,),0,0,1
10:42.006,231122,(,0,0,2
10:42.156,231176,t,0,0,0
10:42.325,231237,),0,0,2
10:42.472,231290,(,0,0,0
10:42.572,231326,p,0,0,0
10:42.592,231333,),0,0,0
10:42.706,231374,(,0,0,1
10:42.753,231391,N,0,0,0
10:42.817,231414,),0,0,1
10:42.869,231433,(,0,0,2
10:43.017,231486,t,0,0,0
10:43.269,231577,),0,0,2
10:43.547,231677,(,0,0,1
10:43.597,231695,N,0,0,0
10:43.658,231717,),0,0,1
10:43.692,231729,(,0,0,2
10:43.867,231792,t,0,0,0
10:44.081,231869,),0,0,2
10:44.139,231890,(,0,0,0
10:44.156,231896,p,0,0,0
10:44.192,231909,),0,0,0
10:44.389,231980,(,0,0,1
10:44.436,231997,N,0,0,0
10:44.500,232020,),0,0,1
10:44.589,232052,(,0,0,2
10:44.700,232092,t,0,0,0
10:44.892,232161,),0,0,2
10:45.000,232200,(,0,0,0
10:45.069,232225,p,0,0,0
10:45.178,232264,),0,0,0
10:45.206,232274,(,0,0,1
10:45.258,232293,N,0,0,0
10:45.322,232316,),0,0,1
10:45.381,232337,(,0,0,2
10:45.531,232391,t,0,0,0
10:45.694,232450,),0,0,2
10:45.803,232489,(,0,0,0
10:45.822,232496,p,0,0,0
10:45.856,232508,),0,0,0
10:46.050,232578,(,0,0,1
10:46.100,232596,N,0,0,0
10:46.164,232619,),0,0,1
10:46.214,232637,(,0,0,2
10:46.372,232694,t,0,0,0
10:46.589,232772,),0,0,2
10:46.872,232874,(,0,0,1
10:46.919,232891,N,0,0,0
10:46.981,232913,),0,0,1
10:47.044,232936,(,0,0,2
10:47.194,232990,t,0,0,0
10:47.350,233046,),0,0,2
10:47.461,233086,(,0,0,0
10:47.489,233096,p,0,0,0
10:47.581,233129,),0,0,0
10:47.708,233175,(,0,0,1
10:47.786,233203,N,0,0,0
10:47.850,233226,),0,0,1
10:47.958,233265,(,0,0,2
10:48.064,233303,t,0,0,0
10:48.103,233317,),0,0,2
10:48.364,233411,(,0,0,0
10:48.383,233418,p,0,0,0
10:48.472,233450,),0,0,0
10:48.619,233503,(,0,0,1
10:48.669,233521,N,0,0,0
10:48.736,233545,),0,0,1
10:48.769,233557,(,0,0,2
10:48.942,233619,t,0,0,0
10:49.208,233715,),0,0,2
10:49.511,233824,(,0,0,1
10:49.564,233843,N,0,0,0
10:49.622,233864,),0,0,1
10:49.678,233884,(,0,0,2
10:49.828,233938,t,0,0,0
10:49.978,233992,),0,0,2
10:50.356,234128,(,0,0,1
10:50.406,234146,N,0,0,0
10:50.469,234169,),0,0,1
10:50.511,234184,(,0,0,2
10:50.678,234244,t,0,0,0
10:50.917,234330,),0,0,2
10:51.183,234426,(,0,0,1
10:51.231,234443,N,0,0,0
10:51.292,234465,),0,0,1
10:51.356,234488,(,0,0,2
10:51.500,234540,t,0,0,0
10:51.650,234594,),0,0,2
10:51.761,234634,(,0,0,0
10:51.781,234641,p,0,0,0
10:51.817,234654,),0,0,0
10:52.003,234721,(,0,0,1
10:52.047,234737,N,0,0,0
10:52.108,234759,),0,0,1
10:52.147,234773,(,0,0,2
10:52.311,234832,t,0,0,0
10:52.544,234916,),0,0,2
10:52.622,234944,(,0,0,0
10:52.703,234973,p,0,0,0
10:52.775,234999,),0,0,0
10:52.803,235009,(,0,0,1
10:52.853,235027,N,0,0,0
10:52.914,235049,),0,0,1
10:52.983,235074,(,0,0,2
10:53.125,235125,t,0,0,0
10:53.353,235207,),0,0,2
10:53.422,235232,(,0,0,0
10:53.444,235240,p,0,0,0
10:53.478,235252,),0,0,0
10:53.681,235325,(,0,0,1
10:53.728,235342,N,0,0,0
10:53.792,235365,),0,0,1
10:53.833,235380,(,0,0,2
10:54.006,235442,t,0,0,0
10:54.269,235537,),0,0,2
10:54.561,235642,(,0,0,1
10:54.611,235660,N,0,0,0
10:54.672,235682,),0,0,1
10:54.744,235708,(,0,0,2
10:54.889,235760,t,0,0,0
10:55.114,235841,),0,0,2
10:55.189,235868,(,0,0,0
10:55.283,235902,p,0,0,0
10:55.303,235909,),0,0,0
10:55.419,235951,(,0,0,1
10:55.467,235968,N,0,0,0
10:55.528,235990,),0,0,1
10:55.569,236005,(,0,0,2
10:55.728,236062,t,0,0,0
10:55.869,236113,),0,0,2
10:56.250,236250,(,0,0,1
10:56.300,236268,N,0,0,0
10:56.358,236289,),0,0,1
10:56.419,236311,(,0,0,2
10:56.569,236365,t,0,0,0
10:56.825,236457,),0,0,2
10:56.847,236465,(,0,0,0
10:56.858,236469,p,0,0,0
10:56.889,236480,),0,0,0
10:57.092,236553,(,0,0,1
10:57.139,236570,N,0,0,0
10:57.203,236593,),0,0,1
10:57.258,236613,(,0,0,2
10:57.411,236668,t,0,0,0
10:57.656,236756,),0,0,2
10:57.925,236853,(,0,0,1
10:57.975,236871,N,0,0,0
10:58.033,236892,),0,0,1
10:58.100,236916,(,0,0,2
10:58.242,236967,t,0,0,0
10:58.356,237008,),0,0,2
10:58.533,237072,(,0,0,0
10:58.581,237089,p,0,0,0
10:58.697,237131,),0,0,0
10:58.731,237143,(,0,0,1
10:58.778,237160,N,0,0,0
10:58.833,237180,),0,0,1
10:58.889,237200,(,0,0,2
10:59.025,237249,t,0,0,0
10:59.283,237342,),0,0,2
10:59.569,237445,(,0,0,1
10:59.619,237463,N,0,0,0
10:59.681,237485,),0,0,1
10:59.753,237511,(,0,0,2
10:59.892,237561,t,0,0,0
11:00.142,237651,),0,0,2
11:00.453,237763,(,0,0,1
11:00.503,237781,N,0,0,0
11:00.567,237804,),0,0,1
11:00.614,237821,(,0,0,2
11:00.775,237879,t,0,0,0
11:00.928,237934,),0,0,2
11:01.136,238009,(,0,0,0
11:01.200,238032,p,0,0,0
11:01.239,238046,),0,0,0
11:01.317,238074,(,0,0,1
11:01.369,238093,N,0,0,0
11:01.433,238116,),0,0,1
11:01.481,238133,(,0,0,2
11:01.625,238185,t,0,0,0
11:01.822,238256,),0,0,2
11:02.181,238385,(,0,0,1
11:02.231,238403,N,0,0,0
11:02.292,238425,),0,0,1
11:02.356,238448,(,0,0,2
11:02.506,238502,t,0,0,0
11:02.753,238591,),0,0,2
11:02.772,238598,(,0,0,0
11:02.794,238606,p,0,0,0
11:02.831,238619,),0,0,0
11:03.022,238688,(,0,0,1
11:03.069,238705,N,0,0,0
11:03.131,238727,),0,0,1
11:03.175,238743,(,0,0,2
11:03.328,238798,t,0,0,0
11:03.456,238844,),0,0,2
11:03.636,238909,(,0,0,0
11:03.733,238944,p,0,0,0
11:03.811,238972,),0,0,0
11:03.836,238981,(,0,0,1
11:03.886,238999,N,0,0,0
11:03.947,239021,),0,0,1
11:03.983,239034,(,0,0,2
11:04.153,239095,t,0,0,0
11:04.306,239150,),0,0,2
11:04.417,239190,(,0,0,0
11:04.431,239195,p,0,0,0
11:04.464,239207,),0,0,0
11:04.647,239273,(,0,0,1
11:04.694,239290,N,0,0,0
11:04.756,239312,),0,0,1
11:04.806,239330,(,0,0,2
11:04.967,239388,t,0,0,0
11:05.100,239436,),0,0,2
11:05.522,239588,(,0,0,1
11:05.567,239604,N,0,0,0
11:05.625,239625,),0,0,1
11:05.706,239654,(,0,0,2
11:05.853,239707,t,0,0,0
11:06.114,239801,),0,0,2
11:06.394,239902,(,0,0,1
11:06.444,239920,N,0,0,0
11:06.508,239943,),0,0,1
11:06.572,239966,(,0,0,2
11:06.706,240014,t,0,0,0
11:06.956,240104,),0,0,2
11:07.036,240133,(,0,0,0
11:07.100,240156,p,0,0,0
11:07.156,240176,),0,0,0
11:07.258,240213,(,0,0,1
11:07.306,240230,N,0,0,0
11:07.369,240253,),0,0,1
11:07.425,240273,(,0,0,2
11:07.583,240330,t,0,0,0
11:07.817,240414,),0,0,2
11:08.106,240518,(,0,0,1
11:08.156,240536,N,0,0,0
11:08.217,240558,),0,0,1
11:08.278,240580,(,0,0,2
11:08.425,240633,t,0,0,0
11:08.656,240716,),0,0,2
11:10.411,241348,(,0,0,0
11:10.492,241377,p,0,0,0
11:10.581,241409,),0,0,0
11:10.606,241418,(,0,0,1
11:10.656,241436,N,0,0,0
11:10.717,241458,),0,0,1
11:10.775,241479,(,0,0,2
11:10.917,241530,t,0,0,0
11:11.183,241626,),0,0,2
11:11.469,241729,(,0,0,1
11:11.517,241746,N,0,0,0
11:11.581,241769,),0,0,1
11:11.631,241787,(,0,0,2
11:11.811,241852,t,0,0,0
11:12.058,241941,),0,0,2
11:12.331,242039,(,0,0,1
11:12.406,242066,N,0,0,0
11:12.472,242090,),0,0,1
11:12.542,242115,(,0,0,2
11:12.703,242173,t,0,0,0
11:12.958,242265,),0,0,2
11:13.008,242283,(,0,0,0
11:13.108,242319,p,0,0,0
11:13.175,242343,),0,0,0
11:13.261,242374,(,0,0,1
11:13.308,242391,N,0,0,0
11:13.375,242415,),0,0,1
11:13.428,242434,(,0,0,2
11:13.589,242492,t,0,0,0
11:13.842,242583,),0,0,2
11:14.122,242684,(,0,0,1
11:14.172,242702,N,0,0,0
11:14.236,242725,),0,0,1
11:14.278,242740,(,0,0,2
11:14.442,242799,t,0,0,0
11:14.686,242887,),0,0,2
11:15.794,243286,(,0,0,1
11:15.844,243304,N,0,0,0
11:15.903,243325,),0,0,1
11:15.953,243343,(,0,0,2
11:16.114,243401,t,0,0,0
11:16.361,243490,),0,0,2
11:16.617,243582,(,0,0,1
11:16.664,243599,N,0,0,0
11:16.725,243621,),0,0,1
11:16.756,243632,(,0,0,2
11:16.944,243700,t,0,0,0
11:17.211,243796,),0,0,2
11:18.106,244118,(,0,0,0
11:18.147,244133,p,0,0,0
11:18.172,244142,),0,0,0
11:18.383,244218,(,0,0,1
11:18.433,244236,N,0,0,0
11:18.497,244259,),0,0,1
11:18.558,244281,(,0,0,2
11:18.708,244335,t,0,0,0
11:18.981,244433,),0,0,2
11:19.078,244468,(,0,0,0
11:19.150,244494,p,0,0,0
11:19.242,244527,),0,0,0
11:19.269,244537,(,0,0,1
11:19.319,244555,N,0,0,0
11:19.378,244576,),0,0,1
11:19.422,244592,(,0,0,2
11:19.586,244651,t,0,0,0
11:19.822,244736,),0,0,2
11:20.111,244840,(,0,0,1
11:20.161,244858,N,0,0,0
11:20.225,244881,),0,0,1
11:20.269,244897,(,0,0,2
11:20.433,244956,t,0,0,0
11:20.681,245045,),0,0,2
11:20.742,245067,(,0,0,0
11:20.864,245111,p,0,0,0
11:20.906,245126,),0,0,0
11:20.975,245151,(,0,0,1
11:21.022,245168,N,0,0,0
11:21.086,245191,),0,0,1
11:21.150,245214,(,0,0,2
11:21.303,245269,t,0,0,0
11:21.525,245349,),0,0,2
11:21.567,245364,(,0,0,0
11:21.586,245371,p,0,0,0
11:21.622,245384,),0,0,0
11:21.819,245455,(,0,0,1
11:21.869,245473,N,0,0,0
11:21.931,245495,),0,0,1
11:21.986,245515,(,0,0,2
11:22.142,245571,t,0,0,0
11:22.367,245652,),0,0,2
11:22.433,245676,(,0,0,0
11:22.556,245720,p,0,0,0
11:22.606,245738,),0,0,0
11:22.633,245748,(,0,0,1
11:22.681,245765,N,0,0,0
11:22.739,245786,),0,0,1
11:22.794,245806,(,0,0,2
11:22.944,245860,t,0,0,0
11:23.203,245953,),0,0,2
11:23.233,245964,(,0,0,0
11:23.256,245972,p,0,0,0
11:23.289,245984,),0,0,0
11:23.486,246055,(,0,0,1
11:23.539,246074,N,0,0,0
11:23.603,246097,),0,0,1
11:23.656,246116,(,0,0,2
11:23.828,246178,t,0,0,0
11:24.086,246271,),0,0,2
11:24.108,246279,(,0,0,0
11:24.147,246293,p,0,0,0
11:24.222,246320,),0,0,0
11:24.389,246380,(,0,0,1
11:24.436,246397,N,0,0,0
11:24.500,246420,),0,0,1
11:24.558,246441,(,0,0,2
11:24.717,246498,t,0,0,0
11:24.967,246588,),0,0,2
11:25.008,246603,(,0,0,0
11:25.019,246607,p,0,0,0
11:25.094,246634,),0,0,0
11:25.278,246700,(,0,0,1
11:25.331,246719,N,0,0,0
11:25.392,246741,),0,0,1
11:25.442,246759,(,0,0,2
11:25.606,246818,t,0,0,0
11:25.844,246904,),0,0,2
11:25.881,246917,(,0,0,0
11:25.919,246931,p,0,0,0
11:25.958,246945,),0,0,0
11:26.164,247019,(,0,0,1
11:26.217,247038,N,0,0,0
11:26.275,247059,),0,0,1
11:26.333,247080,(,0,0,2
11:26.483,247134,t,0,0,0
11:26.731,247223,),0,0,2
11:27.014,247325,(,0,0,1
11:27.061,247342,N,0,0,0
11:27.119,247363,),0,0,1
11:27.186,247387,(,0,0,2
11:27.322,247436,t,0,0,0
11:27.558,247521,),0,0,2
11:27.836,247621,(,0,0,1
11:27.883,247638,N,0,0,0
11:27.942,247659,),0,0,1
11:27.983,247674,(,0,0,2
11:28.147,247733,t,0,0,0
11:28.381,247817,),0,0,2
11:28.433,247836,(,0,0,0
11:28.444,247840,p,0,0,0
11:28.483,247854,),0,0,0
11:28.672,247922,(,0,0,1
11:28.722,247940,N,0,0,0
11:28.786,247963,),0,0,1
11:28.839,247982,(,0,0,2
11:29.000,248040,t,0,0,0
11:29.250,248130,),0,0,2
11:29.297,248147,(,0,0,0
11:29.311,248152,p,0,0,0
11:29.344,248164,),0,0,0
11:29.553,248239,(,0,0,1
11:29.603,248257,N,0,0,0
11:29.667,248280,),0,0,1
11:29.711,248296,(,0,0,2
11:29.886,248359,t,0,0,0
11:30.147,248453,),0,0,2
11:30.447,248561,(,0,0,1
11:30.497,248579,N,0,0,0
11:30.558,248601,),0,0,1
11:30.619,248623,(,0,0,2
11:30.772,248678,t,0,0,0
11:30.919,248731,),0,0,2
11:31.044,248776,(,0,0,0
11:31.097,248795,p,0,0,0
11:31.119,248803,),0,0,0
11:31.328,248878,(,0,0,1
11:31.378,248896,N,0,0,0
11:31.436,248917,),0,0,1
11:31.489,248936,(,0,0,2
11:31.644,248992,t,0,0,0
11:31.892,249081,),0,0,2
11:31.908,249087,(,0,0,0
11:31.950,249102,p,0,0,0
11:32.025,249129,),0,0,0
11:32.194,249190,(,0,0,1
11:32.242,249207,N,0,0,0
11:32.300,249228,),0,0,1
11:32.344,249244,(,0,0,2
11:32.503,249301,t,0,0,0
11:32.753,249391,),0,0,2
11:32.792,249405,(,0,0,0
11:32.806,249410,p,0,0,0
11:32.861,249430,),0,0,0
11:33.053,249499,(,0,0,1
11:33.100,249516,N,0,0,0
11:33.161,249538,),0,0,1
11:33.211,249556,(,0,0,2
11:33.378,249616,t,0,0,0
11:33.619,249703,),0,0,2
11:33.917,249810,(,0,0,1
11:33.964,249827,N,0,0,0
11:34.025,249849,),0,0,1
11:34.072,249866,(,0,0,2
11:34.225,249921,t,0,0,0
11:34.469,250009,),0,0,2
11:34.742,250107,(,0,0,1
11:34.792,250125,N,0,0,0
11:34.853,250147,),0,0,1
11:34.908,250167,(,0,0,2
11:35.069,250225,t,0,0,0
11:35.322,250316,),0,0,2
11:35.364,250331,(,0,0,0
11:35.372,250334,p,0,0,0
11:35.444,250360,),0,0,0
11:35.622,250424,(,0,0,1
11:35.672,250442,N,0,0,0
11:35.736,250465,),0,0,1
11:35.761,250474,(,0,0,2
11:35.956,250544,t,0,0,0
11:36.219,250639,),0,0,2
11:36.539,250754,(,0,0,1
11:36.592,250773,N,0,0,0
11:36.656,250796,),0,0,1
11:36.697,250811,(,0,0,2
11:36.883,250878,t,0,0,0
11:37.139,250970,),0,0,2
11:37.442,251079,(,0,0,1
11:37.497,251099,N,0,0,0
11:37.556,251120,),0,0,1
11:37.617,251142,(,0,0,2
11:37.772,251198,t,0,0,0
11:38.028,251290,),0,0,2
11:38.069,251305,(,0,0,0
11:38.075,251307,p,0,0,0
11:38.114,251321,),0,0,0
11:38.331,251399,(,0,0,1
11:38.378,251416,N,0,0,0
11:38.439,251438,),0,0,1
11:38.486,251455,(,0,0,2
11:38.639,251510,t,0,0,0
11:38.875,251595,),0,0,2
11:38.931,251615,(,0,0,0
11:38.933,251616,p,0,0,0
11:39.017,251646,),0,0,0
11:39.147,251693,(,0,0,1
11:39.219,251719,N,0,0,0
11:39.278,251740,),0,0,1
11:39.317,251754,(,0,0,2
11:39.481,251813,t,0,0,0
11:39.725,251901,),0,0,2
11:40.028,252010,(,0,0,1
11:40.075,252027,N,0,0,0
11:40.133,252048,),0,0,1
11:40.194,252070,(,0,0,2
11:40.331,252119,t,0,0,0
11:40.558,252201,),0,0,2
11:40.833,252300,(,0,0,1
11:40.911,252328,N,0,0,0
11:40.975,252351,),0,0,1
11:41.075,252387,(,0,0,2
11:41.181,252425,t,0,0,0
11:41.444,252520,),0,0,2
11:41.511,252544,(,0,0,0
11:41.586,252571,p,0,0,0
11:41.647,252593,),0,0,0
11:41.736,252625,(,0,0,1
11:41.811,252652,N,0,0,0
11:41.881,252677,),0,0,1
11:41.981,252713,(,0,0,2
11:42.094,252754,t,0,0,0
11:42.256,252812,),0,0,2
11:42.511,252904,(,0,0,0
11:42.558,252921,p,0,0,0
11:42.644,252952,),0,0,0
11:42.672,252962,(,0,0,1
11:42.722,252980,N,0,0,0
11:42.786,253003,),0,0,1
11:42.858,253029,(,0,0,2
11:43.006,253082,t,0,0,0
11:43.247,253169,),0,0,2
11:43.375,253215,(,0,0,0
11:43.406,253226,p,0,0,0
11:43.428,253234,),0,0,0
11:43.519,253267,(,0,0,1
11:43.597,253295,N,0,0,0
11:43.656,253316,),0,0,1
11:43.703,253333,(,0,0,2
11:43.869,253393,t,0,0,0
11:44.111,253480,),0,0,2
11:45.019,253807,(,0,0,0
11:45.097,253835,p,0,0,0
11:45.164,253859,),0,0,0
11:45.294,253906,(,0,0,1
11:45.367,253932,N,0,0,0
11:45.425,253953,),0,0,1
11:45.464,253967,(,0,0,2
11:45.625,254025,t,0,0,0
11:45.800,254088,),0,0,2
11:45.992,254157,(,0,0,0
11:46.056,254180,p,0,0,0
11:46.153,254215,),0,0,0
11:46.178,254224,(,0,0,1
11:46.222,254240,N,0,0,0
11:46.281,254261,),0,0,1
11:46.331,254279,(,0,0,2
11:46.478,254332,t,0,0,0
11:46.703,254413,),0,0,2
11:47.725,254781,(,0,0,0
11:47.808,254811,p,0,0,0
11:47.892,254841,),0,0,0
11:47.914,254849,(,0,0,1
11:47.969,254869,N,0,0,0
11:48.033,254892,),0,0,1
11:48.122,254924,(,0,0,2
11:48.253,254971,t,0,0,0
11:48.400,255024,),0,0,2
11:51.272,256058,(,0,0,0
11:51.353,256087,p,0,0,0
11:51.419,256111,),0,0,0
11:51.447,256121,(,0,0,1
11:51.494,256138,N,0,0,0
11:51.583,256170,),0,0,1
11:51.667,256200,(,0,0,2
11:51.764,256235,t,0,0,0
11:51.906,256286,),0,0,2
11:52.992,256677,(,0,0,0
11:53.039,256694,p,0,0,0
11:53.150,256734,),0,0,0
11:53.181,256745,(,0,0,1
11:53.225,256761,N,0,0,0
11:53.286,256783,),0,0,1
11:53.356,256808,(,0,0,2
11:53.483,256854,t,0,0,5
11:53.781,256961,t,0,0,5
11:53.811,256972,),0,0,2
11:53.867,256992,(,0,0,0
11:53.881,256997,p,0,0,0
11:53.947,257021,),0,0,0
11:54.078,257068,(,0,0,1
11:54.125,257085,N,0,0,0
11:54.189,257108,),0,0,1
11:54.261,257134,(,0,0,2
11:54.408,257187,t,0,0,0
11:54.533,257232,),0,0,2
11:54.783,257322,(,0,0,0
11:54.806,257330,p,0,0,0
11:54.842,257343,),0,0,0
11:54.939,257378,(,0,0,1
11:55.022,257408,N,0,0,0
11:55.083,257430,),0,0,1
11:55.172,257462,(,0,0,2
11:55.289,257504,t,0,0,0
11:55.481,257573,),0,0,2
11:55.653,257635,(,0,0,0
11:55.778,257680,p,0,0,0
11:55.817,257694,),0,0,0
11:55.856,257708,(,0,0,1
11:55.903,257725,N,0,0,0
11:55.964,257747,),0,0,1
11:56.064,257783,(,0,0,2
11:56.178,257824,t,0,0,0
11:56.417,257910,),0,0,2
11:56.436,257917,(,0,0,0
11:56.464,257927,p,0,0,0
11:56.522,257948,),0,0,0
11:56.728,258022,(,0,0,1
11:56.775,258039,N,0,0,0
11:56.836,258061,),0,0,1
11:56.956,258104,(,0,0,2
11:57.050,258138,t,0,0,0
11:57.175,258183,),0,0,2
11:57.486,258295,(,0,0,0
11:57.528,258310,p,0,0,0
11:57.578,258328,),0,0,0
11:57.603,258337,(,0,0,1
11:57.650,258354,N,0,0,0
11:57.711,258376,),0,0,1
11:57.800,258408,(,0,0,2
11:57.933,258456,t,0,0,0
11:58.167,258540,),0,0,2
11:58.186,258547,(,0,0,0
11:58.222,258560,p,0,0,0
11:58.267,258576,),0,0,0
11:58.456,258644,(,0,0,1
11:58.500,258660,N,0,0,0
11:58.553,258679,),0,0,1
11:58.667,258720,(,0,0,2
11:58.758,258753,t,0,0,0
11:58.906,258806,),0,0,2
11:59.078,258868,(,0,0,0
11:59.092,258873,p,0,0,0
11:59.128,258886,),0,0,0
11:59.325,258957,(,0,0,1
11:59.375,258975,N,0,0,0
11:59.436,258997,),0,0,1
11:59.542,259035,(,0,0,2
11:59.639,259070,t,0,0,0
11:59.836,259141,),0,0,2
11:59.989,259196,(,0,0,0
12:00.067,259224,p,0,0,0
12:00.086,259231,),0,0,0
12:00.233,259284,(,0,0,1
12:00.281,259301,N,0,0,0
12:00.344,259324,),0,0,1
12:00.431,259355,(,0,0,2
12:00.578,259408,t,0,0,0
12:00.733,259464,),0,0,2
12:28.275,269379,(,0,0,0
12:28.414,269429,p,0,0,0
12:28.436,269437,),0,0,0
12:28.461,269446,(,0,0,1
12:28.506,269462,N,0,0,0
12:28.564,269483,),0,0,1
12:28.631,269507,(,0,0,2
12:28.781,269561,t,0,0,0
12:29.031,269651,),0,0,2
12:29.094,269674,(,0,0,0
12:29.117,269682,p,0,0,0
12:29.158,269697,),0,0,0
12:29.356,269768,(,0,0,1
12:29.403,269785,N,0,0,0
12:29.467,269808,),0,0,1
12:29.539,269834,(,0,0,2
12:29.697,269891,t,0,0,0
12:29.961,269986,),0,0,2
12:30.036,270013,(,0,0,0
12:30.056,270020,p,0,0,0
12:30.108,270039,),0,0,0
12:30.292,270105,(,0,0,1
12:30.342,270123,N,0,0,0
12:30.406,270146,),0,0,1
12:30.447,270161,(,0,0,2
12:30.642,270231,t,0,0,0
12:30.881,270317,),0,0,2
12:31.022,270368,(,0,0,0
12:31.142,270411,p,0,0,0
12:31.172,270422,),0,0,0
12:31.200,270432,(,0,0,1
12:31.250,270450,N,0,0,0
12:31.314,270473,),0,0,1
12:31.375,270495,(,0,0,2
12:31.531,270551,t,0,0,0
12:31.683,270606,),0,0,2
12:31.883,270678,(,0,0,0
12:31.972,270710,p,0,0,0
12:32.058,270741,),0,0,0
12:32.094,270754,(,0,0,1
12:32.142,270771,N,0,0,0
12:32.203,270793,),0,0,1
12:32.261,270814,(,0,0,2
12:32.425,270873,t,0,0,0
12:32.603,270937,),0,0,2
12:33.003,271081,(,0,0,1
12:33.047,271097,N,0,0,0
12:33.106,271118,),0,0,1
12:33.186,271147,(,0,0,2
12:33.331,271199,t,0,0,0
12:33.581,271289,),0,0,2
12:33.597,271295,(,0,0,0
12:33.614,271301,p,0,0,0
12:33.697,271331,),0,0,0
12:33.867,271392,(,0,0,1
12:33.917,271410,N,0,0,0
12:33.978,271432,),0,0,1
12:34.011,271444,(,0,0,2
12:34.200,271512,t,0,0,0
12:34.433,271596,),0,0,2
12:34.511,271624,(,0,0,0
12:34.594,271654,p,0,0,0
12:34.681,271685,),0,0,0
12:34.706,271694,(,0,0,1
12:34.758,271713,N,0,0,0
12:34.819,271735,),0,0,1
12:34.875,271755,(,0,0,2
12:35.039,271814,t,0,0,0
12:35.300,271908,),0,0,2
12:35.319,271915,(,0,0,0
12:35.344,271924,p,0,0,0
12:35.450,271962,),0,0,0
12:35.606,272018,(,0,0,1
12:35.658,272037,N,0,0,0
12:35.722,272060,),0,0,1
12:35.797,272087,(,0,0,2
12:35.947,272141,t,0,0,0
12:36.217,272238,),0,0,2
12:36.233,272244,(,0,0,0
12:36.250,272250,p,0,0,0
12:36.272,272258,),0,0,0
12:36.531,272351,(,0,0,1
12:36.581,272369,N,0,0,0
12:36.644,272392,),0,0,1
12:36.706,272414,(,0,0,2
12:36.878,272476,t,0,0,0
12:37.147,272573,),0,0,2
12:37.206,272594,(,0,0,0
12:37.219,272599,p,0,0,0
12:37.278,272620,),0,0,0
12:37.461,272686,(,0,0,1
12:37.511,272704,N,0,0,0
12:37.575,272727,),0,0,1
12:37.642,272751,(,0,0,2
12:37.800,272808,t,0,0,0
12:38.069,272905,),0,0,2
12:38.153,272935,(,0,0,0
12:38.197,272951,p,0,0,0
12:38.325,272997,),0,0,0
12:38.350,273006,(,0,0,1
12:38.400,273024,N,0,0,0
12:38.461,273046,),0,0,1
12:38.525,273069,(,0,0,2
12:38.678,273124,t,0,0,0
12:38.933,273216,),0,0,2
12:38.994,273238,(,0,0,0
12:39.017,273246,p,0,0,0
12:39.081,273269,),0,0,0
12:39.233,273324,(,0,0,1
12:39.281,273341,N,0,0,0
12:39.342,273363,),0,0,1
12:39.383,273378,(,0,0,2
12:39.544,273436,t,0,0,0
12:39.825,273537,),0,0,2
12:39.933,273576,(,0,0,0
12:40.025,273609,p,0,0,0
12:40.086,273631,),0,0,0
12:40.114,273641,(,0,0,1
12:40.164,273659,N,0,0,0
12:40.222,273680,),0,0,1
12:40.283,273702,(,0,0,2
12:40.442,273759,t,0,0,0
12:40.678,273844,),0,0,2
12:42.631,274547,(,0,0,0
12:42.644,274552,p,0,0,0
12:42.719,274579,),0,0,0
12:42.881,274637,(,0,0,1
12:42.928,274654,N,0,0,0
12:42.992,274677,),0,0,1
12:43.061,274702,(,0,0,2
12:43.211,274756,t,0,0,0
12:43.458,274845,),0,0,2
12:45.356,275528,(,0,0,0
12:45.375,275535,p,0,0,0
12:45.419,275551,),0,0,0
12:45.603,275617,(,0,0,1
12:45.650,275634,N,0,0,0
12:45.711,275656,),0,0,1
12:45.764,275675,(,0,0,2
12:45.925,275733,t,0,0,0
12:46.158,275817,),0,0,2
12:46.231,275843,(,0,0,0
12:46.250,275850,p,0,0,0
12:46.303,275869,),0,0,0
12:46.475,275931,(,0,0,1
12:46.519,275947,N,0,0,0
12:46.578,275968,),0,0,1
12:46.647,275993,(,0,0,2
12:46.797,276047,t,0,0,0
12:47.042,276135,),0,0,2
12:51.939,277898,(,0,0,1
12:51.986,277915,N,0,0,0
12:52.044,277936,),0,0,1
12:52.094,277954,(,0,0,2
12:52.256,278012,t,0,0,0
12:52.506,278102,),0,0,2
12:58.369,280213,(,0,0,1
12:58.417,280230,N,0,0,0
12:58.469,280249,),0,0,1
12:58.536,280273,(,0,0,2
12:58.683,280326,t,0,0,0
12:58.942,280419,),0,0,2
13:20.844,288304,(,0,0,0
13:20.875,288315,p,0,0,0
13:20.919,288331,),0,0,0
13:21.114,288401,(,0,0,1
13:21.161,288418,N,0,0,0
13:21.222,288440,),0,0,1
13:21.306,288470,(,0,0,2
13:21.447,288521,t,0,0,0
13:21.739,288626,),0,0,2
13:21.778,288640,(,0,0,0
13:21.803,288649,p,0,0,0
13:21.836,288661,),0,0,0
13:22.033,288732,(,0,0,1
13:22.081,288749,N,0,0,0
13:22.139,288770,),0,0,1
13:22.178,288784,(,0,0,2
13:22.358,288849,t,0,0,0
13:22.617,288942,),0,0,2
13:24.625,289665,(,0,0,0
13:24.653,289675,p,0,0,0
13:24.703,289693,),0,0,0
13:24.886,289759,(,0,0,1
13:24.967,289788,N,0,0,0
13:25.031,289811,),0,0,1
13:25.092,289833,(,0,0,2
13:25.264,289895,t,0,0,0
13:25.544,289996,),0,0,2
13:25.606,290018,(,0,0,0
13:25.631,290027,p,0,0,0
13:25.667,290040,),0,0,0
13:25.842,290103,(,0,0,1
13:25.925,290133,N,0,0,0
13:25.986,290155,),0,0,1
13:26.053,290179,(,0,0,2
13:26.214,290237,t,0,0,0
13:26.492,290337,),0,0,2
13:26.553,290359,(,0,0,0
13:26.578,290368,p,0,0,0
13:26.622,290384,),0,0,0
13:26.814,290453,(,0,0,1
13:26.861,290470,N,0,0,0
13:26.919,290491,),0,0,1
13:26.997,290519,(,0,0,2
13:27.144,290572,t,0,0,0
13:27.381,290657,),0,0,2
13:27.736,290785,(,0,0,1
13:27.786,290803,N,0,0,0
13:27.847,290825,),0,0,1
13:27.931,290855,(,0,0,2
13:28.078,290908,t,0,0,0
13:28.339,291002,),0,0,2
13:28.408,291027,(,0,0,0
13:28.436,291037,p,0,0,0
13:28.475,291051,),0,0,0
13:28.667,291120,(,0,0,1
13:28.711,291136,N,0,0,0
13:28.772,291158,),0,0,1
13:28.833,291180,(,0,0,2
13:29.019,291247,t,0,0,5
13:29.350,291366,t,0,0,5
13:29.397,291383,),0,0,2
13:29.642,291471,(,0,0,1
13:29.689,291488,N,0,0,0
13:29.747,291509,),0,0,1
13:29.811,291532,(,0,0,2
13:29.981,291593,t,0,0,0
13:30.267,291696,),0,0,2
13:30.603,291817,(,0,0,1
13:30.653,291835,N,0,0,0
13:30.714,291857,),0,0,1
13:30.783,291882,(,0,0,2
13:30.944,291940,t,0,0,5
13:31.286,292063,t,0,0,5
13:31.331,292079,),0,0,2
13:31.564,292163,(,0,0,1
13:31.614,292181,N,0,0,0
13:31.675,292203,),0,0,1
13:31.731,292223,(,0,0,2
13:31.908,292287,t,0,0,0
13:32.167,292380,),0,0,2
13:32.247,292409,(,0,0,0
13:32.275,292419,p,0,0,0
13:32.328,292438,),0,0,0
13:32.511,292504,(,0,0,1
13:32.564,292523,N,0,0,0
13:32.625,292545,),0,0,1
13:32.689,292568,(,0,0,2
13:32.853,292627,t,0,0,5
13:33.194,292750,t,0,0,5
13:33.233,292764,),0,0,2
13:33.472,292850,(,0,0,1
13:33.519,292867,N,0,0,0
13:33.572,292886,),0,0,1
13:33.622,292904,(,0,0,2
13:33.794,292966,t,0,0,0
13:34.047,293057,),0,0,2
13:34.133,293088,(,0,0,0
13:34.161,293098,p,0,0,0
13:34.197,293111,),0,0,0
13:34.389,293180,(,0,0,1
13:34.433,293196,N,0,0,0
13:34.483,293214,),0,0,1
13:34.531,293231,(,0,0,2
13:34.706,293294,t,0,0,0
13:34.975,293391,),0,0,2
13:35.039,293414,(,0,0,0
13:35.067,293424,p,0,0,0
13:35.111,293440,),0,0,0
13:35.322,293516,(,0,0,1
13:35.369,293533,N,0,0,0
13:35.433,293556,),0,0,1
13:35.519,293587,(,0,0,2
13:35.686,293647,t,0,0,0
13:35.975,293751,),0,0,2
13:37.047,294137,(,0,0,0
13:37.069,294145,p,0,0,0
13:37.114,294161,),0,0,0
13:37.331,294239,(,0,0,1
13:37.381,294257,N,0,0,0
13:37.442,294279,),0,0,1
13:37.511,294304,(,0,0,2
13:37.672,294362,t,0,0,5
13:37.983,294474,t,0,0,5
13:38.025,294489,),0,0,2
13:38.044,294496,(,0,0,0
13:38.144,294532,p,0,0,0
13:38.167,294540,),0,0,0
13:38.283,294582,(,0,0,1
13:38.331,294599,N,0,0,0
13:38.392,294621,),0,0,1
13:38.442,294639,(,0,0,2
13:38.614,294701,t,0,0,0
13:38.883,294798,),0,0,2
13:38.942,294819,(,0,0,0
13:38.978,294832,p,0,0,0
13:39.017,294846,),0,0,0
13:39.222,294920,(,0,0,1
13:39.272,294938,N,0,0,0
13:39.331,294959,),0,0,1
13:39.386,294979,(,0,0,2
13:39.550,295038,t,0,0,0
13:39.814,295133,),0,0,2
13:48.508,298263,(,0,0,1
13:48.678,298324,N,0,0,0
13:48.856,298388,),0,0,1
13:48.861,298390,(,0,0,2
13:49.169,298501,t,0,0,0
13:49.322,298556,),0,0,2
13:49.506,298622,(,0,0,1
13:49.678,298684,N,0,0,0
13:49.828,298738,),0,0,1
13:49.831,298739,(,0,0,2
13:50.133,298848,t,0,0,0
13:50.247,298889,),0,0,2
13:50.464,298967,(,0,0,0
13:50.492,298977,p,0,0,0
13:50.536,298993,),0,0,0
13:50.567,299004,(,0,0,1
13:50.644,299032,N,0,0,0
13:50.775,299079,),0,0,1
13:50.778,299080,t,0,0,2
13:50.847,299105,),0,0,2
13:50.850,299106,(,0,0,1
13:51.033,299172,N,0,0,0
13:51.078,299188,),0,0,1
13:51.658,299397,(,0,0,2
13:51.703,299413,t,0,0,1
13:51.756,299432,),0,0,2
13:51.808,299451,(,0,0,1
13:52.039,299534,N,0,0,0
13:52.089,299552,),0,0,1
13:52.094,299554,(,0,0,2
13:52.344,299644,t,0,0,1
13:52.369,299653,),0,0,2
13:52.608,299739,(,0,0,0
13:52.644,299752,p,0,0,0
13:52.692,299769,),0,0,0
13:52.742,299787,(,0,0,1
13:52.903,299845,N,0,0,0
13:52.942,299859,),0,0,1
13:53.525,300069,t,0,0,3
13:53.600,300096,),0,0,2
13:53.700,300132,(,0,0,1
13:53.900,300204,N,0,0,0
13:53.925,300213,),0,0,1
13:54.269,300337,),0,0,2
13:54.400,300384,t,0,0,1
13:54.486,300415,(,0,0,0
13:54.508,300423,p,0,0,0
13:54.528,300430,(,0,0,2
13:54.553,300439,),0,0,0
13:54.556,300440,(,0,0,1
13:54.906,300566,N,0,0,0
13:54.950,300582,),0,0,1
13:54.975,300591,(,0,0,2
13:55.228,300682,t,0,0,1
13:55.261,300694,),0,0,2
13:55.511,300784,(,0,0,0
13:55.547,300797,p,0,0,0
13:55.597,300815,),0,0,0
13:55.650,300834,(,0,0,1
13:55.808,300891,N,0,0,0
13:55.842,300903,),0,0,1
13:56.433,301116,t,0,0,3
