Col1,wPre,Type
0.002,0.72777778,V
0.014,1.45277778,R
0.039,0.67500000,V
0.050,1.41666667,R
0.074,0.64722222,V
0.084,1.44722222,R
0.108,0.69722222,V
0.120,1.43888889,R
0.144,0.68333333,V
0.155,1.38888889,R
0.179,0.65277778,V
0.189,1.51388889,R
0.215,0.70000000,V
0.226,1.44444444,R
0.250,0.66388889,V
0.261,1.42222222,R
0.285,0.68888889,V
0.297,1.47500000,R
0.321,0.70000000,V
0.333,1.41388889,R
0.356,0.65833333,V
0.367,1.38888889,R
0.391,0.71388889,V
0.403,1.44722222,R
0.427,0.68888889,V
0.438,1.35000000,R
0.461,0.68611111,V
0.472,1.36944444,R
0.495,0.69444444,V
0.506,1.41944444,R
0.530,0.69166667,V
0.542,1.38333333,R
0.565,0.66388889,V
0.576,1.38888889,R
0.599,0.73333333,V
0.611,0.41111111,V
0.618,1.02500000,L
0.647,0.43888889,V
0.654,0.38333333,V
0.690,0.34444444,!
0.695,0.33333333,!
0.701,0.33333333,!
0.706,0.35833333,!
0.712,0.36666667,!
0.718,0.34166667,!
0.724,0.32500000,!
0.730,0.40833333,!
0.736,0.30277778,!
0.741,0.34166667,!
0.747,0.34444444,!
0.753,0.33611111,!
0.758,0.31388889,!
0.764,0.31944444,!
0.769,0.27500000,!
0.774,0.31111111,!
0.779,0.31666667,!
0.784,0.33055556,!
0.790,0.45277778,!
0.797,0.35555556,!
0.803,0.45277778,!
0.811,0.30277778,!
0.816,0.31111111,!
0.821,0.35277778,!
0.827,0.33055556,!
0.832,0.43333333,!
0.839,0.34444444,!
0.872,0.68055556,V
0.883,1.41388889,R
0.918,0.35555556,!
0.924,0.31388889,!
0.929,0.29444444,!
0.934,0.31666667,!
0.940,0.29166667,!
0.945,0.33055556,!
0.950,0.33055556,!
0.956,0.30000000,!
0.961,0.28611111,!
0.965,0.30833333,!
0.970,0.36111111,!
0.976,0.25277778,!
0.981,0.36666667,!
0.987,0.32500000,!
0.992,0.48888889,!
1.036,0.36111111,V
1.042,0.42222222,V
1.059,0.80833333,L
1.073,0.91111111,L
1.088,0.67777778,V
1.099,1.19722222,R
1.119,0.99444444,L
1.136,0.91944444,L
1.151,0.88611111,L
1.166,0.86388889,L
1.192,1.12777778,L
1.211,0.65277778,V
1.222,1.14166667,R
1.241,0.68055556,V
1.271,0.90833333,L
1.286,0.70555556,V
1.298,0.39722222,V
1.305,1.48611111,R
1.329,0.68888889,V
1.341,0.41666667,V
1.348,0.94444444,R
1.364,1.08888889,L
1.382,0.66944444,V
1.393,1.33055556,R
1.415,0.73333333,V
1.427,1.19444444,R
1.447,0.98055556,L
1.464,0.91666667,L
1.479,0.94444444,L
1.495,0.98055556,L
1.511,0.96666667,L
1.527,0.98333333,L
1.543,0.73611111,V
1.556,1.08888889,R
1.574,0.97500000,L
1.590,1.00277778,L
1.607,1.02222222,L
1.624,0.95555556,L
1.640,0.94444444,L
1.656,0.95833333,L
1.672,0.92777778,L
1.687,0.98055556,L
1.703,0.98611111,L
1.720,0.98055556,L
1.736,0.96666667,L
1.752,0.92777778,L
1.768,0.90833333,L
1.783,0.99444444,L
1.799,1.01944444,L
1.816,0.94722222,L
1.832,0.96944444,L
1.848,0.94444444,L
1.864,0.93055556,L
1.880,0.97777778,L
1.896,0.97222222,L
1.912,0.98055556,L
1.928,0.96111111,L
1.944,0.91944444,L
1.960,0.91388889,L
1.975,0.90277778,L
1.990,0.96944444,L
2.006,0.97500000,L
2.022,0.93055556,L
2.038,0.92777778,L
2.053,0.92777778,L
2.069,0.89166667,L
2.084,0.93611111,L
2.099,0.94722222,L
2.115,0.93888889,L
2.131,0.73333333,V
2.143,1.08611111,L
2.161,0.61944444,V
2.171,1.12222222,R
2.190,0.80277778,V
2.204,0.42222222,V
2.211,0.75277778,L
2.234,1.17222222,R
2.253,0.60000000,V
2.263,1.23888889,R
2.284,0.63333333,V
2.294,1.29444444,R
2.316,0.66111111,V
2.327,1.28055556,R
2.348,0.62222222,V
2.359,1.20833333,R
2.379,0.61111111,V
2.389,1.35000000,R
2.412,0.64166667,V
2.422,1.29166667,R
2.444,0.63055556,V
2.454,1.27500000,R
2.476,0.61388889,V
2.486,1.30000000,R
2.507,0.66944444,V
2.519,1.29722222,R
2.540,0.65277778,V
2.551,1.26388889,R
2.572,0.60277778,V
2.582,1.36388889,R
2.605,0.67222222,V
2.616,1.29444444,R
2.638,0.64444444,V
2.648,1.27777778,R
2.670,0.63055556,V
2.680,1.32500000,R
2.702,0.65833333,V
2.713,1.33888889,R
2.736,0.64166667,V
2.746,1.29166667,R
2.768,0.60833333,V
2.778,1.35277778,R
2.801,0.66666667,V
2.812,1.35000000,R
2.834,0.62222222,V
2.844,1.30555556,R
2.866,0.62500000,V
2.877,1.29166667,R
2.898,0.65000000,V
2.909,1.35833333,R
2.932,0.63333333,V
2.942,1.33333333,R
2.964,0.60277778,V
2.974,1.33333333,R
2.997,0.66111111,V
3.008,1.36111111,R
3.030,0.62222222,V
3.041,1.32222222,R
3.063,0.60555556,V
3.073,1.34444444,R
3.095,0.66111111,V
3.106,1.37222222,R
3.129,0.63333333,V
3.140,1.33611111,R
3.162,0.61388889,V
3.172,1.31666667,R
3.194,0.58888889,V
3.204,1.46111111,R
3.228,0.55555556,V
3.238,1.39166667,R
3.261,0.64166667,V
3.272,1.29444444,R
3.293,0.58055556,V
3.303,1.45833333,R
3.327,0.57222222,V
3.337,1.41666667,R
3.360,0.58333333,V
3.370,1.35555556,R
3.393,0.59722222,V
3.402,1.45833333,R
3.427,0.59444444,V
3.437,1.36944444,R
3.460,0.60277778,V
3.470,1.35000000,R
3.492,0.58333333,V
3.502,1.48055556,R
3.526,0.57777778,V
3.536,1.40555556,R
3.560,0.54444444,V
3.569,1.39444444,R
3.592,0.58333333,V
3.602,1.48888889,R
3.626,0.56388889,V
3.636,1.42777778,R
3.660,0.56111111,V
3.669,1.38333333,R
3.692,0.58611111,V
3.702,1.47777778,R
3.726,0.57500000,V
3.736,1.43055556,R
3.760,0.55000000,V
3.769,1.38611111,R
3.792,0.58888889,V
3.802,1.45000000,R
3.826,0.55833333,V
3.835,1.41944444,R
3.859,0.56111111,V
3.868,1.40277778,R
3.892,0.66111111,V
3.903,1.40555556,R
3.926,0.57777778,V
3.936,1.38888889,R
3.959,0.55000000,V
3.968,1.39722222,R
3.991,0.58333333,V
4.012,1.06388889,L
4.040,0.36111111,!
4.046,0.32777778,!
4.052,0.34166667,!
4.058,0.30277778,!
4.063,0.35555556,!
4.069,0.32777778,!
4.074,0.33888889,!
4.080,0.38333333,!
4.086,0.36944444,!
4.092,0.34722222,!
4.098,0.33611111,!
4.138,0.29166667,!
4.142,0.41666667,!
4.149,0.38611111,!
4.156,0.34444444,!
4.162,0.31111111,!
4.167,0.35833333,!
4.173,0.29444444,!
4.178,0.34166667,!
4.183,0.29444444,!
4.188,0.35555556,!
4.194,0.36111111,!
4.200,0.35833333,!
4.206,0.31388889,!
4.211,0.30833333,!
4.217,0.30000000,!
4.222,0.36111111,!
4.228,0.30555556,!
4.233,0.31388889,!
4.238,0.35833333,!
4.244,0.30277778,!
4.249,0.28611111,!
4.254,0.32222222,!
4.259,0.29444444,!
4.264,0.30277778,!
4.269,0.30833333,!
4.274,0.28611111,!
4.279,0.27777778,!
4.284,0.28888889,!
4.288,0.30277778,!
4.293,0.28055556,!
4.298,0.31944444,!
4.303,0.26666667,!
4.308,0.34166667,!
4.314,0.34722222,!
4.319,0.36944444,!
4.325,0.30277778,!
4.331,0.35833333,!
4.336,0.37222222,!
4.343,0.38611111,!
4.372,0.67500000,V
4.383,1.46111111,L
4.408,1.00000000,L
4.424,0.98333333,L
4.441,0.67500000,V
4.452,0.38055556,V
4.458,1.68055556,L
4.497,0.41666667,!
4.504,0.28888889,!
4.509,0.30833333,!
4.514,0.31388889,!
4.519,0.33611111,!
4.524,0.26666667,!
4.529,0.31666667,!
4.534,0.31944444,!
4.540,0.31666667,!
4.545,0.30277778,!
4.550,0.27500000,!
4.554,0.30000000,!
4.559,0.18611111,!
4.563,0.27777778,!
4.567,0.27500000,!
4.572,0.29444444,!
4.577,0.25000000,!
4.581,0.30555556,!
4.586,0.29444444,!
4.591,0.31944444,!
4.596,0.26944444,!
4.601,0.32500000,!
4.606,0.29444444,!
4.611,0.26111111,!
4.615,0.32777778,!
4.621,0.27777778,!
4.625,0.25555556,!
4.630,0.29444444,!
4.635,0.29722222,!
4.640,0.27222222,!
4.644,0.31111111,!
4.649,0.33611111,!
4.655,0.35000000,!
4.661,0.36944444,!
4.667,0.42222222,!
4.696,0.81111111,V
4.729,0.65277778,V
4.740,1.11111111,L
4.758,0.85000000,L
4.773,0.82777778,L
4.786,0.86111111,L
4.801,0.86111111,L
4.815,0.83333333,L
4.829,0.81111111,L
4.843,0.80000000,L
4.856,0.80277778,L
4.869,0.75555556,L
4.882,0.79722222,L
4.895,0.85277778,L
4.909,0.82777778,L
4.923,0.80277778,L
4.936,0.80833333,L
4.950,0.77500000,L
4.963,0.75555556,L
4.975,0.76944444,L
4.988,0.79444444,L
5.002,0.78055556,L
5.015,0.74166667,L
5.040,0.72777778,L
5.052,0.74722222,L
5.064,0.74166667,L
5.077,0.72222222,L
5.089,0.75833333,L
5.101,0.78611111,L
5.114,0.76944444,L
5.127,0.75000000,L
5.140,0.74166667,L
5.152,0.71388889,L
5.176,0.71666667,L
5.188,0.78333333,L
5.201,0.77500000,L
5.214,0.75555556,L
5.227,0.73055556,L
5.239,0.74444444,L
5.251,0.74444444,L
5.264,0.73888889,L
5.276,0.70833333,L
5.288,0.76944444,L
5.301,0.77500000,L
5.314,0.78055556,L
5.327,0.75555556,L
5.352,0.71944444,L
5.364,0.71111111,L
5.375,0.73333333,L
5.388,0.76388889,L
5.400,0.76666667,L
5.413,0.76388889,L
5.426,0.73333333,L
5.438,0.70555556,L
5.450,0.71111111,L
5.462,0.66111111,L
5.473,0.65555556,L
5.484,0.68888889,L
5.495,0.67777778,L
5.506,0.73888889,L
5.519,0.68611111,L
5.530,0.68611111,L
5.542,0.68888889,L
5.553,0.64166667,L
5.564,0.68888889,L
5.575,0.69444444,L
5.598,0.76666667,L
5.611,0.72222222,L
5.623,0.69444444,L
5.647,0.68333333,L
5.658,0.74444444,L
5.671,0.71388889,L
5.683,0.77222222,L
5.696,0.80833333,L
5.709,0.79722222,L
5.722,0.78333333,L
5.735,0.76388889,L
5.748,0.75555556,L
5.773,0.76111111,L
5.786,0.78888889,L
5.799,0.78055556,L
5.812,0.78888889,L
5.825,0.76111111,L
5.838,0.75833333,L
5.851,0.76388889,L
5.863,0.73611111,L
5.876,0.73888889,L
5.888,0.78055556,L
5.901,0.80833333,L
5.914,0.78333333,L
5.928,0.76944444,L
5.940,0.74444444,L
5.953,0.73888889,L
5.965,0.73055556,L
5.977,0.76111111,L
5.990,0.80277778,L
6.003,0.79444444,L
6.017,0.75833333,L
6.029,0.76111111,L
6.042,0.77777778,L
6.055,0.75555556,L
6.067,0.71388889,L
6.079,0.77222222,L
6.092,0.79722222,L
6.105,0.79722222,L
6.119,0.78611111,L
6.132,0.76944444,L
6.145,0.74166667,L
6.157,0.74722222,L
6.169,0.75555556,L
6.182,0.77777778,L
6.195,0.80277778,L
6.208,0.78888889,L
6.222,0.77222222,L
6.234,0.77500000,L
6.247,0.76666667,L
6.260,0.75833333,L
6.273,0.75555556,L
6.285,0.78888889,L
6.299,0.81944444,L
6.312,0.81388889,L
6.326,0.78888889,L
6.339,0.75555556,L
6.351,0.76388889,L
6.364,0.75000000,L
6.377,0.77500000,L
6.390,0.82500000,L
6.403,0.82222222,L
6.417,0.78888889,L
6.430,0.80277778,L
6.444,0.80277778,L
6.457,0.77500000,L
6.470,0.75555556,L
6.482,0.80555556,L
6.496,0.81666667,L
6.510,0.84166667,L
6.524,0.81666667,L
6.537,0.78888889,L
6.550,0.77222222,L
6.563,0.78333333,L
6.576,0.79722222,L
6.590,0.83888889,L
6.604,0.81944444,L
6.617,0.81111111,L
6.631,0.81388889,L
6.644,0.80277778,L
6.658,0.79444444,L
6.671,0.78611111,L
6.684,0.77777778,L
6.697,0.85277778,L
6.711,0.85555556,L
6.725,0.81388889,L
6.739,0.80555556,L
6.752,0.79722222,L
6.766,0.76111111,L
6.778,0.82222222,L
6.792,0.85555556,L
6.806,0.83888889,L
6.820,0.81666667,L
6.834,0.82777778,L
6.848,0.79444444,L
6.861,0.79444444,L
6.874,0.77222222,L
6.887,0.82500000,L
6.901,0.82500000,L
6.915,0.82500000,L
6.928,0.80277778,L
6.942,0.78611111,L
6.955,0.76388889,L
6.980,0.81111111,L
6.994,0.82777778,L
7.021,0.80000000,L
7.034,0.77777778,L
7.047,0.77777778,L
7.060,0.76944444,L
7.073,0.75277778,L
7.086,0.78611111,L
7.099,0.83611111,L
7.113,0.81388889,L
7.126,0.77777778,L
7.139,0.76111111,L
7.152,0.76666667,L
7.165,0.73333333,L
7.177,0.78888889,L
7.190,0.81944444,L
7.204,0.80277778,L
7.217,0.78333333,L
7.230,0.79444444,L
7.243,0.77500000,L
7.256,0.76388889,L
7.269,0.73611111,L
7.281,0.77222222,L
7.294,0.80833333,L
7.308,0.81111111,L
7.321,0.79166667,L
7.334,0.77777778,L
7.347,0.75555556,L
7.360,0.76111111,L
7.373,0.77222222,L
7.399,0.78888889,L
7.412,0.78888889,L
7.425,0.77222222,L
7.438,0.76111111,L
7.464,0.75000000,L
7.476,0.73055556,L
7.488,0.79722222,L
7.501,0.82500000,L
7.515,0.77777778,L
7.528,0.75833333,L
7.541,0.75833333,L
7.553,0.75555556,L
7.566,0.74166667,L
7.578,0.79166667,L
7.592,0.79166667,L
7.605,0.79166667,L
7.618,0.78055556,L
7.631,0.79166667,L
7.644,0.75555556,L
7.657,0.75000000,L
7.669,0.72222222,L
7.681,0.77500000,L
7.694,0.80555556,L
7.708,0.80277778,L
7.721,0.77500000,L
7.734,0.77500000,L
7.747,0.74444444,L
7.759,0.75833333,L
7.772,0.75555556,L
7.785,0.78055556,L
7.798,0.78888889,L
7.811,0.78333333,L
7.824,0.75555556,L
7.836,0.76388889,L
7.849,0.76388889,L
7.862,0.73611111,L
7.874,0.72222222,L
7.899,0.82500000,L
7.913,0.78333333,L
7.926,0.75555556,L
7.939,0.74444444,L
7.951,0.74444444,L
7.964,0.74166667,L
7.976,0.75555556,L
7.988,0.77500000,L
8.001,0.78611111,L
8.014,0.77500000,L
8.040,0.76111111,L
8.053,0.75555556,L
8.066,0.72500000,L
8.078,0.77222222,L
8.091,0.79722222,L
8.104,0.80000000,L
8.117,0.78888889,L
8.130,0.77777778,L
8.143,0.74722222,L
8.156,0.76388889,L
8.169,0.75277778,L
8.181,0.78055556,L
8.194,0.79444444,L
8.207,0.79722222,L
8.221,0.76388889,L
8.233,0.78055556,L
8.246,0.77777778,L
8.259,0.75277778,L
8.272,0.73611111,L
8.284,0.80555556,L
8.298,0.82500000,L
8.311,0.79166667,L
8.325,0.76388889,L
8.337,0.76111111,L
8.350,0.75555556,L
8.363,0.76388889,L
8.375,0.76666667,L
8.388,0.79444444,L
8.401,0.81111111,L
8.415,0.78333333,L
8.428,0.79722222,L
8.441,0.76666667,L
8.454,0.75555556,L
8.467,0.72777778,L
8.479,0.80000000,L
8.492,0.80555556,L
8.505,0.80277778,L
8.519,0.78888889,L
8.532,0.77500000,L
8.545,0.75555556,L
8.557,0.77777778,L
8.570,0.75000000,L
8.583,0.78611111,L
8.596,0.80555556,L
8.623,0.77500000,L
8.636,0.79166667,L
8.662,0.76111111,L
8.675,0.75000000,L
8.687,0.81944444,L
8.701,0.81666667,L
8.714,0.80000000,L
8.728,0.76944444,L
8.741,0.76944444,L
8.753,0.76944444,L
8.766,0.75833333,L
8.779,0.78888889,L
8.792,0.81666667,L
8.806,0.80277778,L
8.819,0.79722222,L
8.832,0.81111111,L
8.846,0.78055556,L
8.859,0.75555556,L
8.871,0.75833333,L
8.884,0.80277778,L
8.897,0.83611111,L
8.911,0.82500000,L
8.925,0.78888889,L
8.938,0.76388889,L
8.951,0.79166667,L
8.964,0.77222222,L
8.977,0.78888889,L
8.990,0.81944444,L
9.004,0.82222222,L
9.018,0.80000000,L
9.031,0.81111111,L
9.044,0.79166667,L
9.058,0.77222222,L
9.070,0.76111111,L
9.083,0.82777778,L
9.097,0.83888889,L
9.111,0.82500000,L
9.125,0.78611111,L
9.138,0.78611111,L
9.151,0.78333333,L
9.164,0.77500000,L
9.177,0.81666667,L
9.190,0.83888889,L
9.204,0.82777778,L
9.218,0.83333333,L
9.232,0.81666667,L
9.246,0.78611111,L
9.259,0.77777778,L
9.272,0.78333333,L
9.285,0.82222222,L
9.299,0.85555556,L
9.313,0.82222222,L
9.327,0.80555556,L
9.340,0.80000000,L
9.353,0.81111111,L
9.367,0.76944444,L
9.380,0.81666667,L
9.393,0.83333333,L
9.407,0.82777778,L
9.421,0.82500000,L
9.435,0.81111111,L
9.448,0.78055556,L
9.461,0.77777778,L
9.474,0.78333333,L
9.487,0.84722222,L
9.501,0.84166667,L
9.515,0.80833333,L
9.529,0.80555556,L
9.542,0.79722222,L
9.556,0.79444444,L
9.569,0.78055556,L
9.582,0.81944444,L
9.595,0.81666667,L
9.609,0.82777778,L
9.623,0.82500000,L
9.637,0.79722222,L
9.650,0.77222222,L
9.663,0.77500000,L
9.676,0.78055556,L
9.689,0.84166667,L
9.703,0.85000000,L
9.717,0.81388889,L
9.730,0.79444444,L
9.744,0.80833333,L
9.757,0.79722222,L
9.770,0.78611111,L
9.784,0.81944444,L
9.797,0.83611111,L
9.811,0.82500000,L
9.825,0.82222222,L
9.839,0.80277778,L
9.852,0.79444444,L
9.865,0.75833333,L
9.878,0.83055556,L
9.892,0.85277778,L
9.906,0.83888889,L
9.920,0.81111111,L
9.933,0.81944444,L
9.947,0.79444444,L
9.960,0.80555556,L
9.974,0.79722222,L
9.987,0.83611111,L
10.001,0.83888889,L
10.015,0.86111111,L
10.029,0.81666667,L
10.043,0.79444444,L
10.056,0.80000000,L
10.069,0.78611111,L
10.083,0.85277778,L
10.097,0.88055556,L
10.111,0.83888889,L
10.125,0.82777778,L
10.139,0.82500000,L
10.153,0.82500000,L
10.167,0.79722222,L
10.180,0.82777778,L
10.194,0.85555556,L
10.208,0.85277778,L
10.222,0.83888889,L
10.236,0.82777778,L
10.250,0.81944444,L
10.264,0.78055556,L
10.277,0.85277778,L
10.291,0.87222222,L
10.306,0.86111111,L
10.320,0.83333333,L
10.334,0.83611111,L
10.348,0.81666667,L
10.361,0.82777778,L
10.375,0.81666667,L
10.389,0.85833333,L
10.403,0.87500000,L
10.418,0.86388889,L
10.432,0.83611111,L
10.446,0.81666667,L
10.460,0.81388889,L
10.473,0.81666667,L
10.487,0.88611111,L
10.501,0.87222222,L
10.516,0.85555556,L
10.530,0.83055556,L
10.544,0.83333333,L
10.558,0.82500000,L
10.572,0.80555556,L
10.585,0.85277778,L
10.599,0.87777778,L
10.614,0.85277778,L
10.628,0.84722222,L
10.642,0.83055556,L
10.656,0.80833333,L
10.670,0.81111111,L
10.683,0.88888889,L
10.698,0.87777778,L
10.713,0.84166667,L
10.727,0.84166667,L
10.741,0.81944444,L
10.754,0.84166667,L
10.768,0.82222222,L
10.782,0.86388889,L
10.796,0.88333333,L
10.811,0.89444444,L
10.826,0.84166667,L
10.840,0.82777778,L
10.854,0.81666667,L
10.868,0.80277778,L
10.881,0.87777778,L
10.896,0.88055556,L
10.910,0.85555556,L
10.924,0.83333333,L
10.938,0.83888889,L
10.952,0.83611111,L
10.966,0.80277778,L
10.980,0.84166667,L
10.994,0.88333333,L
11.008,0.86666667,L
11.023,0.86111111,L
11.037,0.83888889,L
11.051,0.81666667,L
11.065,0.80833333,L
11.078,0.87222222,L
11.093,0.87777778,L
11.107,0.86111111,L
11.122,0.85000000,L
11.136,0.83333333,L
11.150,0.85277778,L
11.164,0.81666667,L
11.178,0.85833333,L
11.192,0.89166667,L
11.207,0.90000000,L
11.222,0.86388889,L
11.236,0.83888889,L
11.250,0.83333333,L
11.264,0.82222222,L
11.278,0.86944444,L
11.292,0.89722222,L
11.307,0.88611111,L
11.322,0.84166667,L
11.336,0.86111111,L
11.350,0.85000000,L
11.365,0.80833333,L
11.378,0.86111111,L
11.392,0.89444444,L
11.407,0.89444444,L
11.422,0.88611111,L
11.437,0.84444444,L
11.451,0.82222222,L
11.465,0.83888889,L
11.479,0.88055556,L
11.493,0.89444444,L
11.508,0.88055556,L
11.523,0.86388889,L
11.537,0.85833333,L
11.552,0.86388889,L
11.566,0.82777778,L
11.580,0.88055556,L
11.595,0.91944444,L
11.610,0.90555556,L
11.625,0.88333333,L
11.640,0.84166667,L
11.654,0.85277778,L
11.668,0.83611111,L
11.682,0.90000000,L
11.697,0.91111111,L
11.712,0.87500000,L
11.727,0.87222222,L
11.741,0.89722222,L
11.756,0.85555556,L
11.770,0.83333333,L
11.784,0.91388889,L
11.800,0.90277778,L
11.815,0.90000000,L
11.830,0.87500000,L
11.844,0.84722222,L
11.858,0.85833333,L
11.873,0.87222222,L
11.887,0.90000000,L
11.902,0.89722222,L
11.917,0.88055556,L
11.932,0.87500000,L
11.946,0.87500000,L
11.961,0.84722222,L
11.975,0.87500000,L
11.990,0.90555556,L
12.005,0.92777778,L
12.020,0.88333333,L
12.035,0.84722222,L
12.049,0.85555556,L
12.063,0.82777778,L
12.077,0.88611111,L
12.092,0.92222222,L
12.107,0.90277778,L
12.122,0.87500000,L
12.137,0.89722222,L
12.152,0.86111111,L
12.166,0.83333333,L
12.180,0.89166667,L
12.195,0.91111111,L
12.210,0.91666667,L
12.225,0.89444444,L
12.240,0.86111111,L
12.255,0.85833333,L
12.269,0.88611111,L
12.284,0.90555556,L
12.299,0.91666667,L
12.314,0.88888889,L
12.329,0.88055556,L
12.344,0.88055556,L
12.358,0.86111111,L
12.373,0.86111111,L
12.387,0.90277778,L
12.402,0.93333333,L
12.418,0.89166667,L
12.432,0.85833333,L
12.447,0.86388889,L
12.461,0.84444444,L
12.475,0.89444444,L
12.490,0.93888889,L
12.506,0.90833333,L
12.521,0.89444444,L
12.536,0.90277778,L
12.551,0.86944444,L
12.565,0.84166667,L
12.579,0.90000000,L
12.594,0.92222222,L
12.610,0.93055556,L
12.625,0.88888889,L
12.640,0.88333333,L
12.655,0.88055556,L
12.669,0.90277778,L
12.684,0.94166667,L
12.700,0.92222222,L
12.716,0.91666667,L
12.731,0.90833333,L
12.746,0.89444444,L
12.761,0.86944444,L
12.775,0.89166667,L
12.790,0.95000000,L
12.806,0.95000000,L
12.822,0.90277778,L
12.837,0.88888889,L
12.852,0.88333333,L
12.866,0.88055556,L
12.881,0.95555556,L
12.897,0.94444444,L
12.913,0.91944444,L
12.928,0.95277778,L
12.944,0.89444444,L
12.959,0.88333333,L
12.974,0.90555556,L
12.989,0.96666667,L
13.005,0.97222222,L
13.021,0.91666667,L
13.036,0.91666667,L
13.052,0.94444444,L
13.067,0.90555556,L
13.082,0.97222222,L
13.099,0.97777778,L
13.115,0.95000000,L
13.131,0.95833333,L
13.147,0.92500000,L
13.162,0.91666667,L
13.177,0.94166667,L
13.193,1.02222222,L
13.210,0.95833333,L
13.226,0.93611111,L
13.242,0.95000000,L
13.258,0.91666667,L
13.273,0.94444444,L
13.289,0.98333333,L
13.305,0.96111111,L
13.321,0.96666667,L
13.337,0.93611111,L
13.353,0.91944444,L
13.368,0.90833333,L
13.383,0.97777778,L
13.399,1.00000000,L
13.416,0.95833333,L
13.432,0.93611111,L
13.448,0.92500000,L
13.463,0.92777778,L
13.479,0.97500000,L
13.495,0.96388889,L
13.511,0.96388889,L
13.527,0.94722222,L
13.543,0.95555556,L
13.559,0.91388889,L
13.574,0.93611111,L
13.590,1.03333333,L
13.607,0.97777778,L
13.623,0.95000000,L
13.639,0.94166667,L
13.655,0.93055556,L
13.670,0.94722222,L
13.686,0.97222222,L
13.702,0.98333333,L
13.718,0.97500000,L
13.735,0.94722222,L
13.751,0.92777778,L
13.766,0.91666667,L
13.781,0.98888889,L
13.798,0.99722222,L
13.814,0.96944444,L
13.831,0.94722222,L
13.846,0.92777778,L
13.862,0.94166667,L
13.877,0.95833333,L
13.893,0.98055556,L
13.910,0.96388889,L
13.926,0.95833333,L
13.942,0.95555556,L
13.958,0.91666667,L
13.973,0.95000000,L
13.989,1.01944444,L
14.006,0.97500000,L
14.022,0.93888889,L
14.038,0.93333333,L
14.053,0.94444444,L
14.069,0.93611111,L
14.085,0.98055556,L
14.101,0.97500000,L
14.117,0.98055556,L
14.134,0.95277778,L
14.149,0.92500000,L
14.165,0.91666667,L
14.180,0.97777778,L
14.196,0.99444444,L
14.213,0.96666667,L
14.229,0.93888889,L
14.245,0.94166667,L
14.260,0.92777778,L
14.276,0.95277778,L
14.292,0.98888889,L
14.308,0.96944444,L
14.324,0.97500000,L
14.341,0.95000000,L
14.357,0.92222222,L
14.372,0.93611111,L
14.387,1.01111111,L
14.404,0.98888889,L
14.421,0.94444444,L
14.437,0.93888889,L
14.452,0.93888889,L
14.468,0.93611111,L
14.483,0.98333333,L
14.500,0.97777778,L
14.516,1.00000000,L
14.533,0.95555556,L
14.549,0.91388889,L
14.564,0.92500000,L
14.579,0.96944444,L
14.596,1.00277778,L
14.612,0.96666667,L
14.628,0.94444444,L
14.644,0.95277778,L
14.660,0.91666667,L
14.675,0.95555556,L
14.691,0.99444444,L
14.708,0.96388889,L
14.724,0.98611111,L
14.740,0.93611111,L
14.756,0.91944444,L
14.771,0.93888889,L
14.787,0.99722222,L
14.803,0.97777778,L
14.820,0.93888889,L
14.835,0.93611111,L
14.851,0.94166667,L
14.867,0.92777778,L
14.882,0.98055556,L
14.899,0.98055556,L
14.915,0.98888889,L
14.931,0.94722222,L
14.947,0.90833333,L
14.962,0.91388889,L
14.977,0.96388889,L
14.994,1.00555556,L
15.010,0.96388889,L
15.026,0.93611111,L
15.042,0.97500000,L
15.058,0.92500000,L
15.074,0.93888889,L
15.089,1.00277778,L
15.106,0.98055556,L
15.122,0.97777778,L
15.139,0.93333333,L
15.154,0.92500000,L
15.170,0.95000000,L
15.185,0.99166667,L
15.202,0.98055556,L
15.218,0.96111111,L
15.234,0.95000000,L
15.250,0.94722222,L
15.266,0.92777778,L
15.281,0.97500000,L
15.298,0.98055556,L
15.314,0.98611111,L
15.330,0.93055556,L
15.346,0.93333333,L
15.362,0.90277778,L
15.377,0.96666667,L
15.393,1.01388889,L
15.410,0.95555556,L
15.426,0.96388889,L
15.442,0.96388889,L
15.458,0.92500000,L
15.473,0.95000000,L
15.489,0.98611111,L
15.505,0.98611111,L
15.522,0.96666667,L
15.538,0.92222222,L
15.553,0.93055556,L
15.569,0.93888889,L
15.584,0.99722222,L
15.601,0.97500000,L
15.617,0.95277778,L
15.633,0.95555556,L
15.649,0.94444444,L
15.665,0.92222222,L
15.680,0.96388889,L
15.696,1.00277778,L
15.713,0.98055556,L
15.729,0.94444444,L
15.745,0.93055556,L
15.761,0.91666667,L
15.776,0.98333333,L
15.792,1.02222222,L
15.809,0.96666667,L
15.825,0.97500000,L
15.842,0.96111111,L
15.858,0.93333333,L
15.873,0.93888889,L
15.889,1.00000000,L
15.906,1.00000000,L
15.922,0.97222222,L
15.938,0.95555556,L
15.954,0.93611111,L
15.970,0.97222222,L
15.986,1.00833333,L
16.003,0.98888889,L
16.019,0.98055556,L
16.036,0.95833333,L
16.052,0.95277778,L
16.068,0.93888889,L
16.083,0.98611111,L
16.100,1.02222222,L
16.117,0.97222222,L
16.133,0.95000000,L
16.149,0.94722222,L
16.165,0.92500000,L
16.180,0.81388889,L
16.194,1.01388889,L
16.210,0.98611111,L
16.227,1.00277778,L
16.244,0.95833333,L
16.260,0.92777778,L
16.275,0.96666667,L
16.291,1.00277778,L
16.308,1.01944444,L
16.325,0.96388889,L
16.341,0.94722222,L
16.357,0.94722222,L
16.372,0.97222222,L
16.389,1.00277778,L
16.405,0.97500000,L
16.422,0.96111111,L
16.438,0.95833333,L
16.454,0.94722222,L
16.469,0.92777778,L
16.485,1.00833333,L
16.502,1.02222222,L
16.519,0.96666667,L
16.535,0.95555556,L
16.551,0.93888889,L
16.566,0.94444444,L
16.582,1.01111111,L
16.599,0.99722222,L
16.616,0.97777778,L
16.632,0.97222222,L
16.648,0.95277778,L
16.664,0.91666667,L
16.679,0.99444444,L
16.696,1.01944444,L
16.713,1.00000000,L
16.729,0.97222222,L
16.746,0.94166667,L
16.761,0.96388889,L
16.777,0.99722222,L
16.794,0.98888889,L
16.811,0.98888889,L
16.827,0.96944444,L
16.843,0.96388889,L
16.859,0.92500000,L
16.875,0.97222222,L
16.891,1.04166667,L
16.908,0.98333333,L
16.925,0.97222222,L
16.941,0.94722222,L
16.957,0.93611111,L
16.972,0.98333333,L
16.989,0.99166667,L
17.005,0.97777778,L
17.021,0.98611111,L
17.038,0.95000000,L
17.054,0.93333333,L
17.069,0.94166667,L
17.085,1.00000000,L
17.102,1.01944444,L
17.119,0.96666667,L
17.135,0.93888889,L
17.150,0.95277778,L
17.166,0.93611111,L
17.182,0.98055556,L
17.198,0.99166667,L
17.215,0.95555556,L
17.231,0.97500000,L
17.247,0.94722222,L
17.263,0.90833333,L
17.278,1.00555556,L
17.295,1.01666667,L
17.312,0.96944444,L
17.328,0.95277778,L
17.344,0.93888889,L
17.359,0.93055556,L
17.375,0.97777778,L
17.391,1.00277778,L
17.408,0.98333333,L
17.424,0.98888889,L
17.441,0.95277778,L
17.456,0.92777778,L
17.472,0.96666667,L
17.488,1.00833333,L
17.505,1.00555556,L
17.522,0.97500000,L
17.538,0.94166667,L
17.554,0.96944444,L
17.570,0.94166667,L
17.585,0.99444444,L
17.602,1.00000000,L
17.619,0.96944444,L
17.635,0.97777778,L
17.651,0.94166667,L
17.667,0.94444444,L
17.683,1.02500000,L
17.700,0.99166667,L
17.716,0.95555556,L
17.732,0.95000000,L
17.748,0.99444444,L
17.764,0.93888889,L
17.780,0.98333333,L
17.797,1.01111111,L
17.813,0.98333333,L
17.830,0.98888889,L
17.846,0.93333333,L
17.862,0.93333333,L
17.877,0.97777778,L
17.894,1.00833333,L
17.910,0.98888889,L
17.927,0.94722222,L
17.943,0.96111111,L
17.959,0.93611111,L
17.974,0.96666667,L
17.990,1.01388889,L
18.007,0.98055556,L
18.024,0.98333333,L
18.040,0.95555556,L
18.056,0.93333333,L
18.072,0.95277778,L
18.087,1.02500000,L
18.105,0.99722222,L
18.121,0.94444444,L
18.137,0.95277778,L
18.153,0.95000000,L
18.169,0.95555556,L
18.185,1.00555556,L
18.201,0.99722222,L
18.218,1.00833333,L
18.235,0.96111111,L
18.251,0.93611111,L
18.266,0.94722222,L
18.282,1.00000000,L
18.299,1.02500000,L
18.316,0.97500000,L
18.332,0.95555556,L
18.348,0.98611111,L
18.364,0.93888889,L
18.380,1.00000000,L
18.397,1.00555556,L
18.414,0.99166667,L
18.430,0.97500000,L
18.446,0.95277778,L
18.462,0.92777778,L
18.478,1.00277778,L
18.494,1.01388889,L
18.511,0.97500000,L
18.528,0.95555556,L
18.543,0.94722222,L
18.559,0.93888889,L
18.575,0.97222222,L
18.591,1.00277778,L
18.608,1.00000000,L
18.624,0.96666667,L
18.641,0.93055556,L
18.656,0.93055556,L
18.672,0.95555556,L
18.688,1.01666667,L
18.704,0.98611111,L
18.721,0.95277778,L
18.737,0.96944444,L
18.753,0.94722222,L
18.769,0.93888889,L
18.784,0.98888889,L
18.801,0.99444444,L
18.817,0.98611111,L
18.834,0.93888889,L
18.850,0.93333333,L
18.865,0.93333333,L
18.881,1.00277778,L
18.897,0.99722222,L
18.914,0.96944444,L
18.930,0.95833333,L
18.946,0.95277778,L
18.962,0.93333333,L
18.978,0.98055556,L
18.994,1.00000000,L
19.011,1.00000000,L
19.027,0.96111111,L
19.043,0.93055556,L
19.059,0.92777778,L
19.074,0.98888889,L
19.091,1.03055556,L
19.108,0.97777778,L
19.124,0.97222222,L
19.140,0.97500000,L
19.157,0.93333333,L
19.172,0.95833333,L
19.188,1.00000000,L
19.205,1.00000000,L
19.221,0.97500000,L
19.238,0.94722222,L
19.254,0.93888889,L
19.269,0.96388889,L
19.285,1.01388889,L
19.302,0.98888889,L
19.319,0.96666667,L
19.335,0.95277778,L
19.351,0.95833333,L
19.367,0.93055556,L
19.382,0.98333333,L
19.398,1.02222222,L
19.416,0.96388889,L
19.432,0.95000000,L
19.447,0.95277778,L
19.463,0.91666667,L
19.479,1.02222222,L
19.496,1.00000000,L
19.512,0.96111111,L
19.528,0.97777778,L
19.545,0.94166667,L
19.560,0.92777778,L
19.576,0.96388889,L
19.592,1.00000000,L
19.608,0.99166667,L
19.625,0.96944444,L
19.641,0.93888889,L
19.657,0.92777778,L
19.672,0.99444444,L
19.689,0.99722222,L
19.705,0.96944444,L
19.722,0.96944444,L
19.738,0.94166667,L
19.753,0.95555556,L
19.769,0.94166667,L
19.785,0.98888889,L
19.802,1.02222222,L
19.819,0.96944444,L
19.835,0.95000000,L
19.851,0.94444444,L
19.866,0.94444444,L
19.882,1.02222222,L
19.899,0.99166667,L
19.916,0.96944444,L
19.932,0.97777778,L
19.948,0.95833333,L
19.964,0.92777778,L
19.980,1.00277778,L
19.996,1.02222222,L
20.013,0.99722222,L
20.030,0.97222222,L
20.046,0.94722222,L
20.062,0.96388889,L
20.078,1.01111111,L
20.095,0.99722222,L
20.111,0.99166667,L
20.128,0.96944444,L
20.144,0.96666667,L
20.160,0.92777778,L
20.176,0.98611111,L
20.192,1.03611111,L
20.209,0.99166667,L
20.226,0.96666667,L
20.242,0.94444444,L
20.258,0.93055556,L
20.273,0.99166667,L
20.290,0.99722222,L
20.306,0.98888889,L
20.323,0.97500000,L
20.339,0.95000000,L
20.355,0.94444444,L
20.371,0.94722222,L
20.387,1.01388889,L
20.403,1.00833333,L
20.420,0.96944444,L
20.436,0.95555556,L
20.452,0.94444444,L
20.468,0.96388889,L
20.484,0.99166667,L
20.501,0.99444444,L
20.517,0.97500000,L
20.533,0.96944444,L
20.550,0.95277778,L
20.566,0.93333333,L
20.581,1.02222222,L
20.598,1.01111111,L
20.615,0.98055556,L
20.631,0.95833333,L
20.647,0.94166667,L
20.663,0.95833333,L
20.679,1.00277778,L
20.696,1.01111111,L
20.712,0.98611111,L
20.729,0.98333333,L
20.745,0.96388889,L
20.761,0.93055556,L
20.777,1.00277778,L
20.794,1.02222222,L
20.811,0.99166667,L
20.827,0.96666667,L
20.843,0.94722222,L
20.859,0.96388889,L
20.875,0.98333333,L
20.892,1.00000000,L
20.908,0.98888889,L
20.925,0.97777778,L
20.941,0.96944444,L
20.957,0.93055556,L
20.973,0.97777778,L
20.989,1.03611111,L
21.006,0.99166667,L
21.023,0.95833333,L
21.039,0.94722222,L
21.054,0.95555556,L
21.070,0.95833333,L
21.086,1.00555556,L
21.103,0.99166667,L
21.120,0.98888889,L
21.136,0.96388889,L
21.152,0.92500000,L
21.168,0.94722222,L
21.183,1.00555556,L
21.200,1.00277778,L
21.217,0.97500000,L
21.233,0.93888889,L
21.249,0.95555556,L
21.265,0.94722222,L
21.281,0.99166667,L
21.297,0.99444444,L
21.314,0.98333333,L
21.330,0.98055556,L
21.346,0.93333333,L
21.362,0.92777778,L
21.377,1.00555556,L
21.394,1.00277778,L
21.411,0.97222222,L
21.427,0.94444444,L
21.443,0.95277778,L
21.459,0.94166667,L
21.474,0.98055556,L
21.491,1.01111111,L
21.508,0.98333333,L
21.524,0.98611111,L
21.540,0.94444444,L
21.556,0.92222222,L
21.571,0.98055556,L
21.588,1.01944444,L
21.605,1.00277778,L
21.622,0.96944444,L
21.638,0.96388889,L
21.654,0.96666667,L
21.670,0.96666667,L
21.686,1.01388889,L
21.703,1.00000000,L
21.720,0.99166667,L
21.736,0.97500000,L
21.752,0.95000000,L
21.768,0.95555556,L
21.784,1.03611111,L
21.801,1.02222222,L
21.818,0.95833333,L
21.834,0.97500000,L
21.851,0.97222222,L
21.867,0.96111111,L
21.883,1.00555556,L
21.900,1.01388889,L
21.916,1.00277778,L
21.933,0.96111111,L
21.949,0.94722222,L
21.965,0.94166667,L
21.981,1.00000000,L
21.997,1.02500000,L
22.014,0.96388889,L
22.031,0.96388889,L
22.047,0.97777778,L
22.063,0.92222222,L
22.078,1.00277778,L
22.095,0.99444444,L
22.112,0.98333333,L
22.128,0.97500000,L
22.144,0.94444444,L
22.160,0.92222222,L
22.175,1.01111111,L
22.192,1.00833333,L
22.209,0.97500000,L
22.225,0.97500000,L
22.241,0.95555556,L
22.257,0.93888889,L
22.273,0.99444444,L
22.290,1.00000000,L
22.306,1.01944444,L
22.323,0.98333333,L
22.340,0.93888889,L
22.355,0.93888889,L
22.371,0.98888889,L
22.387,1.03888889,L
22.405,1.00000000,L
22.421,0.97222222,L
22.438,0.99166667,L
22.454,0.94722222,L
22.470,0.96666667,L
22.486,1.01666667,L
22.503,1.00833333,L
22.520,0.99444444,L
22.536,0.95833333,L
22.552,0.95277778,L
22.568,0.98611111,L
22.585,1.03055556,L
22.602,1.00000000,L
22.618,0.98611111,L
22.635,0.97777778,L
22.651,0.96111111,L
22.667,0.96111111,L
22.683,1.00555556,L
22.700,1.03333333,L
22.717,0.98888889,L
22.734,0.95277778,L
22.750,0.95277778,L
22.765,0.95833333,L
22.781,1.03888889,L
22.799,0.99444444,L
22.815,0.97222222,L
22.832,0.98333333,L
22.848,0.93611111,L
22.864,0.93611111,L
22.879,1.00000000,L
22.896,0.99722222,L
22.912,0.99722222,L
22.929,0.95277778,L
22.945,0.94722222,L
22.961,0.95000000,L
22.977,1.00277778,L
22.993,1.00555556,L
23.010,0.98611111,L
23.026,0.95833333,L
23.042,0.96666667,L
23.059,0.93333333,L
23.074,0.97222222,L
23.090,1.03333333,L
23.108,0.99722222,L
23.124,0.96944444,L
23.140,0.95833333,L
23.156,0.93055556,L
23.172,1.01388889,L
23.189,1.02222222,L
23.206,0.98055556,L
23.222,0.99166667,L
23.239,0.97222222,L
23.255,0.93333333,L
23.270,0.96666667,L
23.286,1.01944444,L
23.303,1.00833333,L
23.320,0.98055556,L
23.337,0.96666667,L
23.353,0.95277778,L
23.369,0.98333333,L
23.385,1.01666667,L
23.402,1.00277778,L
23.419,0.98888889,L
23.435,0.98055556,L
23.451,0.96666667,L
23.468,0.96111111,L
23.484,1.04722222,L
23.501,1.03333333,L
23.518,0.98888889,L
23.535,0.98055556,L
23.551,0.95000000,L
23.567,0.98888889,L
23.583,1.03611111,L
23.601,1.00555556,L
23.617,0.99722222,L
23.634,0.99444444,L
23.651,0.95555556,L
23.667,0.94722222,L
23.682,1.02500000,L
23.699,1.01944444,L
23.716,0.98333333,L
23.733,0.96666667,L
23.749,0.95000000,L
23.765,0.97222222,L
23.781,1.00555556,L
23.798,0.99722222,L
23.814,0.98055556,L
23.831,0.97500000,L
23.847,0.95555556,L
23.863,0.94444444,L
23.879,1.02222222,L
23.896,1.02222222,L
23.913,0.98055556,L
23.929,0.96388889,L
23.945,0.94722222,L
23.961,0.96111111,L
23.977,0.99722222,L
23.993,1.01944444,L
24.010,0.99166667,L
24.027,0.98055556,L
24.043,0.95833333,L
24.059,0.93611111,L
24.075,1.00277778,L
24.092,1.02777778,L
24.109,0.99722222,L
24.125,0.96944444,L
24.142,0.95555556,L
24.157,0.95833333,L
24.173,0.98611111,L
24.190,1.01944444,L
24.207,0.99444444,L
24.223,0.99444444,L
24.240,0.96666667,L
24.256,0.93333333,L
24.272,1.01388889,L
24.289,1.02777778,L
24.306,0.98611111,L
24.322,0.98888889,L
24.339,0.95277778,L
24.354,0.95833333,L
24.370,0.99444444,L
24.387,1.01944444,L
24.404,1.01111111,L
24.421,1.00277778,L
24.438,0.96111111,L
24.454,0.93888889,L
24.469,1.00000000,L
24.486,1.02777778,L
24.503,1.00277778,L
24.520,0.97777778,L
24.536,0.94722222,L
24.552,0.96666667,L
24.568,0.95555556,L
24.584,1.00000000,L
24.601,1.01388889,L
24.617,0.98611111,L
24.634,0.96388889,L
24.650,0.94722222,L
24.666,0.96111111,L
24.682,1.02222222,L
24.699,1.01111111,L
24.716,0.96944444,L
24.732,0.96111111,L
24.748,0.97222222,L
24.764,0.95277778,L
24.780,1.01666667,L
24.797,1.02500000,L
24.814,0.99444444,L
24.831,0.97500000,L
24.847,0.94722222,L
24.863,0.94166667,L
24.878,1.02222222,L
24.895,1.02222222,L
24.912,0.98611111,L
24.929,0.96666667,L
24.945,0.98611111,L
24.961,0.93888889,L
24.977,1.00833333,L
24.994,1.02222222,L
25.011,0.99722222,L
25.027,0.99166667,L
25.044,0.95000000,L
25.060,0.94722222,L
25.076,1.01944444,L
25.093,1.02500000,L
25.110,0.97777778,L
25.126,0.97777778,L
25.142,0.98611111,L
25.159,0.94722222,L
25.174,1.01111111,L
25.191,1.02500000,L
25.208,1.01111111,L
25.225,0.98333333,L
25.242,0.95833333,L
25.258,0.95277778,L
25.273,1.00000000,L
25.290,1.05555556,L
25.308,0.99444444,L
25.324,0.98333333,L
25.341,1.01111111,L
25.358,0.95000000,L
25.373,1.00000000,L
25.390,1.05277778,L
25.408,1.00000000,L
25.424,0.99166667,L
25.441,0.95833333,L
25.457,0.96388889,L
25.473,0.92222222,L
25.488,1.08333333,L
25.506,0.98888889,L
25.523,1.06111111,L
25.552,1.29444444,L
25.584,1.41666667,L
25.608,0.72500000,V
25.620,1.35277778,L
25.642,0.65555556,V
25.653,1.30000000,L
25.686,0.39722222,!
25.693,0.36944444,!
25.699,0.34444444,!
25.705,0.31388889,!
25.710,0.33611111,!
25.716,0.31388889,!
25.721,0.37500000,!
25.727,0.26666667,!
25.732,0.40000000,!
25.738,0.27500000,!
25.743,0.32222222,!
25.748,0.23333333,!
25.752,0.31666667,!
25.757,0.33611111,!
25.763,0.31944444,!
25.768,0.29444444,!
25.773,0.33611111,!
25.779,0.31388889,!
25.784,0.24444444,!
25.788,0.36944444,!
25.794,0.35833333,!
25.800,0.31388889,!
25.806,0.33055556,!
25.811,0.30000000,!
25.816,0.33888889,!
25.822,0.31666667,!
25.827,0.33333333,!
25.833,0.31666667,!
25.838,0.30000000,!
25.843,0.28888889,!
25.848,0.28333333,!
25.852,0.30833333,!
25.858,0.27777778,!
25.862,0.27222222,!
25.867,0.28888889,!
25.871,0.32777778,!
25.877,0.31944444,!
25.882,0.27500000,!
25.887,0.30555556,!
25.892,0.35277778,!
25.898,0.25277778,!
25.902,0.26388889,!
25.906,0.30833333,!
25.912,0.33055556,!
25.917,0.26666667,!
25.922,0.28055556,!
25.926,0.32777778,!
25.932,0.32222222,!
25.937,0.25000000,!
25.941,0.30555556,!
25.946,0.31666667,!
25.952,0.29166667,!
25.956,0.30000000,!
25.961,0.26388889,!
25.966,0.23055556,!
25.970,0.35555556,!
25.976,0.28611111,!
25.980,0.20833333,!
25.984,0.37500000,!
25.990,0.33055556,!
25.996,0.31388889,!
26.001,0.31944444,!
26.006,0.27777778,!
26.011,0.32777778,!
26.016,0.30000000,!
26.021,0.26666667,!
26.026,0.30000000,!
26.031,0.27500000,!
26.035,0.30000000,!
26.040,0.27222222,!
26.045,0.28333333,!
26.050,0.30555556,!
26.055,0.25277778,!
26.059,0.26944444,!
26.063,0.26111111,!
26.068,0.27222222,!
26.072,0.30277778,!
26.077,0.28055556,!
26.082,0.31111111,!
26.087,0.29722222,!
26.092,0.27500000,!
26.097,0.31111111,!
26.102,0.27500000,!
26.106,0.31666667,!
26.112,0.27222222,!
26.116,0.25000000,!
26.120,0.27222222,!
26.125,0.30833333,!
26.130,0.24722222,!
26.134,0.31111111,!
26.139,0.29166667,!
26.144,0.26111111,!
26.149,0.29166667,!
26.153,0.24722222,!
26.158,0.29722222,!
26.163,0.24722222,!
26.167,0.25277778,!
26.171,0.25277778,!
26.175,0.27777778,!
26.180,0.29444444,!
26.185,0.28888889,!
26.189,0.27777778,!
26.194,0.29444444,!
26.199,0.28055556,!
26.204,0.30000000,!
26.209,0.28055556,!
26.213,0.26944444,!
26.218,0.28333333,!
26.223,0.29166667,!
26.227,0.27500000,!
26.232,0.27222222,!
26.237,0.26666667,!
26.241,0.26111111,!
26.245,0.27500000,!
26.250,0.26388889,!
26.254,0.27777778,!
26.259,0.26666667,!
26.263,0.26388889,!
26.268,0.26388889,!
26.272,0.28333333,!
26.277,0.27500000,!
26.281,0.25833333,!
26.286,0.27222222,!
26.290,0.27222222,!
26.295,0.29722222,!
26.300,0.27222222,!
26.304,0.28055556,!
26.309,0.28333333,!
26.314,0.24722222,!
26.318,0.27777778,!
26.323,0.28333333,!
26.327,0.27500000,!
26.332,0.29166667,!
26.337,0.26388889,!
26.341,0.25277778,!
26.345,0.28333333,!
26.350,0.25000000,!
26.354,0.25000000,!
26.358,0.26666667,!
26.363,0.27777778,!
26.367,0.23333333,!
26.371,0.24444444,!
26.375,0.28611111,!
26.380,0.28055556,!
26.385,0.29166667,!
26.390,0.24722222,!
26.394,0.15277778,!
26.396,0.14444444,!
26.399,0.20555556,!
26.402,0.16388889,!
26.405,0.26388889,!
26.409,0.20000000,!
26.413,0.29444444,!
26.418,0.26666667,!
26.422,0.24444444,!
26.426,0.26666667,!
26.431,0.23888889,!
26.434,0.28611111,!
26.439,0.25833333,!
26.444,0.26944444,!
26.448,0.26111111,!
26.452,0.26388889,!
26.457,0.24444444,!
26.461,0.27500000,!
26.465,0.37222222,!
26.472,0.25833333,!
26.476,0.30833333,!
26.481,0.39166667,!
26.488,0.42777778,!
26.495,0.16111111,!
26.497,0.28333333,!
26.502,0.24722222,!
26.506,0.25833333,!
26.511,0.26944444,!
26.515,0.26111111,!
26.519,0.28888889,!
26.524,0.30277778,!
26.529,0.26944444,!
26.534,0.25555556,!
26.538,0.26111111,!
26.542,0.23055556,!
26.546,0.23888889,!
26.550,0.31666667,!
26.556,0.36944444,!
26.562,0.17777778,!
26.565,0.26944444,!
26.569,0.26944444,!
26.574,0.28611111,!
26.578,0.27777778,!
26.583,0.21944444,!
26.587,0.30277778,!
26.592,0.28888889,!
26.597,0.20277778,!
26.600,0.28888889,!
26.605,0.28333333,!
26.609,0.27222222,!
26.614,0.27777778,!
26.619,0.26666667,!
26.623,0.29166667,!
26.628,0.27777778,!
26.633,0.24444444,!
26.637,0.26388889,!
26.641,0.14444444,!
26.643,0.28055556,!
26.648,0.30277778,!
26.653,0.33888889,!
26.659,0.41111111,!
26.666,0.31111111,!
26.671,0.31666667,!
26.676,0.29166667,!
26.681,0.26666667,!
26.685,0.26111111,!
26.690,0.41111111,!
26.697,0.36944444,!
26.703,0.36944444,!
26.709,0.31666667,!
26.714,0.28611111,!
26.719,0.22500000,!
26.723,0.30000000,!
26.728,0.26666667,!
26.732,0.29722222,!
26.737,0.16944444,!
26.740,0.37500000,!
26.746,0.23888889,!
26.750,0.29722222,!
26.755,0.24166667,!
26.759,0.26944444,!
26.764,0.23333333,!
26.768,0.25555556,!
26.772,0.29444444,!
26.777,0.17777778,!
26.780,0.37222222,!
26.786,0.23611111,!
26.790,0.51666667,!
26.798,0.29166667,!
26.803,0.27500000,!
26.808,0.29166667,!
26.813,0.27777778,!
26.817,0.25555556,!
26.822,0.25000000,!
26.826,0.29722222,!
26.831,0.25000000,!
26.835,0.26666667,!
26.839,0.27500000,!
26.844,0.22777778,!
26.848,0.30277778,!
26.853,0.31388889,!
26.858,0.26944444,!
26.863,0.30833333,!
26.868,0.23333333,!
26.872,0.30000000,!
26.877,0.29166667,!
26.881,0.21944444,!
26.885,0.28611111,!
26.890,0.14722222,!
26.892,0.32500000,!
26.898,0.20555556,!
26.901,0.29722222,!
26.906,0.24722222,!
26.910,0.27500000,!
26.915,0.30277778,!
26.920,0.23611111,!
26.924,0.28611111,!
26.929,0.27777778,!
26.933,0.27222222,!
26.938,0.29722222,!
26.943,0.32222222,!
26.948,0.25277778,!
26.952,0.25833333,!
26.957,0.23333333,!
26.960,0.26944444,!
26.965,0.26666667,!
26.969,0.26388889,!
26.974,0.28611111,!
26.979,0.23888889,!
26.983,0.26111111,!
26.987,0.24444444,!
26.991,0.29444444,!
26.996,0.28611111,!
27.001,0.23055556,!
27.004,0.28055556,!
27.009,0.28333333,!
27.014,0.25000000,!
27.018,0.27777778,!
27.023,0.28611111,!
27.027,0.20277778,!
27.031,0.30833333,!
27.036,0.31111111,!
27.041,0.28888889,!
27.046,0.23611111,!
27.050,0.29444444,!
27.055,0.25833333,!
27.059,0.27500000,!
27.064,0.18611111,!
27.067,0.23888889,!
27.071,0.31666667,!
27.076,0.27500000,!
27.081,0.31388889,!
27.086,0.27222222,!
27.090,0.23055556,!
27.094,0.24444444,!
27.098,0.36666667,!
27.104,0.23333333,!
27.108,0.26944444,!
27.113,0.26388889,!
27.117,0.33888889,!
27.123,0.46388889,!
27.131,0.29444444,!
27.135,0.27500000,!
27.140,0.30555556,!
27.145,0.24166667,!
27.149,0.27500000,!
27.154,0.30000000,!
27.159,0.28333333,!
27.163,0.24722222,!
27.168,0.32777778,!
27.173,0.36944444,!
27.179,0.41388889,!
27.186,0.47500000,!
27.194,0.22222222,!
27.198,0.30555556,!
27.203,0.30833333,!
27.208,0.25555556,!
27.212,0.25277778,!
27.216,0.30833333,!
27.222,0.29444444,!
27.226,0.26666667,!
27.231,0.31666667,!
27.236,0.27777778,!
27.241,0.29444444,!
27.246,0.29722222,!
27.251,0.39444444,!
27.257,0.41111111,!
27.264,0.39444444,!
27.271,0.33055556,!
27.276,0.30555556,!
27.281,0.37222222,!
27.288,0.35277778,!
27.293,0.34166667,!
27.342,2.27777778,E
27.380,2.50833333,E
27.422,1.48055556,E
27.446,1.22777778,E
27.467,1.16111111,E
27.486,1.21111111,E
27.506,1.16111111,E
27.526,1.13333333,E
27.545,1.10277778,E
27.563,1.13888889,E
27.582,1.19444444,E
27.602,1.12500000,E
27.621,1.12777778,E
27.639,1.09722222,E
27.658,1.09444444,E
27.676,1.14444444,E
27.695,1.18888889,E
27.715,1.14166667,E
27.734,1.11111111,E
27.752,1.06666667,E
27.770,1.13611111,E
27.789,1.16388889,E
27.808,1.11111111,E
27.827,1.08333333,E
27.845,1.06111111,E
27.863,1.02500000,E
27.880,1.07777778,E
27.898,1.06944444,E
27.916,1.04166667,E
27.933,0.98888889,E
27.949,0.94166667,E
27.965,0.98333333,E
27.982,0.99722222,E
27.998,0.97222222,E
28.014,0.96111111,E
28.030,0.92777778,E
28.046,0.93333333,E
28.061,0.89722222,E
28.076,0.94444444,E
28.092,0.96666667,E
28.108,0.91111111,E
28.123,0.88888889,E
28.138,0.86111111,E
28.153,0.84722222,E
28.167,0.88055556,E
28.181,0.91666667,E
28.197,0.90000000,E
28.212,0.86388889,E
28.226,0.87222222,E
28.241,0.86388889,E
28.255,0.82222222,E
28.269,0.84722222,E
28.283,0.89444444,E
28.298,0.88888889,E
28.312,0.87777778,E
28.327,0.84722222,E
28.341,0.82777778,E
28.355,1.51944444,E
28.380,1.13888889,E
28.399,0.90000000,E
28.414,1.50833333,E
28.439,1.16944444,E
28.459,0.87777778,E
28.474,0.93888889,E
28.489,1.00000000,E
28.506,0.94722222,E
28.522,0.94444444,E
28.537,0.92222222,E
28.553,0.91111111,E
28.568,0.99722222,E
28.585,0.94722222,E
28.600,0.96944444,E
28.617,0.96944444,E
28.633,0.99166667,E
28.649,0.97500000,E
28.666,1.01111111,E
28.682,1.03611111,E
28.700,1.05833333,E
28.717,1.03888889,E
28.735,0.98333333,E
28.751,1.01666667,E
28.768,1.03055556,E
28.785,1.07777778,E
28.803,1.03611111,E
28.820,1.01666667,E
28.837,1.02222222,E
28.854,0.93888889,E
28.870,1.00000000,E
28.887,1.07500000,E
28.905,0.99444444,E
28.921,0.98055556,E
28.937,0.93611111,E
28.953,0.91944444,E
28.968,0.98055556,E
28.985,0.96111111,E
29.001,0.93333333,E
29.016,0.93888889,E
29.032,0.91111111,E
29.047,0.88055556,E
29.062,0.84444444,E
29.076,0.91388889,E
29.091,0.93055556,E
29.107,0.91944444,E
29.122,0.87222222,E
29.149,0.87777778,L
29.164,0.62500000,A
29.174,0.87222222,L
29.189,0.64722222,A
29.199,0.56944444,A
29.209,0.78333333,L
29.232,0.52222222,A
29.241,0.50555556,A
29.250,0.46944444,A
29.257,0.46944444,A
29.265,0.44722222,A
29.273,0.47777778,A
29.281,0.48888889,A
29.289,0.50555556,A
29.297,0.49166667,A
29.305,0.48611111,A
29.313,0.48888889,A
29.322,0.47777778,A
29.330,0.47500000,A
29.337,0.47222222,A
29.345,0.47222222,A
29.353,0.47777778,A
29.361,0.47777778,A
29.369,0.51111111,A
29.378,0.50833333,A
29.386,0.51666667,A
29.395,0.51388889,A
29.403,0.50277778,A
29.412,0.50833333,A
29.420,0.52222222,A
29.429,0.50555556,A
29.437,0.48611111,A
29.445,0.47222222,A
29.453,0.46944444,A
29.461,0.46111111,A
29.469,0.50555556,A
29.477,0.51944444,A
29.486,0.52500000,A
29.495,0.50277778,A
29.503,0.51666667,A
29.512,0.49166667,A
29.520,0.50555556,A
29.528,0.50000000,A
29.537,0.48055556,A
29.545,0.48888889,A
29.553,0.48055556,A
29.561,0.45000000,A
29.568,0.48611111,A
29.576,0.50833333,A
29.585,0.54166667,A
29.594,0.51666667,A
29.602,0.49166667,A
29.611,0.47777778,A
29.619,0.51111111,A
29.627,0.48333333,A
29.635,0.52500000,A
29.644,0.46111111,A
29.652,0.47777778,A
29.660,0.46111111,A
29.667,0.48055556,A
29.675,0.50000000,A
29.684,0.55000000,A
29.693,0.50555556,A
29.701,0.50555556,A
29.710,0.49444444,A
29.718,0.50000000,A
29.726,0.46944444,A
29.734,0.49166667,A
29.742,0.48333333,A
29.750,0.49722222,A
29.759,0.48611111,A
29.767,0.48333333,A
29.775,0.48055556,A
29.783,0.52222222,A
29.791,0.50555556,A
29.800,0.50833333,A
29.808,0.50555556,A
29.817,0.50555556,A
29.825,0.49444444,A
29.833,0.49444444,A
29.842,0.46666667,A
29.849,0.48611111,A
29.858,0.47222222,A
29.865,0.50000000,A
29.874,0.47777778,A
29.882,0.51944444,A
29.890,0.51388889,A
29.899,0.53611111,A
29.908,0.50555556,A
29.916,0.51111111,A
29.925,0.46388889,A
29.933,0.50277778,A
29.941,0.50555556,A
29.949,0.51666667,A
29.958,0.45555556,A
29.966,0.49166667,A
29.974,0.50833333,A
29.982,0.53055556,A
29.991,0.50555556,A
29.999,0.49166667,A
30.008,0.52777778,A
30.016,0.52777778,A
30.025,0.50833333,A
30.034,0.47222222,A
30.042,0.50555556,A
30.050,0.50277778,A
30.058,0.46944444,A
30.066,0.47500000,A
30.074,0.54722222,A
