Elapsedtime,sample,Type,Sub,Chan,Num
0:00.494,178,(,0,0,1
0:00.581,209,N,0,0,0
0:00.658,237,),0,0,1
0:00.703,253,(,0,0,2
0:00.758,273,t,0,0,1
0:00.853,307,),0,0,2
0:01.175,423,(,0,0,0
0:01.214,437,p,0,0,0
0:01.256,452,),0,0,0
0:01.303,469,(,0,0,1
0:01.339,482,N,0,0,0
0:01.367,492,),0,0,1
0:01.486,535,(,0,0,2
0:01.572,566,t,0,0,0
0:01.653,595,),0,0,2
0:01.767,636,(,0,0,0
0:01.800,648,p,0,0,0
0:01.831,659,),0,0,0
0:01.844,664,(,0,0,1
0:01.933,696,N,0,0,0
0:01.969,709,),0,0,1
0:02.050,738,(,0,0,2
0:02.100,756,t,0,0,1
0:02.194,790,),0,0,2
0:02.292,825,(,0,0,1
0:02.372,854,N,0,0,0
0:02.464,887,),0,0,1
0:02.494,898,(,0,0,2
0:02.564,923,t,0,0,1
0:02.658,957,),0,0,2
0:03.108,1119,(,0,0,0
0:03.147,1133,p,0,0,0
0:03.189,1148,),0,0,0
0:03.244,1168,(,0,0,1
0:03.278,1180,N,0,0,0
0:03.306,1190,),0,0,1
0:03.414,1229,(,0,0,2
0:03.528,1270,t,0,0,0
0:03.603,1297,),0,0,2
0:03.708,1335,(,0,0,1
0:03.828,1378,N,0,0,0
0:03.911,1408,),0,0,1
0:03.939,1418,(,0,0,2
0:04.028,1450,t,0,0,1
0:04.128,1486,),0,0,2
0:04.297,1547,(,0,0,1
0:04.386,1579,N,0,0,0
0:04.475,1611,),0,0,1
0:04.517,1626,(,0,0,2
0:04.594,1654,t,0,0,1
0:04.694,1690,),0,0,2
0:04.992,1797,(,0,0,0
0:05.028,1810,p,0,0,0
0:05.075,1827,),0,0,0
0:05.125,1845,(,0,0,1
0:05.164,1859,N,0,0,0
0:05.356,1928,),0,0,1
0:05.389,1940,t,0,0,3
0:05.467,1968,),0,0,2
0:05.469,1969,(,0,0,0
0:05.539,1994,p,0,0,0
0:05.619,2023,),0,0,0
0:05.650,2034,(,0,0,1
0:05.725,2061,N,0,0,0
0:05.803,2089,),0,0,1
0:05.839,2102,(,0,0,2
0:05.925,2133,t,0,0,1
0:06.028,2170,),0,0,2
0:06.136,2209,(,0,0,1
0:06.236,2245,N,0,0,0
0:06.325,2277,),0,0,1
0:06.361,2290,(,0,0,2
0:06.428,2314,t,0,0,1
0:06.531,2351,),0,0,2
0:06.944,2500,(,0,0,0
0:06.983,2514,p,0,0,0
0:07.025,2529,),0,0,0
0:07.069,2545,(,0,0,1
0:07.103,2557,N,0,0,0
0:07.128,2566,),0,0,1
0:07.228,2602,(,0,0,2
0:07.333,2640,t,0,0,0
0:07.411,2668,),0,0,2
0:07.414,2669,(,0,0,0
0:07.431,2675,p,0,0,0
0:07.539,2714,),0,0,0
0:07.556,2720,(,0,0,1
0:07.631,2747,N,0,0,0
0:07.714,2777,),0,0,1
0:07.742,2787,(,0,0,2
0:07.825,2817,t,0,0,1
0:07.925,2853,),0,0,2
0:08.058,2901,(,0,0,1
0:08.139,2930,N,0,0,0
0:08.222,2960,),0,0,1
0:08.253,2971,(,0,0,2
0:08.317,2994,t,0,0,1
0:08.406,3026,),0,0,2
0:08.719,3139,(,0,0,0
0:08.756,3152,p,0,0,0
0:08.800,3168,),0,0,0
0:08.853,3187,(,0,0,1
0:08.889,3200,N,0,0,0
0:08.917,3210,),0,0,1
0:09.039,3254,(,0,0,2
0:09.133,3288,t,0,0,0
0:09.219,3319,),0,0,2
0:09.403,3385,(,0,0,1
0:09.481,3413,N,0,0,0
0:09.567,3444,),0,0,1
0:09.614,3461,(,0,0,2
0:09.689,3488,t,0,0,1
0:09.800,3528,),0,0,2
0:09.925,3573,(,0,0,1
0:10.017,3606,N,0,0,0
0:10.097,3635,),0,0,1
0:10.142,3651,(,0,0,2
0:10.217,3678,t,0,0,1
0:10.314,3713,),0,0,2
0:10.619,3823,(,0,0,0
0:10.658,3837,p,0,0,0
0:10.706,3854,),0,0,0
0:10.756,3872,(,0,0,1
0:10.792,3885,N,0,0,0
0:10.817,3894,),0,0,1
0:10.925,3933,(,0,0,2
0:11.028,3970,t,0,0,0
0:11.108,3999,),0,0,2
0:11.289,4064,(,0,0,1
0:11.378,4096,N,0,0,0
0:11.414,4109,),0,0,1
0:11.458,4125,(,0,0,2
0:11.542,4155,t,0,0,1
0:11.639,4190,),0,0,2
0:11.761,4234,(,0,0,1
0:11.850,4266,N,0,0,0
0:11.928,4294,),0,0,1
0:11.964,4307,(,0,0,2
0:12.039,4334,t,0,0,1
0:12.142,4371,),0,0,2
0:12.517,4506,(,0,0,0
0:12.553,4519,p,0,0,0
0:12.589,4532,),0,0,0
0:12.642,4551,(,0,0,1
0:12.678,4564,N,0,0,0
0:12.703,4573,),0,0,1
0:12.792,4605,(,0,0,2
0:12.900,4644,t,0,0,0
0:12.978,4672,),0,0,2
0:13.142,4731,(,0,0,1
0:13.236,4765,N,0,0,0
0:13.278,4780,),0,0,1
0:13.356,4808,(,0,0,2
0:13.406,4826,t,0,0,1
0:13.503,4861,),0,0,2
0:13.644,4912,(,0,0,1
0:13.733,4944,N,0,0,0
0:13.819,4975,),0,0,1
0:13.869,4993,(,0,0,2
0:13.933,5016,t,0,0,1
0:14.031,5051,),0,0,2
0:14.281,5141,(,0,0,0
0:14.314,5153,p,0,0,0
0:14.347,5165,),0,0,0
0:14.397,5183,(,0,0,1
0:14.431,5195,N,0,0,0
0:14.458,5205,),0,0,1
0:14.561,5242,(,0,0,2
0:14.656,5276,t,0,0,0
0:14.733,5304,),0,0,2
0:14.867,5352,(,0,0,0
0:14.903,5365,p,0,0,0
0:14.928,5374,),0,0,0
0:14.939,5378,(,0,0,1
0:15.036,5413,N,0,0,0
0:15.075,5427,),0,0,1
0:15.150,5454,(,0,0,2
0:15.197,5471,t,0,0,1
0:15.308,5511,),0,0,2
0:15.383,5538,(,0,0,1
0:15.469,5569,N,0,0,0
0:15.592,5613,),0,0,1
0:15.597,5615,(,0,0,2
0:15.661,5638,t,0,0,1
0:15.764,5675,),0,0,2
0:16.219,5839,(,0,0,0
0:16.256,5852,p,0,0,0
0:16.297,5867,),0,0,0
0:16.344,5884,(,0,0,1
0:16.383,5898,N,0,0,0
0:16.411,5908,),0,0,1
0:16.533,5952,(,0,0,2
0:16.639,5990,t,0,0,0
0:16.717,6018,),0,0,2
0:16.847,6065,(,0,0,1
0:16.958,6105,N,0,0,0
0:17.050,6138,),0,0,1
0:17.089,6152,(,0,0,2
0:17.172,6182,t,0,0,1
0:17.267,6216,),0,0,2
0:17.311,6232,(,0,0,0
0:17.336,6241,p,0,0,0
0:17.392,6261,),0,0,0
0:17.428,6274,(,0,0,1
0:17.517,6306,N,0,0,0
0:17.600,6336,),0,0,1
0:17.642,6351,(,0,0,2
0:17.708,6375,t,0,0,4
0:17.814,6413,t,0,0,4
0:17.883,6438,),0,0,2
0:18.103,6517,(,0,0,0
0:18.144,6532,p,0,0,0
0:18.189,6548,),0,0,0
0:18.233,6564,(,0,0,1
0:18.272,6578,N,0,0,0
0:18.297,6587,),0,0,1
0:18.414,6629,(,0,0,2
0:18.497,6659,t,0,0,5
0:18.592,6693,t,0,0,5
0:18.611,6700,),0,0,2
0:18.647,6713,(,0,0,0
0:18.692,6729,p,0,0,0
0:18.731,6743,),0,0,0
0:18.767,6756,(,0,0,1
0:18.819,6775,N,0,0,0
0:18.867,6792,),0,0,1
0:18.994,6838,(,0,0,2
0:19.081,6869,t,0,0,0
0:19.119,6883,),0,0,2
0:19.172,6902,(,0,0,1
0:19.281,6941,N,0,0,0
0:19.419,6991,),0,0,1
0:19.497,7019,(,0,0,2
0:19.561,7042,t,0,0,0
0:19.625,7065,),0,0,2
0:19.747,7109,(,0,0,0
0:19.783,7122,p,0,0,0
0:19.822,7136,),0,0,0
0:19.875,7155,(,0,0,1
0:19.911,7168,N,0,0,0
0:19.936,7177,),0,0,1
0:20.069,7225,(,0,0,2
0:20.131,7247,t,0,0,0
0:20.267,7296,),0,0,2
0:20.283,7302,(,0,0,0
0:20.322,7316,p,0,0,0
0:20.344,7324,),0,0,0
0:20.369,7333,(,0,0,1
0:20.411,7348,N,0,0,0
0:20.436,7357,),0,0,1
0:20.531,7391,(,0,0,2
0:20.558,7401,t,0,0,4
0:20.644,7432,t,0,0,4
0:20.775,7479,),0,0,2
0:20.806,7490,(,0,0,0
0:20.836,7501,p,0,0,0
0:20.864,7511,),0,0,0
0:20.881,7517,(,0,0,1
0:20.961,7546,N,0,0,0
0:21.158,7617,),0,0,1
0:21.161,7618,(,0,0,2
0:21.239,7646,t,0,0,0
0:21.294,7666,),0,0,2
0:21.336,7681,(,0,0,0
0:21.389,7700,p,0,0,0
0:21.447,7721,),0,0,0
0:21.486,7735,(,0,0,1
0:21.525,7749,N,0,0,0
0:21.567,7764,),0,0,1
0:21.725,7821,(,0,0,2
0:21.767,7836,t,0,0,0
0:21.842,7863,),0,0,2
0:21.908,7887,(,0,0,0
0:21.947,7901,p,0,0,0
0:22.003,7921,),0,0,0
0:22.047,7937,(,0,0,1
0:22.083,7950,N,0,0,0
0:22.125,7965,),0,0,1
0:22.203,7993,(,0,0,2
0:22.325,8037,t,0,0,0
0:22.389,8060,),0,0,2
0:22.458,8085,(,0,0,0
0:22.489,8096,p,0,0,0
0:22.531,8111,),0,0,0
0:22.561,8122,(,0,0,1
0:22.628,8146,N,0,0,0
0:22.656,8156,),0,0,1
0:22.781,8201,(,0,0,2
0:22.869,8233,t,0,0,0
0:22.950,8262,),0,0,2
0:22.983,8274,(,0,0,1
0:23.103,8317,N,0,0,0
0:23.192,8349,),0,0,1
0:23.214,8357,(,0,0,2
0:23.297,8387,t,0,0,1
0:23.397,8423,),0,0,2
0:23.522,8468,(,0,0,0
0:23.547,8477,p,0,0,0
0:23.578,8488,),0,0,0
0:23.656,8516,(,0,0,1
0:23.692,8529,N,0,0,0
0:23.733,8544,),0,0,1
0:23.853,8587,(,0,0,2
0:23.933,8616,t,0,0,0
0:24.011,8644,),0,0,2
0:24.061,8662,(,0,0,0
0:24.094,8674,p,0,0,0
0:24.147,8693,),0,0,0
0:24.200,8712,(,0,0,1
0:24.236,8725,N,0,0,0
0:24.261,8734,),0,0,1
0:24.375,8775,(,0,0,2
0:24.481,8813,t,0,0,0
0:24.547,8837,),0,0,2
0:24.603,8857,(,0,0,0
0:24.647,8873,p,0,0,0
0:24.714,8897,),0,0,0
0:24.747,8909,(,0,0,1
0:24.781,8921,N,0,0,0
0:24.808,8931,),0,0,1
0:24.903,8965,(,0,0,2
0:25.017,9006,t,0,0,0
0:25.072,9026,),0,0,2
0:25.117,9042,(,0,0,1
0:25.239,9086,N,0,0,0
0:25.325,9117,),0,0,1
0:25.331,9119,(,0,0,2
0:25.433,9156,t,0,0,1
0:25.544,9196,),0,0,2
0:25.650,9234,(,0,0,0
0:25.694,9250,p,0,0,0
0:25.736,9265,),0,0,0
0:25.783,9282,(,0,0,1
0:25.814,9293,N,0,0,0
0:25.839,9302,),0,0,1
0:25.922,9332,(,0,0,2
0:26.036,9373,t,0,0,0
0:26.103,9397,),0,0,2
0:26.153,9415,(,0,0,0
0:26.183,9426,p,0,0,0
0:26.228,9442,),0,0,0
0:26.278,9460,(,0,0,1
0:26.308,9471,N,0,0,0
0:26.333,9480,),0,0,1
0:26.414,9509,(,0,0,2
0:26.517,9546,t,0,0,0
0:26.581,9569,),0,0,2
0:26.633,9588,(,0,0,0
0:26.675,9603,p,0,0,0
0:26.722,9620,),0,0,0
0:26.769,9637,(,0,0,1
0:26.803,9649,N,0,0,0
0:26.828,9658,),0,0,1
0:26.925,9693,(,0,0,2
0:27.044,9736,t,0,0,0
0:27.106,9758,),0,0,2
0:27.147,9773,(,0,0,1
0:27.286,9823,N,0,0,0
0:27.372,9854,),0,0,1
0:27.403,9865,(,0,0,2
0:27.494,9898,t,0,0,1
0:27.603,9937,),0,0,2
0:27.692,9969,(,0,0,0
0:27.731,9983,p,0,0,0
0:27.775,9999,),0,0,0
0:27.836,10021,(,0,0,1
0:27.869,10033,N,0,0,0
0:27.897,10043,),0,0,1
0:27.983,10074,(,0,0,2
0:28.125,10125,t,0,0,0
0:28.194,10150,),0,0,2
0:28.239,10166,(,0,0,0
0:28.278,10180,p,0,0,0
0:28.328,10198,),0,0,0
0:28.383,10218,(,0,0,1
0:28.414,10229,N,0,0,0
0:28.439,10238,),0,0,1
0:28.533,10272,(,0,0,2
0:28.658,10317,t,0,0,0
0:28.706,10334,),0,0,2
0:28.758,10353,(,0,0,0
0:28.808,10371,p,0,0,0
0:28.864,10391,),0,0,0
0:28.914,10409,(,0,0,1
0:28.944,10420,N,0,0,0
0:28.986,10435,),0,0,1
0:29.067,10464,(,0,0,2
0:29.181,10505,t,0,0,0
0:29.250,10530,),0,0,2
0:29.367,10572,(,0,0,1
0:29.436,10597,N,0,0,0
0:29.489,10616,),0,0,1
0:29.533,10632,(,0,0,2
0:29.619,10663,t,0,0,1
0:29.719,10699,),0,0,2
0:29.800,10728,(,0,0,0
0:29.839,10742,p,0,0,0
0:29.878,10756,),0,0,0
0:29.936,10777,(,0,0,1
0:29.969,10789,N,0,0,0
0:29.992,10797,),0,0,1
0:30.097,10835,(,0,0,2
0:30.200,10872,t,0,0,0
0:30.256,10892,),0,0,2
0:30.319,10915,(,0,0,0
0:30.350,10926,p,0,0,0
0:30.400,10944,),0,0,0
0:30.431,10955,(,0,0,1
0:30.478,10972,N,0,0,0
0:30.503,10981,),0,0,1
0:30.614,11021,(,0,0,2
0:30.706,11054,t,0,0,0
0:30.797,11087,),0,0,2
0:30.831,11099,(,0,0,0
0:30.864,11111,p,0,0,0
0:30.897,11123,),0,0,0
0:30.950,11142,(,0,0,1
0:30.983,11154,N,0,0,0
0:31.008,11163,),0,0,1
0:31.097,11195,(,0,0,2
0:31.214,11237,t,0,0,0
0:31.275,11259,),0,0,2
0:31.331,11279,(,0,0,1
0:31.456,11324,N,0,0,0
0:31.536,11353,),0,0,1
0:31.542,11355,(,0,0,2
0:31.656,11396,t,0,0,1
0:31.775,11439,),0,0,2
0:31.847,11465,(,0,0,0
0:31.883,11478,p,0,0,0
0:31.933,11496,),0,0,0
0:31.983,11514,(,0,0,1
0:32.014,11525,N,0,0,0
0:32.053,11539,),0,0,1
0:32.139,11570,(,0,0,2
0:32.239,11606,t,0,0,0
0:32.300,11628,),0,0,2
0:32.333,11640,(,0,0,0
0:32.372,11654,p,0,0,0
0:32.411,11668,),0,0,0
0:32.456,11684,(,0,0,1
0:32.489,11696,N,0,0,0
0:32.514,11705,),0,0,1
0:32.594,11734,(,0,0,2
0:32.706,11774,t,0,0,0
0:32.794,11806,),0,0,2
0:32.847,11825,(,0,0,0
0:32.886,11839,p,0,0,0
0:32.933,11856,),0,0,0
0:32.986,11875,(,0,0,1
0:33.019,11887,N,0,0,0
0:33.047,11897,),0,0,1
0:33.175,11943,(,0,0,2
0:33.250,11970,t,0,0,0
0:33.314,11993,),0,0,2
0:33.372,12014,(,0,0,1
0:33.486,12055,N,0,0,0
0:33.572,12086,),0,0,1
0:33.617,12102,(,0,0,2
0:33.692,12129,t,0,0,1
0:33.814,12173,),0,0,2
0:33.925,12213,(,0,0,0
0:33.967,12228,p,0,0,0
0:34.006,12242,),0,0,0
0:34.019,12247,(,0,0,1
0:34.089,12272,N,0,0,0
0:34.114,12281,),0,0,1
0:34.258,12333,(,0,0,2
0:34.325,12357,t,0,0,0
0:34.411,12388,),0,0,2
0:34.453,12403,(,0,0,0
0:34.497,12419,p,0,0,0
0:34.553,12439,),0,0,0
0:34.572,12446,(,0,0,1
0:34.639,12470,N,0,0,0
0:34.664,12479,),0,0,1
0:34.794,12526,(,0,0,2
0:34.881,12557,t,0,0,0
0:34.919,12571,),0,0,2
0:35.044,12616,(,0,0,0
0:35.094,12634,p,0,0,0
0:35.142,12651,),0,0,0
0:35.178,12664,(,0,0,1
0:35.219,12679,N,0,0,0
0:35.244,12688,),0,0,1
0:35.350,12726,(,0,0,2
0:35.456,12764,t,0,0,0
0:35.525,12789,),0,0,2
0:35.650,12834,(,0,0,0
0:35.686,12847,p,0,0,0
0:35.719,12859,),0,0,0
0:35.767,12876,(,0,0,1
0:35.814,12893,N,0,0,0
0:35.842,12903,),0,0,1
0:35.950,12942,(,0,0,2
0:36.050,12978,t,0,0,5
0:36.106,12998,t,0,0,5
0:36.131,13007,),0,0,2
0:36.222,13040,(,0,0,0
0:36.261,13054,p,0,0,0
0:36.317,13074,),0,0,0
0:36.347,13085,(,0,0,1
0:36.383,13098,N,0,0,0
0:36.408,13107,),0,0,1
0:36.536,13153,(,0,0,2
0:36.625,13185,t,0,0,0
0:36.678,13204,),0,0,2
0:36.836,13261,(,0,0,1
0:36.919,13291,N,0,0,0
0:36.958,13305,),0,0,1
0:37.028,13330,(,0,0,2
0:37.086,13351,t,0,0,1
0:37.186,13387,),0,0,2
0:37.292,13425,(,0,0,0
0:37.333,13440,p,0,0,0
0:37.375,13455,),0,0,0
0:37.389,13460,(,0,0,1
0:37.458,13485,N,0,0,0
0:37.500,13500,),0,0,1
0:37.594,13534,(,0,0,2
0:37.681,13565,t,0,0,0
0:37.753,13591,),0,0,2
0:37.806,13610,(,0,0,0
0:37.847,13625,p,0,0,0
0:37.900,13644,),0,0,0
0:37.933,13656,(,0,0,1
0:37.969,13669,N,0,0,0
0:38.000,13680,),0,0,1
0:38.103,13717,(,0,0,2
0:38.192,13749,t,0,0,0
0:38.256,13772,),0,0,2
0:38.308,13791,(,0,0,0
0:38.344,13804,p,0,0,0
0:38.386,13819,),0,0,0
0:38.431,13835,(,0,0,1
0:38.472,13850,N,0,0,0
0:38.497,13859,),0,0,1
0:38.603,13897,(,0,0,2
0:38.700,13932,t,0,0,0
0:38.775,13959,),0,0,2
0:38.831,13979,(,0,0,0
0:38.875,13995,p,0,0,0
0:38.928,14014,),0,0,0
0:38.961,14026,(,0,0,1
0:39.014,14045,N,0,0,0
0:39.042,14055,),0,0,1
0:39.150,14094,(,0,0,2
0:39.258,14133,t,0,0,0
0:39.331,14159,),0,0,2
0:39.400,14184,(,0,0,0
0:39.444,14200,p,0,0,0
0:39.486,14215,),0,0,0
0:39.533,14232,(,0,0,1
0:39.575,14247,N,0,0,0
0:39.625,14265,),0,0,1
0:39.725,14301,(,0,0,2
0:39.814,14333,t,0,0,0
0:39.889,14360,),0,0,2
0:39.950,14382,(,0,0,0
0:39.997,14399,p,0,0,0
0:40.042,14415,),0,0,0
0:40.097,14435,(,0,0,1
0:40.133,14448,N,0,0,0
0:40.161,14458,),0,0,1
0:40.289,14504,(,0,0,2
0:40.378,14536,t,0,0,0
0:40.453,14563,),0,0,2
0:40.511,14584,(,0,0,1
0:40.619,14623,N,0,0,0
0:40.711,14656,),0,0,1
0:40.761,14674,(,0,0,2
0:40.806,14690,t,0,0,1
0:40.903,14725,),0,0,2
0:41.058,14781,(,0,0,0
0:41.100,14796,p,0,0,0
0:41.153,14815,),0,0,0
0:41.192,14829,(,0,0,1
0:41.233,14844,N,0,0,0
0:41.258,14853,),0,0,1
0:41.375,14895,(,0,0,2
0:41.464,14927,t,0,0,0
0:41.539,14954,),0,0,2
0:41.592,14973,(,0,0,0
0:41.628,14986,p,0,0,0
0:41.678,15004,),0,0,0
0:41.722,15020,(,0,0,1
0:41.764,15035,N,0,0,0
0:41.808,15051,),0,0,1
0:41.894,15082,(,0,0,2
0:41.997,15119,t,0,0,0
0:42.075,15147,),0,0,2
0:42.300,15228,(,0,0,1
0:42.314,15233,N,0,0,0
0:42.383,15258,),0,0,1
0:42.419,15271,(,0,0,2
0:42.464,15287,t,0,0,1
0:42.569,15325,),0,0,2
0:42.694,15370,(,0,0,0
0:42.728,15382,p,0,0,0
0:42.769,15397,),0,0,0
0:42.819,15415,(,0,0,1
0:42.861,15430,N,0,0,0
0:42.889,15440,),0,0,1
0:43.006,15482,(,0,0,2
0:43.089,15512,t,0,0,0
0:43.183,15546,),0,0,2
0:43.247,15569,(,0,0,0
0:43.278,15580,p,0,0,0
0:43.322,15596,),0,0,0
0:43.350,15606,(,0,0,1
0:43.408,15627,N,0,0,0
0:43.447,15641,),0,0,1
0:43.547,15677,(,0,0,2
0:43.636,15709,t,0,0,0
0:43.717,15738,),0,0,2
0:43.808,15771,(,0,0,0
0:43.844,15784,p,0,0,0
0:43.878,15796,),0,0,0
0:43.897,15803,(,0,0,1
0:43.972,15830,N,0,0,0
0:44.006,15842,),0,0,1
0:44.078,15868,(,0,0,2
0:44.122,15884,t,0,0,1
0:44.211,15916,),0,0,2
0:44.361,15970,(,0,0,0
0:44.403,15985,p,0,0,0
0:44.444,16000,),0,0,0
0:44.492,16017,(,0,0,1
0:44.533,16032,N,0,0,0
0:44.558,16041,),0,0,1
0:44.664,16079,(,0,0,2
0:44.767,16116,t,0,0,0
0:44.850,16146,),0,0,2
0:44.947,16181,(,0,0,0
0:44.981,16193,p,0,0,0
0:45.022,16208,),0,0,0
0:45.069,16225,(,0,0,1
0:45.111,16240,N,0,0,0
0:45.164,16259,),0,0,1
0:45.272,16298,(,0,0,2
0:45.328,16318,t,0,0,0
0:45.414,16349,),0,0,2
0:45.464,16367,(,0,0,1
0:45.614,16421,N,0,0,0
0:45.706,16454,),0,0,1
0:45.761,16474,(,0,0,2
0:45.817,16494,t,0,0,1
0:45.917,16530,),0,0,2
0:46.144,16612,(,0,0,0
0:46.183,16626,p,0,0,0
0:46.242,16647,),0,0,0
0:46.286,16663,(,0,0,1
0:46.322,16676,N,0,0,0
0:46.350,16686,),0,0,1
0:46.472,16730,(,0,0,2
0:46.575,16767,t,0,0,0
0:46.664,16799,),0,0,2
0:46.756,16832,(,0,0,0
0:46.800,16848,p,0,0,0
0:46.847,16865,),0,0,0
0:46.881,16877,(,0,0,1
0:46.939,16898,N,0,0,0
0:46.986,16915,),0,0,1
0:47.069,16945,(,0,0,2
0:47.169,16981,t,0,0,0
0:47.244,17008,),0,0,2
0:47.247,17009,(,0,0,0
0:47.297,17027,p,0,0,0
0:47.389,17060,),0,0,0
0:47.406,17066,(,0,0,1
0:47.475,17091,N,0,0,0
0:47.556,17120,),0,0,1
0:47.583,17130,(,0,0,2
0:47.675,17163,t,0,0,1
0:47.775,17199,),0,0,2
0:47.928,17254,(,0,0,0
0:47.964,17267,p,0,0,0
0:48.000,17280,),0,0,0
0:48.050,17298,(,0,0,1
0:48.086,17311,N,0,0,0
0:48.131,17327,),0,0,1
0:48.225,17361,(,0,0,2
0:48.308,17391,t,0,0,0
0:48.383,17418,),0,0,2
0:48.472,17450,(,0,0,0
0:48.522,17468,p,0,0,0
0:48.569,17485,),0,0,0
0:48.611,17500,(,0,0,1
0:48.650,17514,N,0,0,0
0:48.678,17524,),0,0,1
0:48.772,17558,(,0,0,2
0:48.867,17592,t,0,0,0
0:48.944,17620,),0,0,2
0:48.947,17621,(,0,0,0
0:48.975,17631,p,0,0,0
0:49.072,17666,),0,0,0
0:49.117,17682,(,0,0,1
0:49.206,17714,N,0,0,0
0:49.244,17728,),0,0,1
0:49.308,17751,(,0,0,2
0:49.369,17773,t,0,0,1
0:49.467,17808,),0,0,2
0:49.597,17855,(,0,0,0
0:49.644,17872,p,0,0,0
0:49.681,17885,),0,0,0
0:49.731,17903,(,0,0,1
0:49.764,17915,N,0,0,0
0:49.789,17924,),0,0,1
0:49.889,17960,(,0,0,2
0:49.981,17993,t,0,0,0
0:50.056,18020,),0,0,2
0:50.147,18053,(,0,0,0
0:50.178,18064,p,0,0,0
0:50.211,18076,),0,0,0
0:50.253,18091,(,0,0,1
0:50.303,18109,N,0,0,0
0:50.325,18117,),0,0,1
0:50.442,18159,(,0,0,2
0:50.514,18185,t,0,0,0
0:50.597,18215,),0,0,2
0:50.675,18243,(,0,0,0
0:50.714,18257,p,0,0,0
0:50.758,18273,),0,0,0
0:50.808,18291,(,0,0,1
0:50.847,18305,N,0,0,0
0:50.878,18316,),0,0,1
0:50.983,18354,(,0,0,2
0:51.100,18396,t,0,0,0
0:51.153,18415,),0,0,2
0:51.269,18457,(,0,0,0
0:51.314,18473,p,0,0,0
0:51.353,18487,),0,0,0
0:51.400,18504,(,0,0,1
0:51.442,18519,N,0,0,0
0:51.489,18536,),0,0,1
0:51.583,18570,(,0,0,2
0:51.672,18602,t,0,0,0
0:51.750,18630,),0,0,2
0:51.839,18662,(,0,0,0
0:51.883,18678,p,0,0,0
0:51.933,18696,),0,0,0
0:51.978,18712,(,0,0,1
0:52.019,18727,N,0,0,0
0:52.061,18742,),0,0,1
0:52.158,18777,(,0,0,2
0:52.253,18811,t,0,0,0
0:52.344,18844,),0,0,2
0:52.408,18867,(,0,0,0
0:52.450,18882,p,0,0,0
0:52.494,18898,),0,0,0
0:52.525,18909,(,0,0,1
0:52.583,18930,N,0,0,0
0:52.611,18940,),0,0,1
0:52.692,18969,(,0,0,2
0:52.719,18979,t,0,0,4
0:52.828,19018,t,0,0,4
0:52.856,19028,),0,0,2
0:52.900,19044,(,0,0,1
0:53.047,19097,N,0,0,0
0:53.175,19143,),0,0,1
0:53.242,19167,t,0,0,2
0:53.361,19210,),0,0,2
0:53.533,19272,(,0,0,0
0:53.569,19285,p,0,0,0
0:53.606,19298,),0,0,0
0:53.647,19313,(,0,0,1
0:53.700,19332,N,0,0,0
0:53.728,19342,),0,0,1
0:53.856,19388,(,0,0,2
0:53.953,19423,t,0,0,0
0:54.011,19444,),0,0,2
0:54.100,19476,(,0,0,0
0:54.136,19489,p,0,0,0
0:54.192,19509,),0,0,0
0:54.217,19518,(,0,0,1
0:54.269,19537,N,0,0,0
0:54.294,19546,),0,0,1
0:54.406,19586,(,0,0,2
0:54.500,19620,t,0,0,0
0:54.569,19645,),0,0,2
0:54.697,19691,(,0,0,1
0:54.789,19724,N,0,0,0
0:54.828,19738,),0,0,1
0:54.867,19752,(,0,0,2
0:54.958,19785,t,0,0,1
0:55.058,19821,),0,0,2
0:55.164,19859,(,0,0,0
0:55.203,19873,p,0,0,0
0:55.247,19889,),0,0,0
0:55.294,19906,(,0,0,1
0:55.328,19918,N,0,0,0
0:55.353,19927,),0,0,1
0:55.453,19963,(,0,0,2
0:55.531,19991,t,0,0,0
0:55.611,20020,),0,0,2
0:55.678,20044,(,0,0,0
0:55.717,20058,p,0,0,0
0:55.767,20076,),0,0,0
0:55.808,20091,(,0,0,1
0:55.844,20104,N,0,0,0
0:55.869,20113,),0,0,1
0:55.978,20152,(,0,0,2
0:56.064,20183,t,0,0,0
0:56.131,20207,),0,0,2
0:56.217,20238,(,0,0,0
0:56.250,20250,p,0,0,0
0:56.289,20264,),0,0,0
0:56.303,20269,(,0,0,1
0:56.361,20290,N,0,0,0
0:56.392,20301,),0,0,1
0:56.456,20324,(,0,0,2
0:56.500,20340,t,0,0,1
0:56.603,20377,),0,0,2
0:56.731,20423,(,0,0,1
0:56.819,20455,N,0,0,0
0:56.906,20486,),0,0,1
0:56.939,20498,(,0,0,2
0:57.011,20524,t,0,0,1
0:57.117,20562,),0,0,2
0:57.389,20660,(,0,0,0
0:57.425,20673,p,0,0,0
0:57.467,20688,),0,0,0
0:57.517,20706,(,0,0,1
0:57.556,20720,N,0,0,0
0:57.581,20729,),0,0,1
0:57.697,20771,(,0,0,2
0:57.808,20811,t,0,0,0
0:57.892,20841,),0,0,2
0:57.967,20868,(,0,0,0
0:58.003,20881,p,0,0,0
0:58.050,20898,),0,0,0
0:58.103,20917,(,0,0,1
0:58.142,20931,N,0,0,0
0:58.169,20941,),0,0,1
0:58.292,20985,(,0,0,2
0:58.381,21017,t,0,0,0
0:58.450,21042,),0,0,2
0:58.522,21068,(,0,0,1
0:58.625,21105,N,0,0,0
0:58.719,21139,),0,0,1
0:58.753,21151,(,0,0,2
0:58.831,21179,t,0,0,1
0:58.936,21217,),0,0,2
0:59.161,21298,(,0,0,0
0:59.203,21313,p,0,0,0
0:59.247,21329,),0,0,0
0:59.294,21346,(,0,0,1
0:59.328,21358,N,0,0,0
0:59.356,21368,),0,0,1
0:59.456,21404,(,0,0,2
0:59.561,21442,t,0,0,0
0:59.647,21473,),0,0,2
0:59.722,21500,(,0,0,0
0:59.756,21512,p,0,0,0
0:59.803,21529,),0,0,0
0:59.850,21546,(,0,0,1
0:59.886,21559,N,0,0,0
0:59.911,21568,),0,0,1
1:00.014,21605,(,0,0,2
1:00.103,21637,t,0,0,0
1:00.172,21662,),0,0,2
1:00.253,21691,(,0,0,1
1:00.364,21731,N,0,0,0
1:00.447,21761,),0,0,1
1:00.489,21776,(,0,0,2
1:00.547,21797,t,0,0,1
1:00.650,21834,),0,0,2
1:00.797,21887,(,0,0,0
1:00.836,21901,p,0,0,0
1:00.881,21917,),0,0,0
1:00.931,21935,(,0,0,1
1:00.967,21948,N,0,0,0
1:00.992,21957,),0,0,1
1:01.100,21996,(,0,0,2
1:01.194,22030,t,0,0,0
1:01.283,22062,),0,0,2
1:01.347,22085,(,0,0,0
1:01.386,22099,p,0,0,0
1:01.442,22119,),0,0,0
1:01.486,22135,(,0,0,1
1:01.519,22147,N,0,0,0
1:01.547,22157,),0,0,1
1:01.647,22193,(,0,0,2
1:01.742,22227,t,0,0,0
1:01.811,22252,),0,0,2
1:01.886,22279,(,0,0,0
1:01.925,22293,p,0,0,0
1:01.972,22310,),0,0,0
1:01.992,22317,(,0,0,1
1:02.053,22339,N,0,0,0
1:02.081,22349,),0,0,1
1:02.189,22388,t,0,0,2
1:02.281,22421,),0,0,2
1:02.403,22465,(,0,0,1
1:02.486,22495,N,0,0,0
1:02.569,22525,),0,0,1
1:02.608,22539,(,0,0,2
1:02.672,22562,t,0,0,1
1:02.769,22597,),0,0,2
1:02.989,22676,(,0,0,0
1:03.028,22690,p,0,0,0
1:03.069,22705,),0,0,0
1:03.122,22724,(,0,0,1
1:03.158,22737,N,0,0,0
1:03.183,22746,),0,0,1
1:03.294,22786,(,0,0,2
1:03.403,22825,t,0,0,0
1:03.483,22854,),0,0,2
1:03.553,22879,(,0,0,0
1:03.597,22895,p,0,0,0
1:03.642,22911,),0,0,0
1:03.694,22930,(,0,0,1
1:03.731,22943,N,0,0,0
1:03.758,22953,),0,0,1
1:03.858,22989,(,0,0,2
1:03.964,23027,t,0,0,0
1:04.039,23054,),0,0,2
1:04.158,23097,(,0,0,1
1:04.250,23130,N,0,0,0
1:04.344,23164,),0,0,1
1:04.389,23180,(,0,0,2
1:04.444,23200,t,0,0,1
1:04.544,23236,),0,0,2
1:04.772,23318,(,0,0,0
1:04.811,23332,p,0,0,0
1:04.856,23348,),0,0,0
1:04.914,23369,(,0,0,1
1:04.950,23382,N,0,0,0
1:04.978,23392,),0,0,1
1:05.103,23437,(,0,0,2
1:05.194,23470,t,0,0,0
1:05.278,23500,),0,0,2
1:05.364,23531,(,0,0,0
1:05.397,23543,p,0,0,0
1:05.442,23559,),0,0,0
1:05.492,23577,(,0,0,1
1:05.525,23589,N,0,0,0
1:05.567,23604,),0,0,1
1:05.686,23647,(,0,0,2
1:05.753,23671,t,0,0,0
1:05.839,23702,),0,0,2
1:05.992,23757,(,0,0,1
1:06.072,23786,N,0,0,0
1:06.150,23814,),0,0,1
1:06.156,23816,(,0,0,2
1:06.261,23854,t,0,0,1
1:06.358,23889,),0,0,2
1:06.503,23941,(,0,0,0
1:06.539,23954,p,0,0,0
1:06.578,23968,),0,0,0
1:06.633,23988,(,0,0,1
1:06.669,24001,N,0,0,0
1:06.697,24011,),0,0,1
1:06.800,24048,(,0,0,2
1:06.894,24082,t,0,0,0
1:06.972,24110,),0,0,2
1:07.067,24144,(,0,0,0
1:07.106,24158,p,0,0,0
1:07.150,24174,),0,0,0
1:07.194,24190,(,0,0,1
1:07.233,24204,N,0,0,0
1:07.258,24213,),0,0,1
1:07.339,24242,(,0,0,2
1:07.444,24280,t,0,0,5
1:07.536,24313,t,0,0,5
1:07.575,24327,),0,0,2
1:07.786,24403,(,0,0,1
1:07.800,24408,N,0,0,0
1:07.844,24424,),0,0,1
1:07.911,24448,(,0,0,2
1:07.961,24466,t,0,0,1
1:08.056,24500,),0,0,2
1:08.156,24536,(,0,0,1
1:08.242,24567,N,0,0,0
1:08.314,24593,),0,0,1
1:08.319,24595,(,0,0,2
1:08.408,24627,t,0,0,1
1:08.511,24664,),0,0,2
1:08.878,24796,(,0,0,0
1:08.917,24810,p,0,0,0
1:08.958,24825,),0,0,0
1:09.000,24840,(,0,0,1
1:09.039,24854,N,0,0,0
1:09.067,24864,),0,0,1
1:09.172,24902,(,0,0,2
1:09.281,24941,t,0,0,0
1:09.367,24972,),0,0,2
1:09.461,25006,(,0,0,0
1:09.497,25019,p,0,0,0
1:09.519,25027,),0,0,0
1:09.533,25032,(,0,0,1
1:09.631,25067,N,0,0,0
1:09.672,25082,),0,0,1
1:09.747,25109,(,0,0,2
1:09.803,25129,t,0,0,1
1:09.911,25168,),0,0,2
1:09.992,25197,(,0,0,1
1:10.100,25236,N,0,0,0
1:10.181,25265,),0,0,1
1:10.231,25283,(,0,0,2
1:10.289,25304,t,0,0,1
1:10.394,25342,),0,0,2
1:10.703,25453,(,0,0,0
1:10.736,25465,p,0,0,0
1:10.783,25482,),0,0,0
1:10.831,25499,(,0,0,1
1:10.867,25512,N,0,0,0
1:10.892,25521,),0,0,1
1:11.000,25560,(,0,0,2
1:11.106,25598,t,0,0,0
1:11.181,25625,),0,0,2
1:11.258,25653,(,0,0,0
1:11.294,25666,p,0,0,0
1:11.347,25685,),0,0,0
1:11.386,25699,(,0,0,1
1:11.431,25715,N,0,0,0
1:11.458,25725,),0,0,1
1:11.578,25768,(,0,0,2
1:11.661,25798,t,0,0,0
1:11.739,25826,),0,0,2
1:11.772,25838,(,0,0,1
1:11.875,25875,N,0,0,0
1:11.958,25905,),0,0,1
1:11.994,25918,(,0,0,2
1:12.058,25941,t,0,0,1
1:12.156,25976,),0,0,2
1:12.389,26060,(,0,0,0
1:12.428,26074,p,0,0,0
1:12.464,26087,),0,0,0
1:12.517,26106,(,0,0,1
1:12.556,26120,N,0,0,0
1:12.583,26130,),0,0,1
1:12.686,26167,(,0,0,2
1:12.786,26203,t,0,0,0
1:12.864,26231,),0,0,2
1:12.939,26258,(,0,0,0
1:12.975,26271,p,0,0,0
1:13.022,26288,),0,0,0
1:13.075,26307,(,0,0,1
1:13.111,26320,N,0,0,0
1:13.139,26330,),0,0,1
1:13.236,26365,(,0,0,2
1:13.333,26400,t,0,0,0
1:13.411,26428,),0,0,2
1:13.514,26465,(,0,0,1
1:13.625,26505,N,0,0,0
1:13.706,26534,),0,0,1
1:13.711,26536,(,0,0,2
1:13.800,26568,t,0,0,1
1:13.900,26604,),0,0,2
1:14.064,26663,(,0,0,0
1:14.103,26677,p,0,0,0
1:14.142,26691,),0,0,0
1:14.194,26710,(,0,0,1
1:14.228,26722,N,0,0,0
1:14.253,26731,),0,0,1
1:14.347,26765,(,0,0,2
1:14.428,26794,t,0,0,0
1:14.506,26822,),0,0,2
1:14.597,26855,(,0,0,0
1:14.636,26869,p,0,0,0
1:14.681,26885,),0,0,0
1:14.731,26903,(,0,0,1
1:14.764,26915,N,0,0,0
1:14.789,26924,),0,0,1
1:14.894,26962,(,0,0,2
1:14.981,26993,t,0,0,0
1:15.056,27020,),0,0,2
1:15.214,27077,(,0,0,1
1:15.333,27120,N,0,0,0
1:15.422,27152,),0,0,1
1:15.428,27154,(,0,0,2
1:15.528,27190,t,0,0,1
1:15.636,27229,),0,0,2
1:15.911,27328,(,0,0,0
1:15.947,27341,p,0,0,0
1:16.014,27365,),0,0,0
1:16.064,27383,(,0,0,1
1:16.100,27396,N,0,0,0
1:16.128,27406,),0,0,1
1:16.275,27459,(,0,0,2
1:16.350,27486,t,0,0,0
1:16.447,27521,),0,0,2
1:16.569,27565,(,0,0,0
1:16.603,27577,p,0,0,0
1:16.661,27598,),0,0,0
1:16.700,27612,(,0,0,1
1:16.753,27631,N,0,0,0
1:16.781,27641,),0,0,1
1:16.889,27680,(,0,0,2
1:16.978,27712,t,0,0,0
1:17.075,27747,),0,0,2
1:17.081,27749,(,0,0,0
1:17.092,27753,p,0,0,0
1:17.244,27808,),0,0,0
1:17.278,27820,(,0,0,1
1:17.353,27847,N,0,0,0
1:17.425,27873,),0,0,1
1:17.464,27887,(,0,0,2
1:17.539,27914,t,0,0,1
1:17.633,27948,),0,0,2
1:17.731,27983,(,0,0,1
1:17.817,28014,N,0,0,0
1:17.906,28046,),0,0,1
1:17.947,28061,(,0,0,2
1:18.008,28083,t,0,0,1
1:18.111,28120,),0,0,2
1:18.478,28252,(,0,0,0
1:18.519,28267,p,0,0,0
1:18.561,28282,),0,0,0
1:18.608,28299,(,0,0,1
1:18.647,28313,N,0,0,0
1:18.675,28323,),0,0,1
1:18.789,28364,(,0,0,2
1:18.889,28400,t,0,0,0
1:18.969,28429,),0,0,2
1:18.972,28430,(,0,0,0
1:18.983,28434,p,0,0,0
1:19.011,28444,),0,0,0
1:19.106,28478,(,0,0,1
1:19.192,28509,N,0,0,0
1:19.267,28536,),0,0,1
1:19.314,28553,(,0,0,2
1:19.369,28573,t,0,0,1
1:19.461,28606,),0,0,2
1:19.531,28631,(,0,0,1
1:19.650,28674,N,0,0,0
1:19.781,28721,),0,0,1
1:19.797,28727,(,0,0,2
1:19.842,28743,t,0,0,1
1:19.939,28778,),0,0,2
1:20.297,28907,(,0,0,0
1:20.333,28920,p,0,0,0
1:20.369,28933,),0,0,0
1:20.414,28949,(,0,0,1
1:20.450,28962,N,0,0,0
1:20.475,28971,),0,0,1
1:20.581,29009,(,0,0,2
1:20.692,29049,t,0,0,0
1:20.769,29077,),0,0,2
1:20.939,29138,(,0,0,1
1:21.025,29169,N,0,0,0
1:21.064,29183,),0,0,1
1:21.133,29208,(,0,0,2
1:21.186,29227,t,0,0,1
1:21.278,29260,),0,0,2
1:21.389,29300,(,0,0,1
1:21.519,29347,N,0,0,0
1:21.608,29379,),0,0,1
1:21.614,29381,(,0,0,2
1:21.717,29418,t,0,0,1
1:21.825,29457,),0,0,2
1:21.986,29515,(,0,0,0
1:22.025,29529,p,0,0,0
1:22.067,29544,),0,0,0
1:22.122,29564,(,0,0,1
1:22.158,29577,N,0,0,0
1:22.186,29587,),0,0,1
1:22.292,29625,(,0,0,2
1:22.389,29660,t,0,0,0
1:22.472,29690,),0,0,2
1:22.544,29716,(,0,0,0
1:22.578,29728,p,0,0,0
1:22.628,29746,),0,0,0
1:22.683,29766,(,0,0,1
1:22.719,29779,N,0,0,0
1:22.744,29788,),0,0,1
1:22.869,29833,(,0,0,2
1:22.950,29862,t,0,0,0
1:23.028,29890,),0,0,2
1:23.103,29917,(,0,0,0
1:23.153,29935,p,0,0,0
1:23.197,29951,),0,0,0
1:23.253,29971,(,0,0,1
1:23.286,29983,N,0,0,0
1:23.314,29993,),0,0,1
1:23.414,30029,(,0,0,2
1:23.514,30065,t,0,0,0
1:23.597,30095,),0,0,2
1:23.678,30124,(,0,0,0
1:23.719,30139,p,0,0,0
1:23.767,30156,),0,0,0
1:23.819,30175,(,0,0,1
1:23.858,30189,N,0,0,0
1:23.886,30199,),0,0,1
1:23.994,30238,(,0,0,2
1:24.078,30268,t,0,0,0
1:24.153,30295,),0,0,2
1:24.269,30337,(,0,0,0
1:24.306,30350,p,0,0,0
1:24.344,30364,),0,0,0
1:24.397,30383,(,0,0,1
1:24.442,30399,N,0,0,0
1:24.469,30409,),0,0,1
1:24.578,30448,(,0,0,2
1:24.669,30481,t,0,0,0
1:24.747,30509,),0,0,2
1:24.750,30510,(,0,0,0
1:24.764,30515,p,0,0,0
1:24.817,30534,),0,0,0
1:24.892,30561,(,0,0,1
1:25.003,30601,N,0,0,0
1:25.083,30630,),0,0,1
1:25.114,30641,(,0,0,2
1:25.186,30667,t,0,0,1
1:25.278,30700,),0,0,2
1:25.372,30734,(,0,0,1
1:25.458,30765,N,0,0,0
1:25.536,30793,),0,0,1
1:25.542,30795,(,0,0,2
1:25.647,30833,t,0,0,1
1:25.739,30866,),0,0,2
1:26.136,31009,(,0,0,0
1:26.169,31021,p,0,0,0
1:26.211,31036,),0,0,0
1:26.253,31051,(,0,0,1
1:26.283,31062,N,0,0,0
1:26.314,31073,),0,0,1
1:26.389,31100,(,0,0,2
1:26.508,31143,t,0,0,0
1:26.581,31169,),0,0,2
1:26.689,31208,(,0,0,1
1:26.800,31248,N,0,0,0
1:26.883,31278,),0,0,1
1:26.919,31291,(,0,0,2
1:26.997,31319,t,0,0,1
1:27.106,31358,),0,0,2
1:27.239,31406,(,0,0,1
1:27.331,31439,N,0,0,0
1:27.425,31473,),0,0,1
1:27.881,31637,(,0,0,0
1:27.922,31652,p,0,0,0
1:27.964,31667,),0,0,0
1:28.022,31688,(,0,0,1
1:28.058,31701,N,0,0,0
1:28.086,31711,),0,0,1
1:28.189,31748,(,0,0,2
1:28.306,31790,t,0,0,0
1:28.386,31819,),0,0,2
1:28.478,31852,(,0,0,0
1:28.511,31864,p,0,0,0
1:28.556,31880,),0,0,0
1:28.611,31900,(,0,0,1
1:28.644,31912,N,0,0,0
1:28.675,31923,),0,0,1
1:28.806,31970,(,0,0,2
1:28.875,31995,t,0,0,0
1:28.950,32022,),0,0,2
1:29.011,32044,(,0,0,1
1:29.106,32078,N,0,0,0
1:29.192,32109,),0,0,1
1:29.231,32123,(,0,0,2
1:29.297,32147,t,0,0,1
1:29.394,32182,),0,0,2
1:29.603,32257,(,0,0,0
1:29.642,32271,p,0,0,0
1:29.678,32284,),0,0,0
1:29.731,32303,(,0,0,1
1:29.767,32316,N,0,0,0
1:29.792,32325,),0,0,1
1:29.908,32367,(,0,0,2
1:29.992,32397,t,0,0,0
1:30.069,32425,),0,0,2
1:30.150,32454,(,0,0,0
1:30.186,32467,p,0,0,0
1:30.233,32484,),0,0,0
1:30.286,32503,(,0,0,1
1:30.319,32515,N,0,0,0
1:30.347,32525,),0,0,1
1:30.433,32556,(,0,0,2
1:30.542,32595,t,0,0,0
1:30.617,32622,),0,0,2
1:30.714,32657,(,0,0,0
1:30.753,32671,p,0,0,0
1:30.781,32681,),0,0,0
1:30.794,32686,(,0,0,1
1:30.883,32718,N,0,0,0
1:30.922,32732,),0,0,1
1:30.997,32759,(,0,0,2
1:31.047,32777,t,0,0,1
1:31.142,32811,),0,0,2
1:31.294,32866,(,0,0,0
1:31.331,32879,p,0,0,0
1:31.375,32895,),0,0,0
1:31.422,32912,(,0,0,1
1:31.458,32925,N,0,0,0
1:31.497,32939,),0,0,1
1:31.586,32971,(,0,0,2
1:31.681,33005,t,0,0,0
1:31.758,33033,),0,0,2
1:31.856,33068,(,0,0,0
1:31.889,33080,p,0,0,0
1:31.939,33098,),0,0,0
1:31.989,33116,(,0,0,1
1:32.025,33129,N,0,0,0
1:32.050,33138,),0,0,1
1:32.167,33180,(,0,0,2
1:32.239,33206,t,0,0,0
1:32.308,33231,),0,0,2
1:32.383,33258,(,0,0,0
1:32.417,33270,p,0,0,0
1:32.458,33285,),0,0,0
1:32.514,33305,(,0,0,1
1:32.544,33316,N,0,0,0
1:32.569,33325,),0,0,1
1:32.672,33362,(,0,0,2
1:32.761,33394,t,0,0,0
1:32.844,33424,),0,0,2
1:32.942,33459,(,0,0,0
1:32.981,33473,p,0,0,0
1:33.022,33488,),0,0,0
1:33.078,33508,(,0,0,1
1:33.114,33521,N,0,0,0
1:33.139,33530,),0,0,1
1:33.236,33565,(,0,0,2
1:33.333,33600,t,0,0,0
1:33.411,33628,),0,0,2
1:33.528,33670,(,0,0,0
1:33.567,33684,p,0,0,0
1:33.614,33701,),0,0,0
1:33.669,33721,(,0,0,1
1:33.711,33736,N,0,0,0
1:33.742,33747,),0,0,1
1:33.853,33787,(,0,0,2
1:33.947,33821,t,0,0,0
1:34.025,33849,),0,0,2
1:34.150,33894,(,0,0,0
1:34.189,33908,p,0,0,0
1:34.222,33920,),0,0,0
1:34.233,33924,(,0,0,1
1:34.319,33955,N,0,0,0
1:34.358,33969,),0,0,1
1:34.433,33996,(,0,0,2
1:34.483,34014,t,0,0,1
1:34.592,34053,),0,0,2
1:34.681,34085,(,0,0,1
1:34.797,34127,N,0,0,0
1:34.883,34158,),0,0,1
1:34.939,34178,(,0,0,2
1:34.983,34194,t,0,0,1
1:35.094,34234,),0,0,2
1:35.406,34346,(,0,0,0
1:35.442,34359,p,0,0,0
1:35.481,34373,),0,0,0
1:35.533,34392,(,0,0,1
1:35.567,34404,N,0,0,0
1:35.592,34413,),0,0,1
1:35.717,34458,(,0,0,2
1:35.811,34492,t,0,0,0
1:35.886,34519,),0,0,2
1:35.975,34551,(,0,0,0
1:36.011,34564,p,0,0,0
1:36.053,34579,),0,0,0
1:36.078,34588,(,0,0,1
1:36.142,34611,N,0,0,0
1:36.172,34622,),0,0,1
1:36.261,34654,(,0,0,2
1:36.289,34664,t,0,0,1
1:36.372,34694,),0,0,2
1:36.508,34743,(,0,0,1
1:36.589,34772,N,0,0,0
1:36.675,34803,),0,0,1
1:36.725,34821,(,0,0,2
1:36.781,34841,t,0,0,1
1:36.883,34878,),0,0,2
1:37.122,34964,(,0,0,0
1:37.156,34976,p,0,0,0
1:37.192,34989,),0,0,0
1:37.239,35006,(,0,0,1
1:37.278,35020,N,0,0,0
1:37.306,35030,),0,0,1
1:37.411,35068,(,0,0,2
1:37.506,35102,t,0,0,0
1:37.581,35129,),0,0,2
1:37.672,35162,(,0,0,0
1:37.708,35175,p,0,0,0
1:37.747,35189,),0,0,0
1:37.803,35209,(,0,0,1
1:37.836,35221,N,0,0,0
1:37.867,35232,),0,0,1
1:37.967,35268,(,0,0,2
1:38.056,35300,t,0,0,0
1:38.128,35326,),0,0,2
1:38.211,35356,(,0,0,1
1:38.292,35385,N,0,0,0
1:38.364,35411,),0,0,1
1:38.369,35413,(,0,0,2
1:38.467,35448,t,0,0,1
1:38.569,35485,),0,0,2
1:38.814,35573,(,0,0,0
1:38.847,35585,p,0,0,0
1:38.892,35601,),0,0,0
1:38.939,35618,(,0,0,1
1:38.975,35631,N,0,0,0
1:39.000,35640,),0,0,1
1:39.114,35681,(,0,0,2
1:39.214,35717,t,0,0,0
1:39.292,35745,),0,0,2
1:39.375,35775,(,0,0,0
1:39.417,35790,p,0,0,0
1:39.456,35804,),0,0,0
1:39.514,35825,(,0,0,1
1:39.556,35840,N,0,0,0
1:39.581,35849,),0,0,1
1:39.692,35889,(,0,0,2
1:39.781,35921,t,0,0,0
1:39.861,35950,),0,0,2
1:40.003,36001,(,0,0,1
1:40.069,36025,N,0,0,0
1:40.147,36053,),0,0,1
1:40.175,36063,(,0,0,2
1:40.272,36098,t,0,0,1
1:40.367,36132,),0,0,2
1:40.525,36189,(,0,0,0
1:40.550,36198,p,0,0,0
1:40.581,36209,),0,0,0
1:40.650,36234,(,0,0,1
1:40.683,36246,N,0,0,0
1:40.711,36256,),0,0,1
1:40.847,36305,(,0,0,2
1:40.906,36326,t,0,0,0
1:40.981,36353,),0,0,2
1:41.064,36383,(,0,0,0
1:41.114,36401,p,0,0,0
1:41.164,36419,),0,0,0
1:41.192,36429,(,0,0,1
1:41.250,36450,N,0,0,0
1:41.281,36461,),0,0,1
1:41.378,36496,(,0,0,2
1:41.469,36529,t,0,0,0
1:41.539,36554,),0,0,2
1:41.633,36588,(,0,0,0
1:41.672,36602,p,0,0,0
1:41.717,36618,),0,0,0
1:41.731,36623,(,0,0,1
1:41.800,36648,N,0,0,0
1:41.833,36660,),0,0,1
1:41.972,36710,(,0,0,2
1:42.047,36737,t,0,0,0
1:42.114,36761,),0,0,2
1:42.172,36782,(,0,0,1
1:42.264,36815,N,0,0,0
1:42.350,36846,),0,0,1
1:42.383,36858,(,0,0,2
1:42.453,36883,t,0,0,1
1:42.550,36918,),0,0,2
1:42.731,36983,(,0,0,0
1:42.767,36996,p,0,0,0
1:42.806,37010,),0,0,0
1:42.861,37030,(,0,0,1
1:42.897,37043,N,0,0,0
1:42.928,37054,),0,0,1
1:43.033,37092,(,0,0,2
1:43.133,37128,t,0,0,0
1:43.211,37156,),0,0,2
1:43.275,37179,(,0,0,0
1:43.306,37190,p,0,0,0
1:43.356,37208,),0,0,0
1:43.408,37227,(,0,0,1
1:43.439,37238,N,0,0,0
1:43.464,37247,),0,0,1
1:43.550,37278,(,0,0,2
1:43.644,37312,t,0,0,0
1:43.719,37339,),0,0,2
1:43.800,37368,(,0,0,0
1:43.839,37382,p,0,0,0
1:43.886,37399,),0,0,0
1:43.936,37417,(,0,0,1
1:43.969,37429,N,0,0,0
1:44.000,37440,),0,0,1
1:44.083,37470,(,0,0,2
1:44.183,37506,t,0,0,0
1:44.256,37532,),0,0,2
1:44.311,37552,(,0,0,0
1:44.347,37565,p,0,0,0
1:44.389,37580,),0,0,0
1:44.439,37598,(,0,0,1
1:44.472,37610,N,0,0,0
1:44.497,37619,),0,0,1
1:44.597,37655,(,0,0,2
1:44.678,37684,t,0,0,0
1:44.758,37713,),0,0,2
1:44.844,37744,(,0,0,0
1:44.883,37758,p,0,0,0
1:44.931,37775,),0,0,0
1:44.986,37795,(,0,0,1
1:45.022,37808,N,0,0,0
1:45.050,37818,),0,0,1
1:45.156,37856,(,0,0,2
1:45.250,37890,t,0,0,0
1:45.331,37919,),0,0,2
1:45.489,37976,(,0,0,0
1:45.522,37988,p,0,0,0
1:45.564,38003,),0,0,0
1:45.581,38009,(,0,0,1
1:45.664,38039,N,0,0,0
1:45.697,38051,),0,0,1
1:45.753,38071,(,0,0,2
1:45.817,38094,t,0,0,1
1:45.925,38133,),0,0,2
1:46.019,38167,(,0,0,1
1:46.131,38207,N,0,0,0
1:46.219,38239,),0,0,1
1:46.225,38241,(,0,0,2
1:46.325,38277,t,0,0,1
1:46.419,38311,),0,0,2
1:46.861,38470,(,0,0,0
1:46.897,38483,p,0,0,0
1:46.953,38503,),0,0,0
1:47.000,38520,(,0,0,1
1:47.036,38533,N,0,0,0
1:47.064,38543,),0,0,1
1:47.169,38581,(,0,0,2
1:47.278,38620,t,0,0,0
1:47.356,38648,),0,0,2
1:47.447,38681,(,0,0,1
1:47.567,38724,N,0,0,0
1:47.644,38752,),0,0,1
1:47.692,38769,(,0,0,2
1:47.753,38791,t,0,0,1
1:47.856,38828,),0,0,2
1:47.928,38854,(,0,0,1
1:48.042,38895,N,0,0,0
1:48.128,38926,),0,0,1
1:48.175,38943,(,0,0,2
1:48.228,38962,t,0,0,1
1:48.325,38997,),0,0,2
1:48.689,39128,(,0,0,0
1:48.728,39142,p,0,0,0
1:48.772,39158,),0,0,0
1:48.792,39165,(,0,0,1
1:48.847,39185,N,0,0,0
1:48.872,39194,),0,0,1
1:48.972,39230,(,0,0,2
1:49.072,39266,t,0,0,0
1:49.150,39294,),0,0,2
1:49.228,39322,(,0,0,0
1:49.264,39335,p,0,0,0
1:49.300,39348,),0,0,0
1:49.314,39353,(,0,0,1
1:49.389,39380,N,0,0,0
1:49.422,39392,),0,0,1
1:49.578,39448,(,0,0,0
1:49.653,39475,p,0,0,0
1:49.678,39484,),0,0,0
1:49.781,39521,(,0,0,1
1:49.867,39552,N,0,0,0
1:49.950,39582,),0,0,1
1:49.978,39592,(,0,0,2
1:50.050,39618,t,0,0,1
1:50.147,39653,),0,0,2
1:50.356,39728,(,0,0,0
1:50.392,39741,p,0,0,0
1:50.433,39756,),0,0,0
1:50.486,39775,(,0,0,1
1:50.525,39789,N,0,0,0
1:50.553,39799,),0,0,1
1:50.664,39839,(,0,0,2
1:50.750,39870,t,0,0,0
1:50.833,39900,),0,0,2
1:50.953,39943,(,0,0,0
1:50.986,39955,p,0,0,0
1:51.033,39972,),0,0,0
1:51.092,39993,(,0,0,1
1:51.128,40006,N,0,0,0
1:51.156,40016,),0,0,1
1:51.272,40058,(,0,0,2
1:51.361,40090,t,0,0,0
1:51.433,40116,),0,0,2
1:51.542,40155,(,0,0,1
1:51.628,40186,N,0,0,0
1:51.717,40218,),0,0,1
1:51.758,40233,(,0,0,2
1:51.822,40256,t,0,0,1
1:51.919,40291,),0,0,2
1:52.342,40443,(,0,0,0
1:52.386,40459,p,0,0,0
1:52.439,40478,),0,0,0
1:52.492,40497,(,0,0,1
1:52.525,40509,N,0,0,0
1:52.553,40519,),0,0,1
1:52.661,40558,(,0,0,2
1:52.772,40598,t,0,0,0
1:52.864,40631,),0,0,2
1:52.867,40632,(,0,0,0
1:52.917,40650,p,0,0,0
1:53.003,40681,),0,0,0
1:53.036,40693,(,0,0,1
1:53.119,40723,N,0,0,0
1:53.203,40753,),0,0,1
1:53.247,40769,(,0,0,2
1:53.314,40793,t,0,0,1
1:53.419,40831,),0,0,2
1:53.506,40862,(,0,0,1
1:53.617,40902,N,0,0,0
1:53.697,40931,),0,0,1
1:53.733,40944,(,0,0,2
1:53.808,40971,t,0,0,1
1:53.900,41004,),0,0,2
1:54.375,41175,(,0,0,0
1:54.408,41187,p,0,0,0
1:54.464,41207,),0,0,0
1:54.500,41220,(,0,0,1
1:54.539,41234,N,0,0,0
1:54.569,41245,),0,0,1
1:54.681,41285,(,0,0,2
1:54.772,41318,t,0,0,0
1:54.844,41344,),0,0,2
1:54.967,41388,(,0,0,1
1:55.056,41420,N,0,0,0
1:55.139,41450,),0,0,1
1:55.189,41468,(,0,0,2
1:55.239,41486,t,0,0,1
1:55.342,41523,),0,0,2
1:55.431,41555,(,0,0,1
1:55.536,41593,N,0,0,0
1:55.608,41619,),0,0,1
1:55.636,41629,(,0,0,2
1:55.722,41660,t,0,0,1
1:55.817,41694,),0,0,2
1:56.264,41855,(,0,0,0
1:56.297,41867,p,0,0,0
1:56.331,41879,),0,0,0
1:56.361,41890,(,0,0,1
1:56.397,41903,N,0,0,0
1:56.419,41911,),0,0,1
1:56.522,41948,(,0,0,2
1:56.622,41984,t,0,0,0
1:56.703,42013,),0,0,2
1:56.706,42014,(,0,0,0
1:56.725,42021,p,0,0,0
1:56.831,42059,),0,0,0
1:56.858,42069,(,0,0,1
1:56.928,42094,N,0,0,0
1:57.011,42124,),0,0,1
1:57.044,42136,(,0,0,2
1:57.131,42167,t,0,0,1
1:57.231,42203,),0,0,2
1:57.344,42244,(,0,0,1
1:57.456,42284,N,0,0,0
1:57.547,42317,),0,0,1
1:57.592,42333,(,0,0,2
1:57.667,42360,t,0,0,1
1:57.767,42396,),0,0,2
1:58.075,42507,(,0,0,0
1:58.111,42520,p,0,0,0
1:58.150,42534,),0,0,0
1:58.206,42554,(,0,0,1
1:58.244,42568,N,0,0,0
1:58.272,42578,),0,0,1
1:58.389,42620,(,0,0,2
1:58.475,42651,t,0,0,0
1:58.556,42680,),0,0,2
1:58.669,42721,(,0,0,0
1:58.708,42735,p,0,0,0
1:58.742,42747,),0,0,0
1:58.756,42752,(,0,0,1
1:58.844,42784,N,0,0,0
1:58.881,42797,),0,0,1
1:58.964,42827,(,0,0,2
1:59.000,42840,t,0,0,1
1:59.097,42875,),0,0,2
1:59.203,42913,(,0,0,1
1:59.286,42943,N,0,0,0
1:59.369,42973,),0,0,1
1:59.375,42975,(,0,0,2
1:59.467,43008,t,0,0,1
1:59.561,43042,),0,0,2
1:59.958,43185,(,0,0,0
2:00.000,43200,p,0,0,0
2:00.036,43213,),0,0,0
2:00.086,43231,(,0,0,1
2:00.122,43244,N,0,0,0
2:00.147,43253,),0,0,1
2:00.247,43289,(,0,0,2
2:00.364,43331,t,0,0,0
2:00.442,43359,),0,0,2
2:00.444,43360,(,0,0,0
2:00.503,43381,p,0,0,0
2:00.581,43409,),0,0,0
2:00.606,43418,(,0,0,1
2:00.683,43446,N,0,0,0
2:00.758,43473,),0,0,1
2:00.792,43485,(,0,0,2
2:00.875,43515,t,0,0,1
2:00.975,43551,),0,0,2
2:01.094,43594,(,0,0,1
2:01.178,43624,N,0,0,0
2:01.256,43652,),0,0,1
2:01.306,43670,(,0,0,2
2:01.358,43689,t,0,0,1
2:01.453,43723,),0,0,2
2:01.806,43850,(,0,0,0
2:01.836,43861,p,0,0,0
2:01.878,43876,),0,0,0
2:01.925,43893,(,0,0,1
2:01.964,43907,N,0,0,0
2:01.989,43916,),0,0,1
2:02.092,43953,(,0,0,2
2:02.186,43987,t,0,0,0
2:02.264,44015,),0,0,2
2:02.336,44041,(,0,0,0
2:02.369,44053,p,0,0,0
2:02.397,44063,),0,0,0
2:02.408,44067,(,0,0,1
2:02.494,44098,N,0,0,0
2:02.531,44111,),0,0,1
2:02.614,44141,(,0,0,2
2:02.658,44157,t,0,0,1
2:02.753,44191,),0,0,2
2:02.869,44233,(,0,0,1
2:02.953,44263,N,0,0,0
2:03.033,44292,),0,0,1
2:03.072,44306,(,0,0,2
2:03.144,44332,t,0,0,1
2:03.244,44368,),0,0,2
2:03.544,44476,(,0,0,0
2:03.581,44489,p,0,0,0
2:03.625,44505,),0,0,0
2:03.678,44524,(,0,0,1
2:03.714,44537,N,0,0,0
2:03.742,44547,),0,0,1
2:03.858,44589,(,0,0,2
2:03.947,44621,t,0,0,0
2:04.028,44650,),0,0,2
2:04.133,44688,(,0,0,0
2:04.172,44702,p,0,0,0
2:04.222,44720,),0,0,0
2:04.239,44726,(,0,0,1
2:04.319,44755,N,0,0,0
2:04.353,44767,),0,0,1
2:04.478,44812,t,0,0,2
2:04.578,44848,),0,0,2
2:04.694,44890,(,0,0,1
2:04.786,44923,N,0,0,0
2:04.869,44953,),0,0,1
2:04.875,44955,(,0,0,2
2:04.975,44991,t,0,0,1
2:05.083,45030,),0,0,2
2:05.461,45166,(,0,0,0
2:05.500,45180,p,0,0,0
2:05.539,45194,),0,0,0
2:05.589,45212,(,0,0,1
2:05.625,45225,N,0,0,0
2:05.650,45234,),0,0,1
2:05.756,45272,(,0,0,2
2:05.858,45309,t,0,0,0
2:05.936,45337,),0,0,2
2:06.031,45371,(,0,0,0
2:06.067,45384,p,0,0,0
2:06.097,45395,),0,0,0
2:06.108,45399,(,0,0,1
2:06.197,45431,N,0,0,0
2:06.236,45445,),0,0,1
2:06.311,45472,(,0,0,2
2:06.361,45490,t,0,0,1
2:06.458,45525,),0,0,2
2:06.553,45559,(,0,0,1
2:06.667,45600,N,0,0,0
2:06.747,45629,),0,0,1
2:06.792,45645,(,0,0,2
2:06.844,45664,t,0,0,1
2:06.947,45701,),0,0,2
2:07.217,45798,(,0,0,0
2:07.244,45808,p,0,0,0
2:07.283,45822,),0,0,0
2:07.336,45841,(,0,0,1
2:07.372,45854,N,0,0,0
2:07.411,45868,),0,0,1
2:07.497,45899,(,0,0,2
2:07.600,45936,t,0,0,0
2:07.683,45966,),0,0,2
2:07.769,45997,(,0,0,0
2:07.819,46015,p,0,0,0
2:07.867,46032,),0,0,0
2:07.881,46037,(,0,0,1
2:07.956,46064,N,0,0,0
2:07.989,46076,),0,0,1
2:08.061,46102,(,0,0,2
2:08.100,46116,t,0,0,1
2:08.194,46150,),0,0,2
2:08.278,46180,(,0,0,1
2:08.372,46214,N,0,0,0
2:08.450,46242,),0,0,1
2:08.514,46265,(,0,0,2
2:08.556,46280,t,0,0,1
2:08.644,46312,),0,0,2
2:08.964,46427,(,0,0,0
2:09.006,46442,p,0,0,0
2:09.078,46468,),0,0,0
2:09.100,46476,(,0,0,1
2:09.136,46489,N,0,0,0
2:09.164,46499,),0,0,1
2:09.289,46544,(,0,0,2
2:09.378,46576,t,0,0,0
2:09.478,46612,),0,0,2
2:09.556,46640,(,0,0,0
2:09.592,46653,p,0,0,0
2:09.633,46668,),0,0,0
2:09.650,46674,(,0,0,1
2:09.725,46701,N,0,0,0
2:09.758,46713,),0,0,1
2:09.828,46738,(,0,0,2
2:09.875,46755,t,0,0,1
2:09.972,46790,),0,0,2
2:10.100,46836,(,0,0,1
2:10.189,46868,N,0,0,0
2:10.278,46900,),0,0,1
2:10.322,46916,(,0,0,2
2:10.378,46936,t,0,0,1
2:10.486,46975,),0,0,2
2:10.786,47083,(,0,0,0
2:10.828,47098,p,0,0,0
2:10.869,47113,),0,0,0
2:10.925,47133,(,0,0,1
2:10.961,47146,N,0,0,0
2:10.986,47155,),0,0,1
2:11.103,47197,(,0,0,2
2:11.194,47230,t,0,0,0
2:11.269,47257,),0,0,2
2:11.353,47287,(,0,0,0
2:11.389,47300,p,0,0,0
2:11.439,47318,),0,0,0
2:11.467,47328,(,0,0,1
2:11.522,47348,N,0,0,0
2:11.550,47358,),0,0,1
2:11.703,47413,(,0,0,2
2:11.761,47434,t,0,0,0
2:11.839,47462,),0,0,2
2:11.886,47479,(,0,0,1
2:11.978,47512,N,0,0,0
2:12.061,47542,),0,0,1
2:12.106,47558,(,0,0,2
2:12.164,47579,t,0,0,1
2:12.258,47613,),0,0,2
2:12.522,47708,(,0,0,0
2:12.556,47720,p,0,0,0
2:12.600,47736,),0,0,0
2:12.653,47755,(,0,0,1
2:12.689,47768,N,0,0,0
2:12.717,47778,),0,0,1
2:12.836,47821,(,0,0,2
2:12.928,47854,t,0,0,0
2:13.003,47881,),0,0,2
2:13.086,47911,(,0,0,0
2:13.122,47924,p,0,0,0
2:13.169,47941,),0,0,0
2:13.217,47958,(,0,0,1
2:13.250,47970,N,0,0,0
2:13.278,47980,),0,0,1
2:13.392,48021,(,0,0,2
2:13.464,48047,t,0,0,0
2:13.536,48073,),0,0,2
2:13.619,48103,(,0,0,1
2:13.697,48131,N,0,0,0
2:13.783,48162,),0,0,1
2:13.789,48164,(,0,0,2
2:13.878,48196,t,0,0,1
2:13.978,48232,),0,0,2
2:14.228,48322,(,0,0,0
2:14.261,48334,p,0,0,0
2:14.297,48347,),0,0,0
2:14.333,48360,(,0,0,1
2:14.367,48372,N,0,0,0
2:14.392,48381,),0,0,1
2:14.503,48421,(,0,0,2
2:14.592,48453,t,0,0,0
2:14.675,48483,),0,0,2
2:14.761,48514,(,0,0,0
2:14.794,48526,p,0,0,0
2:14.847,48545,),0,0,0
2:14.900,48564,(,0,0,1
2:14.936,48577,N,0,0,0
2:14.961,48586,),0,0,1
2:15.075,48627,(,0,0,2
2:15.167,48660,t,0,0,0
2:15.247,48689,),0,0,2
2:15.342,48723,(,0,0,1
2:15.428,48754,N,0,0,0
2:15.525,48789,),0,0,1
2:15.564,48803,(,0,0,2
2:15.633,48828,t,0,0,1
2:15.747,48869,),0,0,2
2:15.992,48957,(,0,0,0
2:16.031,48971,p,0,0,0
2:16.069,48985,),0,0,0
2:16.128,49006,(,0,0,1
2:16.164,49019,N,0,0,0
2:16.192,49029,),0,0,1
2:16.311,49072,(,0,0,2
2:16.408,49107,t,0,0,0
2:16.489,49136,),0,0,2
2:16.597,49175,(,0,0,0
2:16.628,49186,p,0,0,0
2:16.678,49204,),0,0,0
2:16.736,49225,(,0,0,1
2:16.772,49238,N,0,0,0
2:16.811,49252,),0,0,1
2:16.906,49286,(,0,0,2
2:16.997,49319,t,0,0,0
2:17.069,49345,),0,0,2
2:17.181,49385,(,0,0,1
2:17.258,49413,N,0,0,0
2:17.344,49444,),0,0,1
2:17.389,49460,(,0,0,2
2:17.447,49481,t,0,0,1
2:17.550,49518,),0,0,2
2:17.772,49598,(,0,0,0
2:17.806,49610,p,0,0,0
2:17.847,49625,),0,0,0
2:17.894,49642,(,0,0,1
2:17.928,49654,N,0,0,0
2:17.958,49665,),0,0,1
2:18.061,49702,(,0,0,2
2:18.153,49735,t,0,0,0
2:18.239,49766,),0,0,2
2:18.339,49802,(,0,0,0
2:18.375,49815,p,0,0,0
2:18.422,49832,),0,0,0
2:18.472,49850,(,0,0,1
2:18.508,49863,N,0,0,0
2:18.533,49872,),0,0,1
2:18.628,49906,(,0,0,2
2:18.719,49939,t,0,0,0
2:18.797,49967,),0,0,2
2:18.803,49969,(,0,0,0
2:18.817,49974,p,0,0,0
2:18.856,49988,),0,0,0
2:18.928,50014,(,0,0,1
2:19.019,50047,N,0,0,0
2:19.106,50078,),0,0,1
2:19.147,50093,(,0,0,2
2:19.211,50116,t,0,0,1
2:19.308,50151,),0,0,2
2:19.606,50258,(,0,0,0
2:19.644,50272,p,0,0,0
2:19.689,50288,),0,0,0
2:19.747,50309,(,0,0,1
2:19.781,50321,N,0,0,0
2:19.808,50331,),0,0,1
2:19.928,50374,(,0,0,2
2:20.014,50405,t,0,0,0
2:20.097,50435,),0,0,2
2:20.100,50436,(,0,0,0
2:20.153,50455,p,0,0,0
2:20.242,50487,),0,0,0
2:20.272,50498,(,0,0,1
2:20.336,50521,N,0,0,0
2:20.403,50545,),0,0,1
2:20.436,50557,(,0,0,2
2:20.511,50584,t,0,0,1
2:20.608,50619,),0,0,2
2:20.672,50642,(,0,0,1
2:20.769,50677,N,0,0,0
2:20.858,50709,),0,0,1
2:20.864,50711,(,0,0,2
2:20.961,50746,t,0,0,1
2:21.061,50782,),0,0,2
2:21.511,50944,(,0,0,0
2:21.550,50958,p,0,0,0
2:21.600,50976,),0,0,0
2:21.647,50993,(,0,0,1
2:21.683,51006,N,0,0,0
2:21.711,51016,),0,0,1
2:21.814,51053,(,0,0,2
2:21.931,51095,t,0,0,0
2:22.011,51124,),0,0,2
2:22.133,51168,(,0,0,1
2:22.244,51208,N,0,0,0
2:22.331,51239,),0,0,1
2:22.383,51258,(,0,0,2
2:22.447,51281,t,0,0,1
2:22.550,51318,),0,0,2
2:22.672,51362,(,0,0,1
2:22.761,51394,N,0,0,0
2:22.858,51429,),0,0,1
2:22.864,51431,(,0,0,2
2:22.969,51469,t,0,0,1
2:23.078,51508,),0,0,2
2:23.483,51654,(,0,0,0
2:23.514,51665,p,0,0,0
2:23.553,51679,),0,0,0
2:23.600,51696,(,0,0,1
2:23.631,51707,N,0,0,0
2:23.656,51716,),0,0,1
2:23.769,51757,(,0,0,2
2:23.875,51795,t,0,0,0
2:23.953,51823,),0,0,2
2:23.956,51824,(,0,0,0
2:23.978,51832,p,0,0,0
2:24.086,51871,),0,0,0
2:24.117,51882,(,0,0,1
2:24.186,51907,N,0,0,0
2:24.258,51933,),0,0,1
2:24.308,51951,(,0,0,2
2:24.369,51973,t,0,0,1
2:24.467,52008,),0,0,2
2:24.589,52052,(,0,0,1
2:24.678,52084,N,0,0,0
2:24.761,52114,),0,0,1
2:24.808,52131,(,0,0,2
2:24.867,52152,t,0,0,1
2:24.964,52187,),0,0,2
2:25.200,52272,(,0,0,0
2:25.236,52285,p,0,0,0
2:25.275,52299,),0,0,0
2:25.328,52318,(,0,0,1
2:25.361,52330,N,0,0,0
2:25.389,52340,),0,0,1
2:25.503,52381,(,0,0,2
2:25.589,52412,t,0,0,0
2:25.669,52441,),0,0,2
2:25.781,52481,(,0,0,0
2:25.817,52494,p,0,0,0
2:25.861,52510,),0,0,0
2:25.875,52515,(,0,0,1
2:25.944,52540,N,0,0,0
2:25.975,52551,),0,0,1
2:26.044,52576,(,0,0,2
2:26.086,52591,t,0,0,1
2:26.167,52620,),0,0,2
2:26.267,52656,(,0,0,1
2:26.344,52684,N,0,0,0
2:26.425,52713,),0,0,1
2:26.489,52736,(,0,0,2
2:26.533,52752,t,0,0,1
2:26.633,52788,),0,0,2
2:26.989,52916,(,0,0,0
2:27.028,52930,p,0,0,0
2:27.075,52947,),0,0,0
2:27.119,52963,(,0,0,1
2:27.156,52976,N,0,0,0
2:27.183,52986,),0,0,1
2:27.300,53028,(,0,0,2
2:27.403,53065,t,0,0,0
2:27.492,53097,),0,0,2
2:27.494,53098,(,0,0,0
2:27.511,53104,p,0,0,0
2:27.633,53148,),0,0,0
2:27.675,53163,(,0,0,1
2:27.775,53199,N,0,0,0
2:27.814,53213,),0,0,1
2:27.892,53241,(,0,0,2
2:27.936,53257,t,0,0,1
2:28.036,53293,),0,0,2
2:28.161,53338,(,0,0,1
2:28.256,53372,N,0,0,0
2:28.347,53405,),0,0,1
2:28.392,53421,(,0,0,2
2:28.456,53444,t,0,0,1
2:28.561,53482,),0,0,2
2:28.819,53575,(,0,0,0
2:28.858,53589,p,0,0,0
2:28.900,53604,),0,0,0
2:28.953,53623,(,0,0,1
2:28.986,53635,N,0,0,0
2:29.011,53644,),0,0,1
2:29.122,53684,(,0,0,2
2:29.217,53718,t,0,0,0
2:29.294,53746,),0,0,2
2:29.372,53774,(,0,0,0
2:29.406,53786,p,0,0,0
2:29.450,53802,),0,0,0
2:29.506,53822,(,0,0,1
2:29.539,53834,N,0,0,0
2:29.567,53844,),0,0,1
2:29.672,53882,(,0,0,2
2:29.761,53914,t,0,0,0
2:29.833,53940,),0,0,2
2:29.917,53970,(,0,0,1
2:30.006,54002,N,0,0,0
2:30.094,54034,),0,0,1
2:30.144,54052,(,0,0,2
2:30.203,54073,t,0,0,1
2:30.300,54108,),0,0,2
2:30.550,54198,(,0,0,0
2:30.589,54212,p,0,0,0
2:30.631,54227,),0,0,0
2:30.681,54245,(,0,0,1
2:30.717,54258,N,0,0,0
2:30.744,54268,),0,0,1
2:30.842,54303,(,0,0,2
2:30.942,54339,t,0,0,0
2:31.028,54370,),0,0,2
2:31.114,54401,(,0,0,0
2:31.147,54413,p,0,0,0
2:31.194,54430,),0,0,0
2:31.250,54450,(,0,0,1
2:31.283,54462,N,0,0,0
2:31.308,54471,),0,0,1
2:31.411,54508,(,0,0,2
2:31.503,54541,t,0,0,0
2:31.581,54569,),0,0,2
2:31.681,54605,(,0,0,1
2:31.769,54637,N,0,0,0
2:31.850,54666,),0,0,1
2:31.889,54680,(,0,0,2
2:31.944,54700,t,0,0,1
2:32.036,54733,),0,0,2
2:32.253,54811,(,0,0,0
2:32.286,54823,p,0,0,0
2:32.322,54836,),0,0,0
2:32.364,54851,(,0,0,1
2:32.397,54863,N,0,0,0
2:32.422,54872,),0,0,1
2:32.531,54911,(,0,0,2
2:32.614,54941,t,0,0,0
2:32.700,54972,),0,0,2
2:32.831,55019,(,0,0,0
2:32.867,55032,p,0,0,0
2:32.911,55048,),0,0,0
2:32.967,55068,(,0,0,1
2:33.006,55082,N,0,0,0
2:33.033,55092,),0,0,1
2:33.150,55134,(,0,0,2
2:33.239,55166,t,0,0,0
2:33.311,55192,),0,0,2
2:33.456,55244,(,0,0,1
2:33.536,55273,N,0,0,0
2:33.628,55306,),0,0,1
2:33.675,55323,(,0,0,2
2:33.739,55346,t,0,0,1
2:33.844,55384,),0,0,2
2:34.178,55504,(,0,0,0
2:34.217,55518,p,0,0,0
2:34.264,55535,),0,0,0
2:34.322,55556,(,0,0,1
2:34.356,55568,N,0,0,0
2:34.383,55578,),0,0,1
2:34.500,55620,(,0,0,2
2:34.600,55656,t,0,0,0
2:34.689,55688,),0,0,2
2:34.819,55735,(,0,0,0
2:34.861,55750,p,0,0,0
2:34.894,55762,),0,0,0
2:34.908,55767,(,0,0,1
2:35.003,55801,N,0,0,0
2:35.044,55816,),0,0,1
2:35.092,55833,(,0,0,2
2:35.172,55862,t,0,0,1
2:35.272,55898,),0,0,2
2:35.342,55923,(,0,0,1
2:35.425,55953,N,0,0,0
2:35.511,55984,),0,0,1
2:35.517,55986,(,0,0,2
2:35.611,56020,t,0,0,1
2:35.708,56055,),0,0,2
2:36.125,56205,(,0,0,0
2:36.161,56218,p,0,0,0
2:36.211,56236,),0,0,0
2:36.258,56253,(,0,0,1
2:36.292,56265,N,0,0,0
2:36.319,56275,),0,0,1
2:36.422,56312,(,0,0,2
2:36.525,56349,t,0,0,0
2:36.600,56376,),0,0,2
2:36.706,56414,(,0,0,1
2:36.825,56457,N,0,0,0
2:36.911,56488,),0,0,1
2:36.914,56489,t,0,0,3
2:37.003,56521,),0,0,2
2:37.214,56597,(,0,0,1
2:37.303,56629,N,0,0,0
2:37.400,56664,),0,0,1
2:37.406,56666,(,0,0,2
2:37.497,56699,t,0,0,1
2:37.597,56735,),0,0,2
2:37.983,56874,(,0,0,0
2:38.019,56887,p,0,0,0
2:38.061,56902,),0,0,0
2:38.106,56918,(,0,0,1
2:38.142,56931,N,0,0,0
2:38.164,56939,),0,0,1
2:38.275,56979,(,0,0,2
2:38.353,57007,t,0,0,0
2:38.419,57031,),0,0,2
2:38.589,57092,(,0,0,1
2:38.683,57126,N,0,0,0
2:38.722,57140,),0,0,1
2:38.789,57164,(,0,0,2
2:38.844,57184,t,0,0,1
2:38.947,57221,),0,0,2
2:39.081,57269,(,0,0,1
2:39.167,57300,N,0,0,0
2:39.253,57331,),0,0,1
2:39.258,57333,(,0,0,2
2:39.358,57369,t,0,0,1
2:39.456,57404,),0,0,2
2:39.689,57488,(,0,0,0
2:39.733,57504,p,0,0,0
2:39.775,57519,),0,0,0
2:39.831,57539,(,0,0,1
2:39.869,57553,N,0,0,0
2:39.894,57562,),0,0,1
2:40.008,57603,(,0,0,2
2:40.100,57636,t,0,0,0
2:40.181,57665,),0,0,2
2:40.281,57701,(,0,0,0
2:40.325,57717,p,0,0,0
2:40.372,57734,),0,0,0
2:40.433,57756,(,0,0,1
2:40.472,57770,N,0,0,0
2:40.503,57781,),0,0,1
2:40.625,57825,(,0,0,2
2:40.706,57854,t,0,0,0
2:40.786,57883,),0,0,2
2:40.819,57895,(,0,0,1
2:40.933,57936,N,0,0,0
2:41.017,57966,),0,0,1
2:41.022,57968,(,0,0,2
2:41.122,58004,t,0,0,1
2:41.231,58043,),0,0,2
2:41.586,58171,(,0,0,0
2:41.622,58184,p,0,0,0
2:41.664,58199,),0,0,0
2:41.714,58217,(,0,0,1
2:41.747,58229,N,0,0,0
2:41.772,58238,),0,0,1
2:41.889,58280,(,0,0,2
2:41.992,58317,t,0,0,0
2:42.075,58347,),0,0,2
2:42.175,58383,(,0,0,0
2:42.217,58398,p,0,0,0
2:42.250,58410,),0,0,0
2:42.264,58415,(,0,0,1
2:42.353,58447,N,0,0,0
2:42.389,58460,),0,0,1
2:42.453,58483,(,0,0,2
2:42.508,58503,t,0,0,1
2:42.597,58535,),0,0,2
2:42.711,58576,(,0,0,1
2:42.800,58608,N,0,0,0
2:42.881,58637,),0,0,1
2:42.922,58652,(,0,0,2
2:42.989,58676,t,0,0,1
2:43.083,58710,),0,0,2
2:43.386,58819,(,0,0,0
2:43.422,58832,p,0,0,0
2:43.467,58848,),0,0,0
2:43.508,58863,(,0,0,1
2:43.544,58876,N,0,0,0
2:43.569,58885,),0,0,1
2:43.675,58923,(,0,0,2
2:43.767,58956,t,0,0,0
2:43.844,58984,),0,0,2
2:43.933,59016,(,0,0,0
2:43.967,59028,p,0,0,0
2:44.008,59043,),0,0,0
2:44.022,59048,(,0,0,1
2:44.094,59074,N,0,0,0
2:44.125,59085,),0,0,1
2:44.272,59138,(,0,0,0
2:44.325,59157,p,0,0,0
2:44.356,59168,),0,0,0
2:44.414,59189,(,0,0,1
2:44.503,59221,N,0,0,0
2:44.583,59250,),0,0,1
2:44.625,59265,(,0,0,2
2:44.692,59289,t,0,0,1
2:44.792,59325,),0,0,2
2:45.111,59440,(,0,0,0
2:45.156,59456,p,0,0,0
2:45.203,59473,),0,0,0
2:45.250,59490,(,0,0,1
2:45.286,59503,N,0,0,0
2:45.311,59512,),0,0,1
2:45.425,59553,(,0,0,2
2:45.528,59590,t,0,0,0
2:45.608,59619,),0,0,2
2:45.692,59649,(,0,0,0
2:45.728,59662,p,0,0,0
2:45.778,59680,),0,0,0
2:45.817,59694,(,0,0,1
2:45.869,59713,N,0,0,0
2:45.900,59724,),0,0,1
2:46.044,59776,(,0,0,2
2:46.111,59800,t,0,0,0
2:46.172,59822,),0,0,2
2:46.236,59845,(,0,0,1
2:46.342,59883,N,0,0,0
2:46.428,59914,),0,0,1
2:46.433,59916,(,0,0,2
2:46.531,59951,t,0,0,1
2:46.631,59987,),0,0,2
2:46.900,60084,(,0,0,0
2:46.939,60098,p,0,0,0
2:46.989,60116,),0,0,0
2:47.044,60136,(,0,0,1
2:47.078,60148,N,0,0,0
2:47.103,60157,),0,0,1
2:47.217,60198,(,0,0,2
2:47.311,60232,t,0,0,0
2:47.392,60261,),0,0,2
2:47.469,60289,(,0,0,0
2:47.503,60301,p,0,0,0
2:47.547,60317,),0,0,0
2:47.606,60338,(,0,0,1
2:47.639,60350,N,0,0,0
2:47.667,60360,),0,0,1
2:47.767,60396,(,0,0,2
2:47.869,60433,t,0,0,0
2:47.944,60460,),0,0,2
2:47.994,60478,(,0,0,1
2:48.108,60519,N,0,0,0
2:48.192,60549,),0,0,1
2:48.239,60566,(,0,0,2
2:48.289,60584,t,0,0,1
2:48.383,60618,),0,0,2
2:48.614,60701,(,0,0,0
2:48.653,60715,p,0,0,0
2:48.694,60730,),0,0,0
2:48.747,60749,(,0,0,1
2:48.783,60762,N,0,0,0
2:48.811,60772,),0,0,1
2:48.911,60808,(,0,0,2
2:49.017,60846,t,0,0,0
2:49.097,60875,),0,0,2
2:49.192,60909,(,0,0,0
2:49.225,60921,p,0,0,0
2:49.275,60939,),0,0,0
2:49.325,60957,(,0,0,1
2:49.364,60971,N,0,0,0
2:49.389,60980,),0,0,1
2:49.503,61021,(,0,0,2
2:49.589,61052,t,0,0,0
2:49.661,61078,),0,0,2
2:49.806,61130,(,0,0,1
2:49.886,61159,N,0,0,0
2:49.969,61189,),0,0,1
2:50.008,61203,(,0,0,2
2:50.064,61223,t,0,0,1
2:50.156,61256,),0,0,2
2:50.403,61345,(,0,0,0
2:50.439,61358,p,0,0,0
2:50.481,61373,),0,0,0
2:50.533,61392,(,0,0,1
2:50.567,61404,N,0,0,0
2:50.592,61413,),0,0,1
2:50.708,61455,(,0,0,2
2:50.794,61486,t,0,0,0
2:50.881,61517,),0,0,2
2:50.989,61556,(,0,0,0
2:51.025,61569,p,0,0,0
2:51.069,61585,),0,0,0
2:51.125,61605,(,0,0,1
2:51.161,61618,N,0,0,0
2:51.189,61628,),0,0,1
2:51.308,61671,(,0,0,2
2:51.386,61699,t,0,0,0
2:51.458,61725,),0,0,2
2:51.519,61747,(,0,0,1
2:51.628,61786,N,0,0,0
2:51.717,61818,),0,0,1
2:51.761,61834,(,0,0,2
2:51.828,61858,t,0,0,1
2:51.933,61896,),0,0,2
2:52.314,62033,(,0,0,0
2:52.350,62046,p,0,0,0
2:52.394,62062,),0,0,0
2:52.450,62082,(,0,0,1
2:52.489,62096,N,0,0,0
2:52.517,62106,),0,0,1
2:52.628,62146,(,0,0,2
2:52.744,62188,t,0,0,0
2:52.822,62216,),0,0,2
2:52.936,62257,(,0,0,0
2:52.972,62270,p,0,0,0
2:53.022,62288,),0,0,0
2:53.069,62305,(,0,0,1
2:53.111,62320,N,0,0,0
2:53.139,62330,),0,0,1
2:53.264,62375,(,0,0,2
2:53.336,62401,t,0,0,0
2:53.406,62426,),0,0,2
2:53.456,62444,(,0,0,1
2:53.567,62484,N,0,0,0
2:53.647,62513,),0,0,1
2:53.686,62527,(,0,0,2
2:53.747,62549,t,0,0,1
2:53.850,62586,),0,0,2
2:54.139,62690,(,0,0,0
2:54.175,62703,p,0,0,0
2:54.214,62717,),0,0,0
2:54.264,62735,(,0,0,1
2:54.300,62748,N,0,0,0
2:54.325,62757,),0,0,1
2:54.433,62796,(,0,0,2
2:54.539,62834,t,0,0,0
2:54.619,62863,),0,0,2
2:54.700,62892,(,0,0,0
2:54.736,62905,p,0,0,0
2:54.781,62921,),0,0,0
2:54.833,62940,(,0,0,1
2:54.867,62952,N,0,0,0
2:54.894,62962,),0,0,1
2:54.997,62999,(,0,0,2
2:55.089,63032,t,0,0,0
2:55.161,63058,),0,0,2
2:55.208,63075,(,0,0,1
2:55.322,63116,N,0,0,0
2:55.411,63148,),0,0,1
2:55.417,63150,(,0,0,2
2:55.506,63182,t,0,0,1
2:55.600,63216,),0,0,2
2:55.842,63303,(,0,0,0
2:55.881,63317,p,0,0,0
2:55.919,63331,),0,0,0
2:55.975,63351,(,0,0,1
2:56.008,63363,N,0,0,0
2:56.036,63373,),0,0,1
2:56.144,63412,(,0,0,2
2:56.242,63447,t,0,0,0
2:56.314,63473,),0,0,2
2:56.389,63500,(,0,0,0
2:56.422,63512,p,0,0,0
2:56.467,63528,),0,0,0
2:56.525,63549,(,0,0,1
2:56.558,63561,N,0,0,0
2:56.583,63570,),0,0,1
2:56.689,63608,(,0,0,2
2:56.783,63642,t,0,0,0
2:56.864,63671,),0,0,2
2:56.867,63672,(,0,0,0
2:56.889,63680,p,0,0,0
2:57.008,63723,),0,0,0
2:57.019,63727,(,0,0,1
2:57.097,63755,N,0,0,0
2:57.183,63786,),0,0,1
2:57.219,63799,(,0,0,2
2:57.289,63824,t,0,0,1
2:57.392,63861,),0,0,2
2:57.539,63914,(,0,0,0
2:57.581,63929,p,0,0,0
2:57.625,63945,),0,0,0
2:57.681,63965,(,0,0,1
2:57.719,63979,N,0,0,0
2:57.744,63988,),0,0,1
2:57.872,64034,(,0,0,2
2:57.953,64063,t,0,0,0
2:58.036,64093,),0,0,2
2:58.128,64126,(,0,0,0
2:58.167,64140,p,0,0,0
2:58.217,64158,),0,0,0
2:58.269,64177,(,0,0,1
2:58.306,64190,N,0,0,0
2:58.331,64199,),0,0,1
2:58.436,64237,(,0,0,2
2:58.531,64271,t,0,0,0
2:58.606,64298,),0,0,2
2:58.711,64336,(,0,0,0
2:58.753,64351,p,0,0,0
2:58.792,64365,),0,0,0
2:58.806,64370,(,0,0,1
2:58.886,64399,N,0,0,0
2:58.922,64412,),0,0,1
2:58.975,64431,(,0,0,2
2:59.053,64459,t,0,0,1
2:59.142,64491,),0,0,2
2:59.256,64532,(,0,0,1
2:59.350,64566,N,0,0,0
2:59.433,64596,),0,0,1
2:59.481,64613,(,0,0,2
2:59.536,64633,t,0,0,1
2:59.633,64668,),0,0,2
2:59.981,64793,(,0,0,0
3:00.017,64806,p,0,0,0
3:00.058,64821,),0,0,0
3:00.108,64839,(,0,0,1
3:00.147,64853,N,0,0,0
3:00.189,64868,),0,0,1
3:00.278,64900,(,0,0,2
3:00.383,64938,t,0,0,0
3:00.456,64964,),0,0,2
3:00.547,64997,(,0,0,0
3:00.581,65009,p,0,0,0
3:00.622,65024,),0,0,0
3:00.653,65035,(,0,0,1
3:00.708,65055,N,0,0,0
3:00.739,65066,),0,0,1
3:00.875,65115,(,0,0,2
3:00.947,65141,t,0,0,0
3:01.003,65161,),0,0,2
3:01.078,65188,(,0,0,1
3:01.156,65216,N,0,0,0
3:01.244,65248,),0,0,1
3:01.275,65259,(,0,0,2
3:01.342,65283,t,0,0,1
3:01.431,65315,),0,0,2
3:01.633,65388,(,0,0,0
3:01.672,65402,p,0,0,0
3:01.717,65418,),0,0,0
3:01.764,65435,(,0,0,1
3:01.800,65448,N,0,0,0
3:01.825,65457,),0,0,1
3:01.925,65493,(,0,0,2
3:02.022,65528,t,0,0,0
3:02.094,65554,),0,0,2
3:02.167,65580,(,0,0,0
3:02.203,65593,p,0,0,0
3:02.244,65608,),0,0,0
3:02.283,65622,(,0,0,1
3:02.314,65633,N,0,0,0
3:02.336,65641,),0,0,1
3:02.439,65678,(,0,0,2
3:02.531,65711,t,0,0,0
3:02.606,65738,),0,0,2
3:02.758,65793,(,0,0,1
3:02.842,65823,N,0,0,0
3:02.875,65835,),0,0,1
3:02.944,65860,(,0,0,2
3:02.992,65877,t,0,0,4
3:03.122,65924,t,0,0,4
3:03.144,65932,),0,0,2
3:03.200,65952,(,0,0,0
3:03.242,65967,p,0,0,0
3:03.275,65979,),0,0,0
3:03.339,66002,(,0,0,1
3:03.378,66016,N,0,0,0
3:03.436,66037,),0,0,1
3:03.519,66067,(,0,0,2
3:03.619,66103,t,0,0,0
3:03.700,66132,),0,0,2
3:03.861,66190,(,0,0,1
3:03.936,66217,N,0,0,0
3:03.961,66226,),0,0,1
3:04.119,66283,(,0,0,2
3:04.192,66309,t,0,0,0
3:04.247,66329,),0,0,2
3:04.308,66351,(,0,0,0
3:04.350,66366,p,0,0,0
3:04.406,66386,),0,0,0
3:04.456,66404,(,0,0,1
3:04.492,66417,N,0,0,0
3:04.519,66427,),0,0,1
3:04.650,66474,(,0,0,2
3:04.722,66500,t,0,0,0
3:04.772,66518,),0,0,2
3:04.778,66520,(,0,0,0
3:04.792,66525,p,0,0,0
3:04.869,66553,),0,0,0
3:04.908,66567,(,0,0,1
3:04.975,66591,N,0,0,0
3:05.056,66620,),0,0,1
3:05.061,66622,(,0,0,2
3:05.169,66661,t,0,0,1
3:05.267,66696,),0,0,2
3:05.358,66729,(,0,0,0
3:05.400,66744,p,0,0,0
3:05.447,66761,),0,0,0
3:05.494,66778,(,0,0,1
3:05.531,66791,N,0,0,0
3:05.556,66800,),0,0,1
3:05.664,66839,(,0,0,2
3:05.753,66871,t,0,0,0
3:05.825,66897,),0,0,2
3:05.867,66912,(,0,0,0
3:05.908,66927,p,0,0,0
3:05.958,66945,),0,0,0
3:06.008,66963,(,0,0,1
3:06.042,66975,N,0,0,0
3:06.136,67009,),0,0,1
3:06.172,67022,(,0,0,2
3:06.258,67053,t,0,0,0
3:06.314,67073,),0,0,2
3:06.406,67106,(,0,0,0
3:06.442,67119,p,0,0,0
3:06.486,67135,),0,0,0
3:06.539,67154,(,0,0,1
3:06.575,67167,N,0,0,0
3:06.603,67177,),0,0,1
3:06.731,67223,(,0,0,2
3:06.806,67250,t,0,0,0
3:06.867,67272,),0,0,2
3:06.953,67303,(,0,0,1
3:07.036,67333,N,0,0,0
3:07.158,67377,),0,0,1
3:07.222,67400,t,0,0,2
3:07.328,67438,),0,0,2
3:07.492,67497,(,0,0,0
3:07.531,67511,p,0,0,0
3:07.581,67529,),0,0,0
3:07.594,67534,(,0,0,1
3:07.664,67559,N,0,0,0
3:07.689,67568,),0,0,1
3:07.822,67616,(,0,0,2
3:07.886,67639,t,0,0,0
3:07.950,67662,),0,0,2
3:08.017,67686,(,0,0,0
3:08.056,67700,p,0,0,0
3:08.094,67714,),0,0,0
3:08.150,67734,(,0,0,1
3:08.183,67746,N,0,0,0
3:08.211,67756,),0,0,1
3:08.286,67783,(,0,0,2
3:08.381,67817,t,0,0,0
3:08.444,67840,),0,0,2
3:08.528,67870,(,0,0,0
3:08.572,67886,p,0,0,0
3:08.614,67901,),0,0,0
3:08.661,67918,(,0,0,1
3:08.694,67930,N,0,0,0
3:08.719,67939,),0,0,1
3:08.786,67963,(,0,0,2
3:08.908,68007,t,0,0,0
3:08.983,68034,),0,0,2
3:09.078,68068,(,0,0,0
3:09.117,68082,p,0,0,0
3:09.167,68100,),0,0,0
3:09.222,68120,(,0,0,1
3:09.256,68132,N,0,0,0
3:09.283,68142,),0,0,1
3:09.392,68181,(,0,0,2
3:09.483,68214,t,0,0,0
3:09.558,68241,),0,0,2
3:09.656,68276,(,0,0,0
3:09.694,68290,p,0,0,0
3:09.744,68308,),0,0,0
3:09.800,68328,(,0,0,1
3:09.836,68341,N,0,0,0
3:09.864,68351,),0,0,1
3:09.975,68391,(,0,0,2
3:10.075,68427,t,0,0,0
3:10.156,68456,),0,0,2
3:10.258,68493,(,0,0,0
3:10.297,68507,p,0,0,0
3:10.344,68524,),0,0,0
3:10.364,68531,(,0,0,1
3:10.428,68554,N,0,0,0
3:10.458,68565,),0,0,1
3:10.628,68626,(,0,0,0
3:10.681,68645,p,0,0,0
3:10.711,68656,),0,0,0
3:10.803,68689,(,0,0,1
3:10.892,68721,N,0,0,0
3:10.981,68753,),0,0,1
3:11.022,68768,(,0,0,2
3:11.092,68793,t,0,0,1
3:11.197,68831,),0,0,2
3:11.442,68919,(,0,0,0
3:11.478,68932,p,0,0,0
3:11.517,68946,),0,0,0
3:11.569,68965,(,0,0,1
3:11.606,68978,N,0,0,0
3:11.633,68988,),0,0,1
3:11.744,69028,(,0,0,2
3:11.850,69066,t,0,0,0
3:11.928,69094,),0,0,2
3:12.031,69131,(,0,0,0
3:12.067,69144,p,0,0,0
3:12.108,69159,),0,0,0
3:12.158,69177,(,0,0,1
3:12.197,69191,N,0,0,0
3:12.225,69201,),0,0,1
3:12.339,69242,(,0,0,2
3:12.419,69271,t,0,0,0
3:12.497,69299,),0,0,2
3:12.542,69315,(,0,0,1
3:12.633,69348,N,0,0,0
3:12.714,69377,),0,0,1
3:12.719,69379,(,0,0,2
3:12.814,69413,t,0,0,1
3:12.911,69448,),0,0,2
3:13.228,69562,(,0,0,0
3:13.261,69574,p,0,0,0
3:13.303,69589,),0,0,0
3:13.344,69604,(,0,0,1
3:13.378,69616,N,0,0,0
3:13.403,69625,),0,0,1
3:13.497,69659,(,0,0,2
3:13.606,69698,t,0,0,0
3:13.686,69727,),0,0,2
3:13.764,69755,(,0,0,0
3:13.800,69768,p,0,0,0
3:13.844,69784,),0,0,0
3:13.875,69795,(,0,0,1
3:13.928,69814,N,0,0,0
3:13.958,69825,),0,0,1
3:14.086,69871,(,0,0,2
3:14.158,69897,t,0,0,0
3:14.211,69916,),0,0,2
3:14.272,69938,(,0,0,1
3:14.344,69964,N,0,0,0
3:14.431,69995,),0,0,1
3:14.472,70010,(,0,0,2
3:14.533,70032,t,0,0,1
3:14.633,70068,),0,0,2
3:14.914,70169,(,0,0,0
3:14.950,70182,p,0,0,0
3:14.992,70197,),0,0,0
3:15.044,70216,(,0,0,1
3:15.081,70229,N,0,0,0
3:15.108,70239,),0,0,1
3:15.211,70276,(,0,0,2
3:15.319,70315,t,0,0,0
3:15.397,70343,),0,0,2
3:15.494,70378,(,0,0,0
3:15.531,70391,p,0,0,0
3:15.578,70408,),0,0,0
3:15.622,70424,(,0,0,1
3:15.672,70442,N,0,0,0
3:15.706,70454,),0,0,1
3:15.858,70509,(,0,0,0
3:15.917,70530,p,0,0,0
3:15.967,70548,),0,0,0
3:16.044,70576,(,0,0,1
3:16.128,70606,N,0,0,0
3:16.208,70635,),0,0,1
3:16.258,70653,(,0,0,2
3:16.311,70672,t,0,0,1
3:16.408,70707,),0,0,2
3:16.731,70823,(,0,0,0
3:16.767,70836,p,0,0,0
3:16.808,70851,),0,0,0
3:16.858,70869,(,0,0,1
3:16.892,70881,N,0,0,0
3:16.917,70890,),0,0,1
3:17.028,70930,(,0,0,2
3:17.131,70967,t,0,0,0
3:17.208,70995,),0,0,2
3:17.300,71028,(,0,0,0
3:17.331,71039,p,0,0,0
3:17.375,71055,),0,0,0
3:17.394,71062,(,0,0,1
3:17.461,71086,N,0,0,0
3:17.492,71097,),0,0,1
3:17.575,71127,(,0,0,2
3:17.614,71141,t,0,0,1
3:17.706,71174,),0,0,2
3:17.817,71214,(,0,0,1
3:17.903,71245,N,0,0,0
3:17.986,71275,),0,0,1
3:18.025,71289,(,0,0,2
3:18.086,71311,t,0,0,1
3:18.189,71348,),0,0,2
3:18.472,71450,(,0,0,0
3:18.511,71464,p,0,0,0
3:18.553,71479,),0,0,0
3:18.603,71497,(,0,0,1
3:18.633,71508,N,0,0,0
3:18.661,71518,),0,0,1
3:18.764,71555,(,0,0,2
3:18.867,71592,t,0,0,0
3:18.942,71619,),0,0,2
3:19.033,71652,(,0,0,0
3:19.069,71665,p,0,0,0
3:19.119,71683,),0,0,0
3:19.139,71690,(,0,0,1
3:19.203,71713,N,0,0,0
3:19.236,71725,),0,0,1
3:19.378,71776,(,0,0,2
3:19.442,71799,t,0,0,0
3:19.494,71818,),0,0,2
3:19.553,71839,(,0,0,1
3:19.636,71869,N,0,0,0
3:19.714,71897,),0,0,1
3:19.719,71899,(,0,0,2
3:19.808,71931,t,0,0,1
3:19.906,71966,),0,0,2
3:20.208,72075,(,0,0,0
3:20.244,72088,p,0,0,0
3:20.281,72101,),0,0,0
3:20.314,72113,(,0,0,1
3:20.347,72125,N,0,0,0
3:20.372,72134,),0,0,1
3:20.467,72168,(,0,0,2
3:20.578,72208,t,0,0,0
3:20.653,72235,),0,0,2
3:20.731,72263,(,0,0,0
3:20.761,72274,p,0,0,0
3:20.806,72290,),0,0,0
3:20.825,72297,(,0,0,1
3:20.889,72320,N,0,0,0
3:20.919,72331,),0,0,1
3:21.067,72384,(,0,0,2
3:21.133,72408,t,0,0,0
3:21.172,72422,),0,0,2
3:21.264,72455,(,0,0,1
3:21.350,72486,N,0,0,0
3:21.439,72518,),0,0,1
3:21.444,72520,(,0,0,2
3:21.544,72556,t,0,0,1
3:21.656,72596,),0,0,2
3:21.917,72690,(,0,0,0
3:21.956,72704,p,0,0,0
3:22.003,72721,),0,0,0
3:22.053,72739,(,0,0,1
3:22.094,72754,N,0,0,0
3:22.125,72765,),0,0,1
3:22.247,72809,(,0,0,2
3:22.350,72846,t,0,0,0
3:22.436,72877,),0,0,2
3:22.519,72907,(,0,0,0
3:22.553,72919,p,0,0,0
3:22.606,72938,),0,0,0
3:22.650,72954,(,0,0,1
3:22.689,72968,N,0,0,0
3:22.719,72979,),0,0,1
3:22.847,73025,(,0,0,2
3:22.933,73056,t,0,0,0
3:23.000,73080,),0,0,2
3:23.047,73097,(,0,0,1
3:23.150,73134,N,0,0,0
3:23.244,73168,),0,0,1
3:23.278,73180,(,0,0,2
3:23.336,73201,t,0,0,1
3:23.439,73238,),0,0,2
3:23.664,73319,(,0,0,0
3:23.703,73333,p,0,0,0
3:23.739,73346,),0,0,0
3:23.772,73358,(,0,0,1
3:23.822,73376,N,0,0,0
3:23.850,73386,),0,0,1
3:23.944,73420,(,0,0,2
3:24.050,73458,t,0,0,0
3:24.139,73490,),0,0,2
3:24.214,73517,(,0,0,0
3:24.253,73531,p,0,0,0
3:24.300,73548,),0,0,0
3:24.325,73557,(,0,0,1
3:24.383,73578,N,0,0,0
3:24.511,73624,),0,0,1
3:24.514,73625,(,0,0,2
3:24.594,73654,t,0,0,0
3:24.678,73684,),0,0,2
3:24.711,73696,(,0,0,1
3:24.836,73741,N,0,0,0
3:24.967,73788,),0,0,1
3:25.022,73808,t,0,0,2
3:25.133,73848,),0,0,2
3:25.367,73932,(,0,0,0
3:25.411,73948,p,0,0,0
3:25.456,73964,),0,0,0
3:25.475,73971,(,0,0,1
3:25.531,73991,N,0,0,0
3:25.569,74005,),0,0,1
3:25.661,74038,(,0,0,2
3:25.764,74075,t,0,0,0
3:25.844,74104,),0,0,2
3:25.933,74136,(,0,0,0
3:25.967,74148,p,0,0,0
3:26.006,74162,),0,0,0
3:26.022,74168,(,0,0,1
3:26.089,74192,N,0,0,0
3:26.136,74209,),0,0,1
3:26.217,74238,t,0,0,2
3:26.306,74270,),0,0,2
3:26.383,74298,(,0,0,1
3:26.503,74341,N,0,0,0
3:26.656,74396,),0,0,1
3:26.689,74408,t,0,0,2
3:26.806,74450,),0,0,2
3:27.033,74532,(,0,0,0
3:27.089,74552,p,0,0,0
3:27.125,74565,),0,0,0
3:27.156,74576,(,0,0,1
3:27.208,74595,N,0,0,0
3:27.292,74625,),0,0,1
3:27.339,74642,(,0,0,2
3:27.444,74680,t,0,0,0
3:27.533,74712,),0,0,2
3:27.603,74737,(,0,0,0
3:27.644,74752,p,0,0,0
3:27.697,74771,),0,0,0
3:27.733,74784,(,0,0,1
3:27.783,74802,N,0,0,0
3:27.936,74857,),0,0,1
3:27.978,74872,(,0,0,2
3:28.014,74885,t,0,0,0
3:28.089,74912,),0,0,2
3:28.122,74924,(,0,0,1
3:28.253,74971,N,0,0,0
3:28.353,75007,),0,0,1
3:28.358,75009,(,0,0,2
3:28.439,75038,t,0,0,1
3:28.542,75075,),0,0,2
3:28.725,75141,(,0,0,0
3:28.775,75159,p,0,0,0
3:28.819,75175,),0,0,0
3:28.847,75185,(,0,0,1
3:28.917,75210,N,0,0,0
3:28.997,75239,),0,0,1
3:29.044,75256,(,0,0,2
3:29.153,75295,t,0,0,0
3:29.244,75328,),0,0,2
3:30.025,75609,(,0,0,1
3:30.194,75670,N,0,0,0
3:30.325,75717,),0,0,1
3:30.542,75795,(,0,0,2
3:30.594,75814,t,0,0,0
3:30.656,75836,),0,0,2
3:31.500,76140,(,0,0,0
3:31.547,76157,p,0,0,0
3:31.589,76172,),0,0,0
3:31.614,76181,(,0,0,1
3:31.675,76203,N,0,0,0
3:31.839,76262,),0,0,1
3:31.889,76280,t,0,0,3
3:31.967,76308,),0,0,2
3:32.047,76337,(,0,0,0
3:32.092,76353,p,0,0,0
3:32.136,76369,),0,0,0
3:32.167,76380,(,0,0,1
3:32.219,76399,N,0,0,0
3:32.258,76413,),0,0,1
3:32.333,76440,(,0,0,2
3:32.425,76473,t,0,0,0
3:32.500,76500,),0,0,2
3:32.583,76530,(,0,0,0
3:32.625,76545,p,0,0,0
3:32.664,76559,),0,0,0
3:32.700,76572,(,0,0,1
3:32.747,76589,N,0,0,0
3:32.775,76599,),0,0,1
3:32.867,76632,(,0,0,2
3:32.967,76668,t,0,0,0
3:33.036,76693,),0,0,2
3:33.136,76729,(,0,0,0
3:33.178,76744,p,0,0,0
3:33.219,76759,),0,0,0
3:33.275,76779,(,0,0,1
3:33.314,76793,N,0,0,0
3:33.344,76804,),0,0,1
3:33.456,76844,(,0,0,2
3:33.553,76879,t,0,0,0
3:33.619,76903,),0,0,2
3:33.708,76935,(,0,0,1
3:33.794,76966,N,0,0,0
3:33.892,77001,),0,0,1
3:33.944,77020,(,0,0,2
3:34.000,77040,t,0,0,1
3:34.100,77076,),0,0,2
3:34.381,77177,(,0,0,0
3:34.428,77194,p,0,0,0
3:34.467,77208,),0,0,0
3:34.514,77225,(,0,0,1
3:34.553,77239,N,0,0,0
3:34.581,77249,),0,0,1
3:34.711,77296,(,0,0,2
3:34.789,77324,t,0,0,0
3:34.864,77351,),0,0,2
3:34.972,77390,(,0,0,0
3:35.003,77401,p,0,0,0
3:35.056,77420,),0,0,0
3:35.086,77431,(,0,0,1
3:35.142,77451,N,0,0,0
3:35.172,77462,),0,0,1
3:35.272,77498,t,0,0,2
3:35.378,77536,),0,0,2
3:35.492,77577,(,0,0,1
3:35.578,77608,N,0,0,0
3:35.656,77636,),0,0,1
3:35.706,77654,(,0,0,2
3:35.761,77674,t,0,0,1
3:35.853,77707,),0,0,2
3:36.142,77811,(,0,0,0
3:36.178,77824,p,0,0,0
3:36.219,77839,),0,0,0
3:36.264,77855,(,0,0,1
3:36.300,77868,N,0,0,0
3:36.328,77878,),0,0,1
3:36.425,77913,(,0,0,2
3:36.544,77956,t,0,0,0
3:36.614,77981,),0,0,2
3:36.694,78010,(,0,0,0
3:36.733,78024,p,0,0,0
3:36.783,78042,),0,0,0
3:36.817,78054,(,0,0,1
3:36.867,78072,N,0,0,0
3:36.897,78083,),0,0,1
3:37.031,78131,(,0,0,2
3:37.106,78158,t,0,0,0
3:37.181,78185,),0,0,2
3:37.206,78194,(,0,0,1
3:37.317,78234,N,0,0,0
3:37.400,78264,),0,0,1
3:37.439,78278,(,0,0,2
3:37.497,78299,t,0,0,1
3:37.594,78334,),0,0,2
3:37.792,78405,(,0,0,0
3:37.831,78419,p,0,0,0
3:37.869,78433,),0,0,0
3:37.886,78439,(,0,0,1
3:37.953,78463,N,0,0,0
3:37.978,78472,),0,0,1
3:38.083,78510,(,0,0,2
3:38.181,78545,t,0,0,0
3:38.261,78574,),0,0,2
3:38.306,78590,(,0,0,0
3:38.336,78601,p,0,0,0
3:38.381,78617,),0,0,0
3:38.428,78634,(,0,0,1
3:38.458,78645,N,0,0,0
3:38.483,78654,),0,0,1
3:38.561,78682,(,0,0,2
3:38.664,78719,t,0,0,0
3:38.739,78746,),0,0,2
3:38.822,78776,(,0,0,0
3:38.861,78790,p,0,0,0
3:38.903,78805,),0,0,0
3:38.961,78826,(,0,0,1
3:38.994,78838,N,0,0,0
3:39.022,78848,),0,0,1
3:39.119,78883,(,0,0,2
3:39.222,78920,t,0,0,0
3:39.303,78949,),0,0,2
3:39.386,78979,(,0,0,0
3:39.422,78992,p,0,0,0
3:39.467,79008,),0,0,0
3:39.525,79029,(,0,0,1
3:39.558,79041,N,0,0,0
3:39.586,79051,),0,0,1
3:39.683,79086,(,0,0,2
3:39.794,79126,t,0,0,0
3:39.878,79156,),0,0,2
3:40.003,79201,(,0,0,0
3:40.039,79214,p,0,0,0
3:40.089,79232,),0,0,0
3:40.136,79249,(,0,0,1
3:40.169,79261,N,0,0,0
3:40.197,79271,),0,0,1
3:40.319,79315,(,0,0,2
3:40.392,79341,t,0,0,0
3:40.464,79367,),0,0,2
3:40.517,79386,(,0,0,0
3:40.575,79407,p,0,0,0
3:40.661,79438,),0,0,0
3:40.675,79443,(,0,0,1
3:40.753,79471,N,0,0,0
3:40.839,79502,),0,0,1
3:40.894,79522,(,0,0,2
3:40.950,79542,t,0,0,1
3:41.056,79580,),0,0,2
3:41.108,79599,(,0,0,1
3:41.222,79640,N,0,0,0
3:41.331,79679,),0,0,1
3:41.336,79681,(,0,0,2
3:41.406,79706,t,0,0,1
3:41.492,79737,),0,0,2
3:41.867,79872,(,0,0,0
3:41.914,79889,p,0,0,0
3:41.953,79903,),0,0,0
3:41.994,79918,(,0,0,1
3:42.028,79930,N,0,0,0
3:42.053,79939,),0,0,1
3:42.150,79974,(,0,0,2
3:42.261,80014,t,0,0,0
3:42.331,80039,),0,0,2
3:42.419,80071,(,0,0,0
3:42.456,80084,p,0,0,0
3:42.492,80097,),0,0,0
3:42.506,80102,(,0,0,1
3:42.583,80130,N,0,0,0
3:42.614,80141,),0,0,1
3:42.697,80171,(,0,0,2
3:42.736,80185,t,0,0,1
3:42.819,80215,),0,0,2
3:42.917,80250,(,0,0,1
3:43.011,80284,N,0,0,0
3:43.092,80313,),0,0,1
3:43.097,80315,(,0,0,2
3:43.192,80349,t,0,0,1
3:43.292,80385,),0,0,2
3:43.511,80464,(,0,0,0
3:43.556,80480,p,0,0,0
3:43.597,80495,),0,0,0
3:43.639,80510,(,0,0,1
3:43.678,80524,N,0,0,0
3:43.706,80534,),0,0,1
3:43.811,80572,(,0,0,2
3:43.911,80608,t,0,0,0
3:43.986,80635,),0,0,2
3:44.056,80660,(,0,0,0
3:44.092,80673,p,0,0,0
3:44.147,80693,),0,0,0
3:44.192,80709,(,0,0,1
3:44.228,80722,N,0,0,0
3:44.253,80731,),0,0,1
3:44.344,80764,(,0,0,2
3:44.433,80796,t,0,0,0
3:44.511,80824,),0,0,2
3:44.631,80867,(,0,0,0
3:44.644,80872,p,0,0,0
3:44.719,80899,),0,0,0
3:44.728,80902,(,0,0,1
3:44.747,80909,N,0,0,0
3:44.789,80924,),0,0,1
3:44.850,80946,(,0,0,2
3:44.908,80967,t,0,0,1
3:45.006,81002,),0,0,2
3:45.122,81044,(,0,0,0
3:45.164,81059,p,0,0,0
3:45.206,81074,),0,0,0
3:45.264,81095,(,0,0,1
3:45.297,81107,N,0,0,0
3:45.325,81117,),0,0,1
3:45.458,81165,(,0,0,2
3:45.531,81191,t,0,0,0
3:45.611,81220,),0,0,2
3:45.675,81243,(,0,0,0
3:45.722,81260,p,0,0,0
3:45.775,81279,),0,0,0
3:45.825,81297,(,0,0,1
3:45.858,81309,N,0,0,0
3:45.886,81319,),0,0,1
3:45.989,81356,(,0,0,2
3:46.081,81389,t,0,0,0
3:46.156,81416,),0,0,2
3:46.233,81444,(,0,0,0
3:46.269,81457,p,0,0,0
3:46.328,81478,),0,0,0
3:46.372,81494,(,0,0,1
3:46.411,81508,N,0,0,0
3:46.442,81519,),0,0,1
3:46.567,81564,(,0,0,2
3:46.642,81591,t,0,0,0
3:46.714,81617,),0,0,2
3:46.792,81645,(,0,0,1
3:46.881,81677,N,0,0,0
3:46.969,81709,),0,0,1
3:47.000,81720,(,0,0,2
3:47.078,81748,t,0,0,1
3:47.189,81788,),0,0,2
3:47.314,81833,(,0,0,0
3:47.353,81847,p,0,0,0
3:47.397,81863,),0,0,0
3:47.428,81874,(,0,0,1
3:47.481,81893,N,0,0,0
3:47.508,81903,),0,0,1
3:47.606,81938,(,0,0,2
3:47.697,81971,t,0,0,0
3:47.769,81997,),0,0,2
3:47.825,82017,(,0,0,0
3:47.856,82028,p,0,0,0
3:47.903,82045,),0,0,0
3:47.958,82065,(,0,0,1
3:47.992,82077,N,0,0,0
3:48.022,82088,),0,0,1
3:48.092,82113,(,0,0,2
3:48.219,82159,t,0,0,0
3:48.292,82185,),0,0,2
3:48.367,82212,(,0,0,0
3:48.406,82226,p,0,0,0
3:48.453,82243,),0,0,0
3:48.503,82261,(,0,0,1
3:48.536,82273,N,0,0,0
3:48.572,82286,),0,0,1
3:48.672,82322,(,0,0,2
3:48.764,82355,t,0,0,0
3:48.814,82373,),0,0,2
3:48.875,82395,(,0,0,1
3:48.997,82439,N,0,0,0
3:49.122,82484,),0,0,1
3:49.153,82495,(,0,0,2
3:49.183,82506,t,0,0,4
3:49.336,82561,t,0,0,4
3:49.356,82568,),0,0,2
3:49.414,82589,(,0,0,0
3:49.450,82602,p,0,0,0
3:49.489,82616,),0,0,0
3:49.528,82630,(,0,0,1
3:49.572,82646,N,0,0,0
3:49.597,82655,),0,0,1
3:49.697,82691,(,0,0,2
3:49.794,82726,t,0,0,0
3:49.872,82754,),0,0,2
3:49.906,82766,(,0,0,0
3:49.947,82781,p,0,0,0
3:49.994,82798,),0,0,0
3:50.047,82817,(,0,0,1
3:50.078,82828,N,0,0,0
3:50.142,82851,),0,0,1
3:50.200,82872,(,0,0,2
3:50.283,82902,t,0,0,0
3:50.336,82921,),0,0,2
3:50.406,82946,(,0,0,0
3:50.439,82958,p,0,0,0
3:50.478,82972,),0,0,0
3:50.531,82991,(,0,0,1
3:50.567,83004,N,0,0,0
3:50.594,83014,),0,0,1
3:50.683,83046,(,0,0,2
3:50.786,83083,t,0,0,0
3:50.844,83104,),0,0,2
3:50.906,83126,(,0,0,1
3:51.028,83170,N,0,0,0
3:51.114,83201,),0,0,1
3:51.119,83203,(,0,0,2
3:51.219,83239,t,0,0,1
3:51.319,83275,),0,0,2
3:51.478,83332,(,0,0,0
3:51.519,83347,p,0,0,0
3:51.569,83365,),0,0,0
3:51.622,83384,(,0,0,1
3:51.664,83399,N,0,0,0
3:51.692,83409,),0,0,1
3:51.822,83456,(,0,0,2
3:51.908,83487,t,0,0,0
3:51.997,83519,),0,0,2
3:52.058,83541,(,0,0,0
3:52.097,83555,p,0,0,0
3:52.150,83574,),0,0,0
3:52.203,83593,(,0,0,1
3:52.236,83605,N,0,0,0
3:52.264,83615,),0,0,1
3:52.375,83655,(,0,0,2
3:52.458,83685,t,0,0,0
3:52.539,83714,),0,0,2
3:52.597,83735,(,0,0,0
3:52.653,83755,p,0,0,0
3:52.703,83773,),0,0,0
3:52.753,83791,(,0,0,1
3:52.786,83803,N,0,0,0
3:52.814,83813,),0,0,1
3:52.911,83848,(,0,0,2
3:53.022,83888,t,0,0,0
3:53.094,83914,),0,0,2
3:53.172,83942,(,0,0,0
3:53.211,83956,p,0,0,0
3:53.250,83970,),0,0,0
3:53.306,83990,(,0,0,1
3:53.336,84001,N,0,0,0
3:53.361,84010,),0,0,1
3:53.467,84048,(,0,0,2
3:53.539,84074,t,0,0,0
3:53.608,84099,),0,0,2
3:53.703,84133,(,0,0,0
3:53.736,84145,p,0,0,0
3:53.781,84161,),0,0,0
3:53.836,84181,(,0,0,1
3:53.869,84193,N,0,0,0
3:53.900,84204,),0,0,1
3:54.000,84240,(,0,0,2
3:54.089,84272,t,0,0,0
3:54.161,84298,),0,0,2
3:54.256,84332,(,0,0,0
3:54.297,84347,p,0,0,0
3:54.339,84362,),0,0,0
3:54.394,84382,(,0,0,1
3:54.431,84395,N,0,0,0
3:54.458,84405,),0,0,1
3:54.569,84445,(,0,0,2
3:54.661,84478,t,0,0,0
3:54.736,84505,),0,0,2
3:54.800,84528,(,0,0,1
3:54.878,84556,N,0,0,0
3:54.997,84599,),0,0,1
3:55.044,84616,t,0,0,2
3:55.153,84655,),0,0,2
3:55.428,84754,(,0,0,0
3:55.464,84767,p,0,0,0
3:55.508,84783,),0,0,0
3:55.558,84801,(,0,0,1
3:55.592,84813,N,0,0,0
3:55.617,84822,),0,0,1
3:55.719,84859,(,0,0,2
3:55.825,84897,t,0,0,0
3:55.900,84924,),0,0,2
3:55.975,84951,(,0,0,0
3:56.011,84964,p,0,0,0
3:56.056,84980,),0,0,0
3:56.111,85000,(,0,0,1
3:56.142,85011,N,0,0,0
3:56.167,85020,),0,0,1
3:56.272,85058,(,0,0,2
3:56.344,85084,t,0,0,0
3:56.408,85107,),0,0,2
3:56.497,85139,(,0,0,1
3:56.581,85169,N,0,0,0
3:56.669,85201,),0,0,1
3:56.703,85213,(,0,0,2
3:56.767,85236,t,0,0,1
3:56.858,85269,),0,0,2
3:57.056,85340,(,0,0,0
3:57.092,85353,p,0,0,0
3:57.133,85368,),0,0,0
3:57.189,85388,(,0,0,1
3:57.222,85400,N,0,0,0
3:57.250,85410,),0,0,1
3:57.361,85450,(,0,0,2
3:57.458,85485,t,0,0,0
3:57.542,85515,),0,0,2
3:57.619,85543,(,0,0,0
3:57.656,85556,p,0,0,0
3:57.706,85574,),0,0,0
3:57.758,85593,(,0,0,1
3:57.789,85604,N,0,0,0
3:57.819,85615,),0,0,1
3:57.922,85652,(,0,0,2
3:58.011,85684,t,0,0,0
3:58.089,85712,),0,0,2
3:58.181,85745,(,0,0,0
3:58.219,85759,p,0,0,0
3:58.264,85775,),0,0,0
3:58.319,85795,(,0,0,1
3:58.358,85809,N,0,0,0
3:58.386,85819,),0,0,1
3:58.486,85855,(,0,0,2
3:58.586,85891,t,0,0,0
3:58.661,85918,),0,0,2
3:58.753,85951,(,0,0,0
3:58.792,85965,p,0,0,0
3:58.839,85982,),0,0,0
3:58.897,86003,(,0,0,1
3:58.931,86015,N,0,0,0
3:58.961,86026,),0,0,1
3:59.072,86066,(,0,0,2
3:59.161,86098,t,0,0,0
3:59.239,86126,),0,0,2
3:59.336,86161,(,0,0,0
3:59.378,86176,p,0,0,0
3:59.422,86192,),0,0,0
3:59.472,86210,(,0,0,1
3:59.511,86224,N,0,0,0
3:59.539,86234,),0,0,1
3:59.636,86269,(,0,0,2
3:59.728,86302,t,0,0,0
3:59.806,86330,),0,0,2
3:59.928,86374,(,0,0,0
3:59.967,86388,p,0,0,0
4:00.014,86405,),0,0,0
4:00.036,86413,(,0,0,1
4:00.097,86435,N,0,0,0
4:00.131,86447,),0,0,1
4:00.272,86498,(,0,0,2
4:00.342,86523,t,0,0,0
4:00.400,86544,),0,0,2
4:00.453,86563,(,0,0,1
4:00.536,86593,N,0,0,0
4:00.628,86626,),0,0,1
4:00.633,86628,(,0,0,2
4:00.714,86657,t,0,0,1
4:00.800,86688,),0,0,2
4:01.189,86828,(,0,0,0
4:01.225,86841,p,0,0,0
4:01.264,86855,),0,0,0
4:01.308,86871,(,0,0,1
4:01.342,86883,N,0,0,0
4:01.369,86893,),0,0,1
4:01.464,86927,(,0,0,2
4:01.572,86966,t,0,0,0
4:01.644,86992,),0,0,2
4:01.647,86993,(,0,0,0
4:01.714,87017,p,0,0,0
4:01.764,87035,),0,0,0
4:01.800,87048,(,0,0,1
4:01.892,87081,N,0,0,0
4:01.933,87096,),0,0,1
4:02.000,87120,(,0,0,2
4:02.056,87140,t,0,0,1
4:02.158,87177,),0,0,2
4:02.228,87202,(,0,0,1
4:02.303,87229,N,0,0,0
4:02.369,87253,),0,0,1
4:02.375,87255,(,0,0,2
4:02.464,87287,t,0,0,1
4:02.558,87321,),0,0,2
4:02.853,87427,(,0,0,0
4:02.892,87441,p,0,0,0
4:02.936,87457,),0,0,0
4:02.986,87475,(,0,0,1
4:03.019,87487,N,0,0,0
4:03.047,87497,),0,0,1
4:03.144,87532,(,0,0,2
4:03.258,87573,t,0,0,0
4:03.333,87600,),0,0,2
4:03.417,87630,(,0,0,0
4:03.453,87643,p,0,0,0
4:03.500,87660,),0,0,0
4:03.553,87679,(,0,0,1
4:03.592,87693,N,0,0,0
4:03.622,87704,),0,0,1
4:03.733,87744,(,0,0,2
4:03.831,87779,t,0,0,0
4:03.906,87806,),0,0,2
4:03.981,87833,(,0,0,1
4:04.072,87866,N,0,0,0
4:04.158,87897,),0,0,1
4:04.197,87911,(,0,0,2
4:04.264,87935,t,0,0,1
4:04.358,87969,),0,0,2
4:04.567,88044,(,0,0,0
4:04.603,88057,p,0,0,0
4:04.647,88073,),0,0,0
4:04.703,88093,(,0,0,1
4:04.739,88106,N,0,0,0
4:04.767,88116,),0,0,1
4:04.883,88158,(,0,0,2
4:04.978,88192,t,0,0,0
4:05.056,88220,),0,0,2
4:05.136,88249,(,0,0,0
4:05.169,88261,p,0,0,0
4:05.219,88279,),0,0,0
4:05.244,88288,(,0,0,1
4:05.297,88307,N,0,0,0
4:05.325,88317,),0,0,1
4:05.422,88352,(,0,0,2
4:05.508,88383,t,0,0,0
4:05.578,88408,),0,0,2
4:05.817,88494,(,0,0,1
4:05.831,88499,N,0,0,0
4:05.875,88515,),0,0,1
4:05.933,88536,(,0,0,2
4:05.994,88558,t,0,0,1
4:06.094,88594,),0,0,2
4:06.250,88650,(,0,0,0
4:06.294,88666,p,0,0,0
4:06.333,88680,),0,0,0
4:06.381,88697,(,0,0,1
4:06.425,88713,N,0,0,0
4:06.453,88723,),0,0,1
4:06.558,88761,(,0,0,2
4:06.650,88794,t,0,0,0
4:06.731,88823,),0,0,2
4:06.858,88869,(,0,0,0
4:06.889,88880,p,0,0,0
4:06.936,88897,),0,0,0
4:06.983,88914,(,0,0,1
4:07.022,88928,N,0,0,0
4:07.050,88938,),0,0,1
4:07.142,88971,(,0,0,2
4:07.233,89004,t,0,0,0
4:07.308,89031,),0,0,2
4:07.311,89032,(,0,0,0
4:07.328,89038,p,0,0,0
4:07.364,89051,),0,0,0
4:07.461,89086,(,0,0,1
4:07.578,89128,N,0,0,0
4:07.664,89159,),0,0,1
4:07.714,89177,(,0,0,2
4:07.767,89196,t,0,0,4
4:07.875,89235,t,0,0,4
4:07.906,89246,),0,0,2
4:08.078,89308,(,0,0,0
4:08.114,89321,p,0,0,0
4:08.153,89335,),0,0,0
4:08.200,89352,(,0,0,1
4:08.236,89365,N,0,0,0
4:08.261,89374,),0,0,1
4:08.331,89399,(,0,0,2
4:08.436,89437,t,0,0,0
4:08.511,89464,),0,0,2
4:08.636,89509,(,0,0,0
4:08.669,89521,p,0,0,0
4:08.708,89535,),0,0,0
4:08.728,89542,(,0,0,1
4:08.792,89565,N,0,0,0
4:08.822,89576,),0,0,1
4:08.900,89604,(,0,0,2
4:08.936,89617,t,0,0,1
4:09.031,89651,),0,0,2
4:09.125,89685,(,0,0,1
4:09.219,89719,N,0,0,0
4:09.303,89749,),0,0,1
4:09.344,89764,(,0,0,2
4:09.408,89787,t,0,0,1
4:09.508,89823,),0,0,2
4:09.822,89936,(,0,0,0
4:09.861,89950,p,0,0,0
4:09.903,89965,),0,0,0
4:09.947,89981,(,0,0,1
4:09.986,89995,N,0,0,0
4:10.014,90005,),0,0,1
4:10.131,90047,(,0,0,2
4:10.239,90086,t,0,0,0
4:10.325,90117,),0,0,2
4:10.414,90149,(,0,0,0
4:10.450,90162,p,0,0,0
4:10.497,90179,),0,0,0
4:10.528,90190,(,0,0,1
4:10.586,90211,N,0,0,0
4:10.617,90222,),0,0,1
4:10.767,90276,(,0,0,2
4:10.825,90297,t,0,0,0
4:10.881,90317,),0,0,2
4:10.958,90345,(,0,0,1
4:11.044,90376,N,0,0,0
4:11.133,90408,),0,0,1
4:11.175,90423,(,0,0,2
4:11.236,90445,t,0,0,1
4:11.339,90482,),0,0,2
4:11.592,90573,(,0,0,0
4:11.625,90585,p,0,0,0
4:11.664,90599,),0,0,0
4:11.714,90617,(,0,0,1
4:11.750,90630,N,0,0,0
4:11.775,90639,),0,0,1
4:11.872,90674,(,0,0,2
4:11.983,90714,t,0,0,0
4:12.061,90742,),0,0,2
4:12.142,90771,(,0,0,0
4:12.181,90785,p,0,0,0
4:12.225,90801,),0,0,0
4:12.281,90821,(,0,0,1
4:12.314,90833,N,0,0,0
4:12.339,90842,),0,0,1
4:12.406,90866,(,0,0,2
4:12.528,90910,t,0,0,0
4:12.603,90937,),0,0,2
4:12.683,90966,(,0,0,1
4:12.789,91004,N,0,0,0
4:12.872,91034,),0,0,1
4:12.911,91048,(,0,0,2
4:12.967,91068,t,0,0,1
4:13.067,91104,),0,0,2
4:13.231,91163,(,0,0,0
4:13.269,91177,p,0,0,0
4:13.311,91192,),0,0,0
4:13.361,91210,(,0,0,1
4:13.397,91223,N,0,0,0
4:13.422,91232,),0,0,1
4:13.525,91269,(,0,0,2
4:13.619,91303,t,0,0,0
4:13.697,91331,),0,0,2
4:13.792,91365,(,0,0,0
4:13.825,91377,p,0,0,0
4:13.875,91395,),0,0,0
4:13.922,91412,(,0,0,1
4:13.958,91425,N,0,0,0
4:13.986,91435,),0,0,1
4:14.094,91474,(,0,0,2
4:14.181,91505,t,0,0,0
4:14.256,91532,),0,0,2
4:14.364,91571,(,0,0,0
4:14.400,91584,p,0,0,0
4:14.442,91599,),0,0,0
4:14.478,91612,(,0,0,1
4:14.525,91629,N,0,0,0
4:14.553,91639,),0,0,1
4:14.650,91674,(,0,0,2
4:14.742,91707,t,0,0,0
4:14.822,91736,),0,0,2
4:14.950,91782,(,0,0,0
4:14.986,91795,p,0,0,0
4:15.036,91813,),0,0,0
4:15.083,91830,(,0,0,1
4:15.119,91843,N,0,0,0
4:15.147,91853,),0,0,1
4:15.247,91889,(,0,0,2
4:15.342,91923,t,0,0,0
4:15.419,91951,),0,0,2
4:15.533,91992,(,0,0,0
4:15.572,92006,p,0,0,0
4:15.611,92020,),0,0,0
4:15.664,92039,(,0,0,1
4:15.703,92053,N,0,0,0
4:15.731,92063,),0,0,1
4:15.844,92104,(,0,0,2
4:15.933,92136,t,0,0,0
4:16.014,92165,),0,0,2
4:16.025,92169,(,0,0,0
4:16.069,92185,p,0,0,0
4:16.183,92226,),0,0,0
4:16.222,92240,(,0,0,1
4:16.317,92274,N,0,0,0
4:16.356,92288,),0,0,1
4:16.431,92315,(,0,0,2
4:16.483,92334,t,0,0,1
4:16.583,92370,),0,0,2
4:16.689,92408,(,0,0,1
4:16.806,92450,N,0,0,0
4:16.892,92481,),0,0,1
4:16.942,92499,(,0,0,2
4:16.997,92519,t,0,0,1
4:17.097,92555,),0,0,2
4:17.400,92664,(,0,0,0
4:17.439,92678,p,0,0,0
4:17.481,92693,),0,0,0
4:17.525,92709,(,0,0,1
4:17.561,92722,N,0,0,0
4:17.589,92732,),0,0,1
4:17.703,92773,(,0,0,2
4:17.806,92810,t,0,0,0
4:17.886,92839,),0,0,2
4:17.889,92840,(,0,0,0
4:17.964,92867,p,0,0,0
4:18.014,92885,),0,0,0
4:18.058,92901,(,0,0,1
4:18.142,92931,N,0,0,0
4:18.181,92945,),0,0,1
4:18.261,92974,(,0,0,2
4:18.308,92991,t,0,0,1
4:18.411,93028,),0,0,2
4:18.494,93058,(,0,0,1
4:18.583,93090,N,0,0,0
4:18.664,93119,),0,0,1
4:18.706,93134,(,0,0,2
4:18.767,93156,t,0,0,1
4:18.869,93193,),0,0,2
4:19.142,93291,(,0,0,0
4:19.178,93304,p,0,0,0
4:19.222,93320,),0,0,0
4:19.264,93335,(,0,0,1
4:19.297,93347,N,0,0,0
4:19.322,93356,),0,0,1
4:19.417,93390,(,0,0,2
4:19.528,93430,t,0,0,0
4:19.603,93457,),0,0,2
4:19.678,93484,(,0,0,0
4:19.714,93497,p,0,0,0
4:19.761,93514,),0,0,0
4:19.792,93525,(,0,0,1
4:19.839,93542,N,0,0,0
4:19.869,93553,),0,0,1
4:19.986,93595,(,0,0,2
4:20.056,93620,t,0,0,0
4:20.122,93644,),0,0,2
4:20.158,93657,(,0,0,1
4:20.264,93695,N,0,0,0
4:20.333,93720,),0,0,1
4:20.375,93735,(,0,0,2
4:20.425,93753,t,0,0,1
4:20.531,93791,),0,0,2
4:20.725,93861,(,0,0,0
4:20.769,93877,p,0,0,0
4:20.806,93890,),0,0,0
4:20.858,93909,(,0,0,1
4:20.897,93923,N,0,0,0
4:20.928,93934,),0,0,1
4:21.042,93975,(,0,0,2
4:21.136,94009,t,0,0,0
4:21.222,94040,),0,0,2
4:21.292,94065,(,0,0,0
4:21.331,94079,p,0,0,0
4:21.381,94097,),0,0,0
4:21.436,94117,(,0,0,1
4:21.469,94129,N,0,0,0
4:21.497,94139,),0,0,1
4:21.592,94173,(,0,0,2
4:21.706,94214,t,0,0,0
4:21.786,94243,),0,0,2
4:21.933,94296,(,0,0,1
4:22.008,94323,N,0,0,0
4:22.072,94346,),0,0,1
4:22.128,94366,(,0,0,2
4:22.200,94392,t,0,0,1
4:22.294,94426,),0,0,2
4:22.425,94473,(,0,0,0
4:22.469,94489,p,0,0,0
4:22.514,94505,),0,0,0
4:22.567,94524,(,0,0,1
4:22.600,94536,N,0,0,0
4:22.628,94546,),0,0,1
4:22.744,94588,(,0,0,2
4:22.825,94617,t,0,0,0
4:22.903,94645,),0,0,2
4:22.981,94673,(,0,0,0
4:23.017,94686,p,0,0,0
4:23.064,94703,),0,0,0
4:23.092,94713,(,0,0,1
4:23.144,94732,N,0,0,0
4:23.172,94742,),0,0,1
4:23.272,94778,(,0,0,2
4:23.364,94811,t,0,0,0
4:23.436,94837,),0,0,2
4:23.542,94875,(,0,0,0
4:23.575,94887,p,0,0,0
4:23.614,94901,),0,0,0
4:23.631,94907,(,0,0,1
4:23.700,94932,N,0,0,0
4:23.733,94944,),0,0,1
4:23.817,94974,(,0,0,2
4:23.839,94982,t,0,0,1
4:23.933,95016,),0,0,2
4:24.072,95066,(,0,0,1
4:24.161,95098,N,0,0,0
4:24.247,95129,),0,0,1
4:24.281,95141,(,0,0,2
4:24.353,95167,t,0,0,1
4:24.450,95202,),0,0,2
4:24.722,95300,(,0,0,0
4:24.758,95313,p,0,0,0
4:24.800,95328,),0,0,0
4:24.844,95344,(,0,0,1
4:24.878,95356,N,0,0,0
4:24.906,95366,),0,0,1
4:25.008,95403,(,0,0,2
4:25.117,95442,t,0,0,0
4:25.197,95471,),0,0,2
4:25.281,95501,(,0,0,0
4:25.314,95513,p,0,0,0
4:25.356,95528,),0,0,0
4:25.389,95540,(,0,0,1
4:25.439,95558,N,0,0,0
4:25.467,95568,),0,0,1
4:25.600,95616,(,0,0,2
4:25.669,95641,t,0,0,0
4:25.722,95660,),0,0,2
4:25.797,95687,(,0,0,1
4:25.878,95716,N,0,0,0
4:25.964,95747,),0,0,1
4:26.003,95761,(,0,0,2
4:26.067,95784,t,0,0,1
4:26.164,95819,),0,0,2
4:26.369,95893,(,0,0,0
4:26.406,95906,p,0,0,0
4:26.442,95919,),0,0,0
4:26.489,95936,(,0,0,1
4:26.525,95949,N,0,0,0
4:26.553,95959,),0,0,1
4:26.658,95997,(,0,0,2
4:26.753,96031,t,0,0,0
4:26.833,96060,),0,0,2
4:26.914,96089,(,0,0,0
4:26.953,96103,p,0,0,0
4:27.003,96121,),0,0,0
4:27.053,96139,(,0,0,1
4:27.089,96152,N,0,0,0
4:27.117,96162,),0,0,1
4:27.228,96202,(,0,0,2
4:27.308,96231,t,0,0,0
4:27.389,96260,),0,0,2
4:27.481,96293,(,0,0,1
4:27.603,96337,N,0,0,0
4:27.689,96368,),0,0,1
4:27.736,96385,(,0,0,2
4:27.794,96406,t,0,0,1
4:27.897,96443,),0,0,2
4:28.075,96507,(,0,0,0
4:28.117,96522,p,0,0,0
4:28.161,96538,),0,0,0
4:28.217,96558,(,0,0,1
4:28.253,96571,N,0,0,0
4:28.278,96580,),0,0,1
4:28.403,96625,(,0,0,2
4:28.492,96657,t,0,0,0
4:28.575,96687,),0,0,2
4:28.675,96723,(,0,0,0
4:28.711,96736,p,0,0,0
4:28.761,96754,),0,0,0
4:28.817,96774,(,0,0,1
4:28.853,96787,N,0,0,0
4:28.881,96797,),0,0,1
4:28.986,96835,(,0,0,2
4:29.086,96871,t,0,0,0
4:29.164,96899,),0,0,2
4:29.167,96900,(,0,0,0
4:29.189,96908,p,0,0,0
4:29.317,96954,),0,0,0
4:29.361,96970,(,0,0,1
4:29.444,97000,N,0,0,0
4:29.481,97013,),0,0,1
4:29.553,97039,(,0,0,2
4:29.594,97054,t,0,0,1
4:29.692,97089,),0,0,2
4:29.789,97124,(,0,0,1
4:29.903,97165,N,0,0,0
4:29.994,97198,),0,0,1
4:30.031,97211,(,0,0,2
4:30.094,97234,t,0,0,1
4:30.186,97267,),0,0,2
4:30.564,97403,(,0,0,0
4:30.597,97415,p,0,0,0
4:30.647,97433,),0,0,0
4:30.694,97450,(,0,0,1
4:30.728,97462,N,0,0,0
4:30.756,97472,),0,0,1
4:30.864,97511,(,0,0,2
4:30.967,97548,t,0,0,0
4:31.042,97575,),0,0,2
4:31.136,97609,(,0,0,1
4:31.264,97655,N,0,0,0
4:31.344,97684,),0,0,1
4:31.369,97693,(,0,0,2
4:31.397,97703,t,0,0,1
4:31.425,97713,),0,0,2
4:31.431,97715,(,0,0,0
4:31.444,97720,p,0,0,0
4:31.533,97752,),0,0,0
4:31.622,97784,(,0,0,1
4:31.708,97815,N,0,0,0
4:31.789,97844,),0,0,1
4:31.794,97846,(,0,0,2
4:31.886,97879,t,0,0,1
4:31.972,97910,),0,0,2
4:32.350,98046,(,0,0,0
4:32.383,98058,p,0,0,0
4:32.431,98075,),0,0,0
4:32.472,98090,(,0,0,1
4:32.506,98102,N,0,0,0
4:32.533,98112,),0,0,1
4:32.636,98149,(,0,0,2
4:32.744,98188,t,0,0,0
4:32.819,98215,),0,0,2
4:32.981,98273,(,0,0,1
4:33.083,98310,N,0,0,0
4:33.125,98325,),0,0,1
4:33.203,98353,(,0,0,2
4:33.256,98372,t,0,0,1
4:33.358,98409,),0,0,2
4:33.458,98445,(,0,0,1
4:33.553,98479,N,0,0,0
4:33.644,98512,),0,0,1
4:33.675,98523,(,0,0,2
4:33.750,98550,t,0,0,1
4:33.853,98587,),0,0,2
4:34.122,98684,(,0,0,0
4:34.167,98700,p,0,0,0
4:34.206,98714,),0,0,0
4:34.261,98734,(,0,0,1
4:34.297,98747,N,0,0,0
4:34.328,98758,),0,0,1
4:34.444,98800,(,0,0,2
4:34.539,98834,t,0,0,0
4:34.619,98863,),0,0,2
4:34.700,98892,(,0,0,0
4:34.736,98905,p,0,0,0
4:34.786,98923,),0,0,0
4:34.828,98938,(,0,0,1
4:34.869,98953,N,0,0,0
4:34.897,98963,),0,0,1
4:35.022,99008,(,0,0,2
4:35.094,99034,t,0,0,0
4:35.169,99061,),0,0,2
4:35.217,99078,(,0,0,1
4:35.317,99114,N,0,0,0
4:35.400,99144,),0,0,1
4:35.456,99164,(,0,0,2
4:35.503,99181,t,0,0,1
4:35.600,99216,),0,0,2
4:38.267   100176,(,0,0,1
4:38.422   100232,N,0,0,0
4:38.489   100256,),0,0,1
4:38.647   100313,(,0,0,2
4:38.708   100335,t,0,0,5
4:38.903   100405,t,0,0,5
4:39.011   100444,),0,0,2
4:39.472   100610,(,0,0,1
4:39.586   100651,N,0,0,0
4:39.650   100674,),0,0,1
4:39.875   100755,),0,0,2
4:39.900   100764,t,0,0,0
4:39.925   100773,(,0,0,2
4:40.072   100826,(,0,0,1
4:40.200   100872,N,0,0,0
4:40.325   100917,),0,0,1
4:40.419   100951,(,0,0,1
4:40.500   100980,N,0,0,0
4:40.542   100995,),0,0,1
4:41.208   101235,(,0,0,2
4:41.239   101246,t,0,0,0
4:41.278   101260,),0,0,2
4:42.936   101857,(,0,0,1
4:42.969   101869,N,0,0,0
4:43.008   101883,),0,0,1
4:43.514   102065,(,0,0,2
4:43.547   102077,t,0,0,0
4:43.592   102093,),0,0,2
4:46.322   103076,(,0,0,1
4:46.364   103091,N,0,0,0
4:46.417   103110,),0,0,1
4:46.886   103279,(,0,0,2
4:46.917   103290,t,0,0,0
4:46.958   103305,),0,0,2
4:47.881   103637,(,0,0,1
4:47.950   103662,N,0,0,0
4:48.067   103704,),0,0,1
4:48.667   103920,(,0,0,2
4:48.694   103930,t,0,0,0
4:48.733   103944,),0,0,2
4:49.619   104263,(,0,0,1
4:49.686   104287,N,0,0,0
4:49.819   104335,),0,0,1
4:50.331   104519,(,0,0,2
4:50.361   104530,t,0,0,0
4:50.400   104544,),0,0,2
4:51.419   104911,(,0,0,1
4:51.494   104938,N,0,0,0
4:51.511   104944,),0,0,1
4:51.606   104978,(,0,0,2
4:51.689   105008,t,0,0,1
4:51.797   105047,),0,0,2
4:52.089   105152,(,0,0,1
4:52.122   105164,N,0,0,0
4:52.167   105180,),0,0,1
4:52.669   105361,(,0,0,2
4:52.700   105372,t,0,0,0
4:52.742   105387,),0,0,2
4:53.286   105583,(,0,0,1
4:53.306   105590,N,0,0,0
4:53.369   105613,),0,0,1
4:53.664   105719,(,0,0,2
4:53.733   105744,t,0,0,0
4:53.856   105788,),0,0,2
4:55.036   106213,(,0,0,1
4:55.128   106246,N,0,0,0
4:55.172   106262,),0,0,1
4:55.239   106286,(,0,0,2
4:55.306   106310,t,0,0,1
4:55.408   106347,),0,0,2
4:55.489   106376,(,0,0,1
4:55.564   106403,N,0,0,0
4:55.683   106446,),0,0,1
4:56.244   106648,(,0,0,2
4:56.275   106659,t,0,0,0
4:56.317   106674,),0,0,2
4:57.189   106988,(,0,0,1
4:57.267   107016,N,0,0,0
4:57.369   107053,),0,0,1
4:57.914   107249,(,0,0,2
4:57.944   107260,t,0,0,0
4:57.983   107274,),0,0,2
5:01.253   108451,(,0,0,1
5:01.331   108479,N,0,0,0
5:01.450   108522,),0,0,1
5:02.086   108751,(,0,0,2
5:02.119   108763,t,0,0,0
5:02.158   108777,),0,0,2
5:02.581   108929,(,0,0,1
5:02.653   108955,N,0,0,0
5:02.783   109002,),0,0,1
5:03.064   109103,(,0,0,2
5:03.131   109127,t,0,0,0
5:03.256   109172,),0,0,2
5:04.972   109790,(,0,0,1
5:05.044   109816,N,0,0,0
5:05.167   109860,),0,0,1
5:05.700   110052,(,0,0,2
5:05.733   110064,t,0,0,0
5:05.775   110079,),0,0,2
5:06.714   110417,(,0,0,1
5:06.789   110444,N,0,0,0
5:06.900   110484,),0,0,1
5:07.406   110666,(,0,0,2
5:07.436   110677,t,0,0,0
5:07.475   110691,),0,0,2
5:08.386   111019,(,0,0,1
5:08.461   111046,N,0,0,0
5:08.489   111056,),0,0,1
5:09.156   111296,(,0,0,2
5:09.189   111308,t,0,0,0
5:09.228   111322,),0,0,2
5:10.189   111668,(,0,0,1
5:10.264   111695,N,0,0,0
5:10.383   111738,),0,0,1
5:11.011   111964,(,0,0,2
5:11.042   111975,t,0,0,0
5:11.083   111990,),0,0,2
5:13.750   112950,(,0,0,1
5:13.825   112977,N,0,0,0
5:13.864   112991,),0,0,1
5:14.411   113188,(,0,0,2
5:14.442   113199,t,0,0,0
5:14.483   113214,),0,0,2
5:15.442   113559,(,0,0,1
5:15.528   113590,N,0,0,0
5:15.650   113634,),0,0,1
5:16.200   113832,(,0,0,2
5:16.233   113844,t,0,0,0
5:16.272   113858,),0,0,2
5:19.064   114863,(,0,0,1
5:19.144   114892,N,0,0,0
5:19.264   114935,),0,0,1
5:19.733   115104,(,0,0,2
5:19.764   115115,t,0,0,0
5:19.803   115129,),0,0,2
5:27.983   118074,(,0,0,1
5:28.072   118106,N,0,0,0
5:28.197   118151,),0,0,1
5:28.711   118336,(,0,0,2
5:28.742   118347,t,0,0,0
5:28.783   118362,),0,0,2
5:33.678   120124,(,0,0,1
5:33.744   120148,N,0,0,0
5:33.783   120162,),0,0,1
5:34.433   120396,(,0,0,2
5:34.467   120408,t,0,0,0
5:34.503   120421,),0,0,2
5:36.617   121182,(,0,0,1
5:36.656   121196,N,0,0,0
5:36.697   121211,),0,0,1
5:37.139   121370,(,0,0,2
5:37.169   121381,t,0,0,0
5:37.206   121394,),0,0,2
5:37.556   121520,(,0,0,1
5:37.622   121544,N,0,0,0
5:37.728   121582,),0,0,1
5:38.169   121741,(,0,0,2
5:38.203   121753,t,0,0,0
5:38.242   121767,),0,0,2
5:39.231   122123,(,0,0,1
5:39.267   122136,N,0,0,0
5:39.311   122152,),0,0,1
5:39.703   122293,(,0,0,2
5:39.764   122315,t,0,0,0
5:39.869   122353,),0,0,2
5:40.900   122724,(,0,0,1
5:40.942   122739,N,0,0,0
5:40.981   122753,),0,0,1
5:41.450   122922,(,0,0,2
5:41.483   122934,t,0,0,0
5:41.522   122948,),0,0,2
5:48.547   125477,(,0,0,1
5:48.575   125487,N,0,0,0
5:48.614   125501,),0,0,1
5:48.703   125533,(,0,0,2
5:48.808   125571,t,0,0,0
5:48.886   125599,),0,0,2
5:49.067   125664,(,0,0,1
5:49.100   125676,N,0,0,0
5:49.131   125687,),0,0,1
5:49.581   125849,(,0,0,2
5:49.611   125860,t,0,0,0
5:49.658   125877,),0,0,2
5:50.586   126211,(,0,0,1
5:50.664   126239,N,0,0,0
5:50.689   126248,),0,0,1
5:50.786   126283,(,0,0,2
5:50.819   126295,t,0,0,0
5:50.853   126307,),0,0,2
5:51.164   126419,(,0,0,1
5:51.189   126428,N,0,0,0
5:51.228   126442,),0,0,1
5:51.356   126488,(,0,0,2
5:51.442   126519,t,0,0,0
5:51.483   126534,),0,0,2
5:51.714   126617,(,0,0,1
5:51.731   126623,N,0,0,0
5:51.856   126668,),0,0,1
5:52.167   126780,(,0,0,2
5:52.206   126794,t,0,0,4
5:52.261   126814,t,0,0,4
5:52.294   126826,),0,0,2
5:52.767   126996,(,0,0,1
5:52.797   127007,N,0,0,0
5:52.861   127030,),0,0,1
5:53.297   127187,(,0,0,2
5:53.331   127199,t,0,0,0
5:53.369   127213,),0,0,2
5:54.328   127558,(,0,0,1
5:54.361   127570,N,0,0,0
5:54.397   127583,),0,0,1
5:54.836   127741,(,0,0,2
5:54.867   127752,t,0,0,0
5:54.906   127766,),0,0,2
5:55.347   127925,(,0,0,1
5:55.389   127940,N,0,0,0
5:55.447   127961,),0,0,1
5:55.794   128086,(,0,0,2
5:55.847   128105,t,0,0,5
5:56.039   128174,t,0,0,5
5:56.139   128210,),0,0,2
5:56.878   128476,(,0,0,1
5:56.919   128491,N,0,0,0
5:56.958   128505,),0,0,1
5:57.444   128680,(,0,0,2
5:57.486   128695,t,0,0,0
5:57.533   128712,),0,0,2
6:00.197   129671,(,0,0,1
6:00.231   129683,N,0,0,0
6:00.325   129717,),0,0,1
6:00.419   129751,(,0,0,2
6:00.456   129764,t,0,0,5
6:00.508   129783,t,0,0,5
6:00.556   129800,),0,0,2
6:00.689   129848,(,0,0,1
6:00.756   129872,N,0,0,0
6:00.781   129881,),0,0,1
6:00.981   129953,(,0,0,2
6:01.039   129974,t,0,0,4
6:01.261   130054,t,0,0,4
6:01.294   130066,),0,0,2
6:02.267   130416,(,0,0,1
6:02.294   130426,N,0,0,0
6:02.328   130438,),0,0,1
6:02.772   130598,(,0,0,2
6:02.803   130609,t,0,0,0
6:02.847   130625,),0,0,2
6:04.878   131356,(,0,0,1
6:04.914   131369,N,0,0,0
6:04.942   131379,),0,0,1
6:05.025   131409,(,0,0,2
6:05.147   131453,t,0,0,0
6:05.206   131474,),0,0,2
6:05.372   131534,(,0,0,1
6:05.456   131564,N,0,0,0
6:05.497   131579,),0,0,1
6:05.867   131712,(,0,0,2
6:05.931   131735,t,0,0,5
6:06.117   131802,t,0,0,5
6:06.269   131857,),0,0,2
6:06.939   132098,(,0,0,1
6:06.969   132109,N,0,0,0
6:06.997   132119,),0,0,1
6:07.117   132162,(,0,0,2
6:07.192   132189,t,0,0,0
6:07.222   132200,),0,0,2
6:07.428   132274,(,0,0,1
6:07.467   132288,N,0,0,0
6:07.528   132310,),0,0,1
6:07.878   132436,(,0,0,2
6:07.944   132460,t,0,0,0
6:07.994   132478,),0,0,2
6:08.375   132615,(,0,0,1
6:08.414   132629,N,0,0,0
6:08.450   132642,),0,0,1
6:08.875   132795,(,0,0,2
6:08.906   132806,t,0,0,0
6:08.947   132821,),0,0,2
6:09.914   133169,(,0,0,1
6:09.942   133179,N,0,0,0
6:09.992   133197,),0,0,1
6:10.114   133241,(,0,0,2
6:10.172   133262,t,0,0,0
6:10.278   133300,),0,0,2
6:10.414   133349,(,0,0,1
6:10.456   133364,N,0,0,0
6:10.511   133384,),0,0,1
6:10.889   133520,(,0,0,2
6:10.919   133531,t,0,0,4
6:11.000   133560,t,0,0,4
6:11.044   133576,),0,0,2
6:11.492   133737,(,0,0,1
6:11.533   133752,N,0,0,0
6:11.578   133768,),0,0,1
6:12.086   133951,(,0,0,2
6:12.117   133962,t,0,0,5
6:12.175   133983,t,0,0,5
6:12.289   134024,),0,0,2
6:13.661   134518,(,0,0,1
6:13.689   134528,N,0,0,0
6:13.731   134543,),0,0,1
6:14.153   134695,(,0,0,2
6:14.186   134707,t,0,0,0
6:14.239   134726,),0,0,2
6:16.956   135704,(,0,0,1
6:16.986   135715,N,0,0,0
6:17.014   135725,),0,0,1
6:17.547   135917,(,0,0,2
6:17.578   135928,t,0,0,0
6:17.617   135942,),0,0,2
6:21.089   137192,(,0,0,1
6:21.119   137203,N,0,0,0
6:21.144   137212,),0,0,1
6:21.572   137366,(,0,0,2
6:21.644   137392,t,0,0,5
6:21.842   137463,t,0,0,5
6:21.942   137499,),0,0,2
6:26.211   139036,(,0,0,1
6:26.244   139048,N,0,0,0
6:26.275   139059,),0,0,1
6:26.747   139229,(,0,0,2
6:26.781   139241,t,0,0,0
6:26.825   139257,),0,0,2
6:28.028   139690,(,0,0,1
6:28.067   139704,N,0,0,0
6:28.108   139719,),0,0,1
6:28.189   139748,(,0,0,2
6:28.308   139791,t,0,0,0
6:28.389   139820,),0,0,2
6:28.625   139905,(,0,0,1
6:28.667   139920,N,0,0,0
6:28.708   139935,),0,0,1
6:29.128   140086,(,0,0,2
6:29.192   140109,t,0,0,5
6:29.375   140175,t,0,0,5
6:29.469   140209,),0,0,2
6:29.803   140329,(,0,0,1
6:29.831   140339,N,0,0,0
6:29.872   140354,),0,0,1
6:29.983   140394,(,0,0,2
6:30.053   140419,t,0,0,0
6:30.136   140449,),0,0,2
6:30.392   140541,(,0,0,1
6:30.422   140552,N,0,0,0
6:30.461   140566,),0,0,1
6:30.939   140738,(,0,0,2
6:30.981   140753,t,0,0,0
6:31.025   140769,),0,0,2
6:32.178   141184,(,0,0,1
6:32.217   141198,N,0,0,0
6:32.256   141212,),0,0,1
6:32.653   141355,(,0,0,2
6:32.683   141366,t,0,0,1
6:32.839   141422,),0,0,2
6:33.389   141620,(,0,0,1
6:33.419   141631,N,0,0,0
6:33.458   141645,),0,0,1
6:33.539   141674,(,0,0,2
6:33.661   141718,t,0,0,0
6:33.753   141751,),0,0,2
6:33.975   141831,(,0,0,1
6:34.006   141842,N,0,0,0
6:34.072   141866,),0,0,1
6:34.153   141895,(,0,0,2
6:34.236   141925,t,0,0,0
6:34.319   141955,),0,0,2
6:34.578   142048,(,0,0,1
6:34.608   142059,N,0,0,0
6:34.678   142084,),0,0,1
6:35.022   142208,(,0,0,2
6:35.086   142231,t,0,0,0
6:35.189   142268,),0,0,2
6:36.958   142905,(,0,0,1
6:36.992   142917,N,0,0,0
6:37.031   142931,),0,0,1
6:37.511   143104,(,0,0,2
6:37.542   143115,t,0,0,0
6:37.581   143129,),0,0,2
6:38.069   143305,(,0,0,1
6:38.097   143315,N,0,0,0
6:38.122   143324,),0,0,1
6:38.483   143454,(,0,0,2
6:38.550   143478,t,0,0,5
6:38.747   143549,t,0,0,5
6:38.844   143584,),0,0,2
6:39.247   143729,(,0,0,1
6:39.278   143740,N,0,0,0
6:39.306   143750,),0,0,1
6:39.864   143951,(,0,0,2
6:39.894   143962,t,0,0,0
6:39.933   143976,),0,0,2
6:40.431   144155,(,0,0,1
6:40.519   144187,N,0,0,0
6:40.603   144217,),0,0,1
6:40.908   144327,(,0,0,2
6:40.975   144351,t,0,0,5
6:41.164   144419,t,0,0,5
6:41.258   144453,),0,0,2
6:41.775   144639,(,0,0,1
6:41.806   144650,N,0,0,0
6:41.833   144660,),0,0,1
6:41.931   144695,(,0,0,2
6:42.042   144735,t,0,0,0
6:42.131   144767,),0,0,2
6:42.356   144848,(,0,0,1
6:42.422   144872,N,0,0,0
6:42.506   144902,),0,0,1
6:42.794   145006,(,0,0,2
6:42.864   145031,t,0,0,5
6:43.033   145092,t,0,0,5
6:43.136   145129,),0,0,2
6:43.639   145310,(,0,0,1
6:43.669   145321,N,0,0,0
6:43.708   145335,),0,0,1
6:43.794   145366,(,0,0,2
6:43.889   145400,t,0,0,0
6:43.969   145429,),0,0,2
6:44.192   145509,(,0,0,1
6:44.222   145520,N,0,0,0
6:44.256   145532,),0,0,1
6:44.578   145648,(,0,0,2
6:44.636   145669,t,0,0,0
6:44.733   145704,),0,0,2
6:45.358   145929,(,0,0,1
6:45.397   145943,N,0,0,0
6:45.439   145958,),0,0,1
6:45.536   145993,(,0,0,2
6:45.631   146027,t,0,0,0
6:45.719   146059,),0,0,2
6:45.953   146143,(,0,0,1
6:45.989   146156,N,0,0,0
6:46.028   146170,),0,0,1
6:46.125   146205,(,0,0,2
6:46.217   146238,t,0,0,0
6:46.308   146271,),0,0,2
6:46.525   146349,(,0,0,1
6:46.583   146370,N,0,0,0
6:46.619   146383,),0,0,1
6:47.008   146523,(,0,0,2
6:47.072   146546,t,0,0,5
6:47.258   146613,t,0,0,5
6:47.364   146651,),0,0,2
6:47.808   146811,(,0,0,1
6:47.847   146825,N,0,0,0
6:47.889   146840,),0,0,1
6:47.994   146878,(,0,0,2
6:48.081   146909,t,0,0,0
6:48.167   146940,),0,0,2
6:48.392   147021,(,0,0,1
6:48.428   147034,N,0,0,0
6:48.469   147049,),0,0,1
6:48.886   147199,(,0,0,2
6:48.950   147222,t,0,0,5
6:49.139   147290,t,0,0,5
6:49.228   147322,),0,0,2
6:49.558   147441,(,0,0,1
6:49.597   147455,N,0,0,0
6:49.639   147470,),0,0,1
6:49.728   147502,(,0,0,2
6:49.825   147537,t,0,0,0
6:49.917   147570,),0,0,2
6:50.175   147663,(,0,0,1
6:50.211   147676,N,0,0,0
6:50.250   147690,),0,0,1
6:50.325   147717,(,0,0,2
6:50.403   147745,t,0,0,0
6:50.478   147772,),0,0,2
6:50.667   147840,(,0,0,1
6:50.789   147884,N,0,0,0
6:50.872   147914,),0,0,1
6:51.200   148032,(,0,0,2
6:51.264   148055,t,0,0,5
6:51.450   148122,t,0,0,5
6:51.550   148158,),0,0,2
6:52.106   148358,(,0,0,1
6:52.142   148371,N,0,0,0
6:52.183   148386,),0,0,1
6:52.289   148424,(,0,0,2
6:52.389   148460,t,0,0,0
6:52.481   148493,),0,0,2
6:52.642   148551,(,0,0,1
6:52.767   148596,N,0,0,0
6:52.836   148621,),0,0,1
6:53.150   148734,(,0,0,2
6:53.217   148758,t,0,0,5
6:53.403   148825,t,0,0,5
6:53.506   148862,),0,0,2
6:53.989   149036,(,0,0,1
6:54.019   149047,N,0,0,0
6:54.069   149065,),0,0,1
6:54.583   149250,(,0,0,2
6:54.622   149264,t,0,0,0
6:54.667   149280,),0,0,2
6:55.722   149660,(,0,0,1
6:55.764   149675,N,0,0,0
6:55.803   149689,),0,0,1
6:56.267   149856,(,0,0,2
6:56.297   149867,t,0,0,0
6:56.336   149881,),0,0,2
6:57.489   150296,(,0,0,1
6:57.528   150310,N,0,0,0
6:57.569   150325,),0,0,1
6:57.664   150359,(,0,0,2
6:57.758   150393,t,0,0,0
6:57.850   150426,),0,0,2
6:58.092   150513,(,0,0,1
6:58.136   150529,N,0,0,0
6:58.175   150543,),0,0,1
6:58.661   150718,(,0,0,2
6:58.744   150748,t,0,0,0
6:58.806   150770,),0,0,2
7:01.456   151724,(,0,0,1
7:01.489   151736,N,0,0,0
7:01.531   151751,),0,0,1
7:01.636   151789,(,0,0,2
7:01.719   151819,t,0,0,0
7:01.814   151853,),0,0,2
7:02.072   151946,(,0,0,1
7:02.106   151958,N,0,0,0
7:02.144   151972,),0,0,1
7:02.244   152008,(,0,0,2
7:02.303   152029,t,0,0,0
7:02.381   152057,),0,0,2
7:02.553   152119,(,0,0,1
7:02.675   152163,N,0,0,0
7:02.753   152191,),0,0,1
7:03.103   152317,(,0,0,2
7:03.169   152341,t,0,0,0
7:03.261   152374,),0,0,2
7:04.039   152654,(,0,0,1
7:04.072   152666,N,0,0,0
7:04.122   152684,),0,0,1
7:04.608   152859,(,0,0,2
7:04.681   152885,t,0,0,0
7:04.772   152918,),0,0,2
7:05.972   153350,(,0,0,1
7:06.003   153361,N,0,0,0
7:06.042   153375,),0,0,1
7:06.536   153553,(,0,0,2
7:06.578   153568,t,0,0,0
7:06.625   153585,),0,0,2
7:07.786   154003,(,0,0,1
7:07.817   154014,N,0,0,0
7:07.853   154027,),0,0,1
7:08.319   154195,(,0,0,2
7:08.372   154214,t,0,0,0
7:08.419   154231,),0,0,2
7:09.703   154693,(,0,0,1
7:09.733   154704,N,0,0,0
7:09.772   154718,),0,0,1
7:10.253   154891,(,0,0,2
7:10.342   154923,t,0,0,0
7:10.408   154947,),0,0,2
7:11.622   155384,(,0,0,1
7:11.656   155396,N,0,0,0
7:11.689   155408,),0,0,1
7:12.219   155599,(,0,0,2
7:12.269   155617,t,0,0,0
7:12.317   155634,),0,0,2
7:13.472   156050,(,0,0,1
7:13.503   156061,N,0,0,0
7:13.536   156073,),0,0,1
7:13.644   156112,(,0,0,2
7:13.725   156141,t,0,0,0
7:13.811   156172,),0,0,2
7:14.022   156248,(,0,0,1
7:14.064   156263,N,0,0,0
7:14.103   156277,),0,0,1
7:14.417   156390,(,0,0,2
7:14.472   156410,t,0,0,0
7:14.581   156449,),0,0,2
7:15.222   156680,(,0,0,1
7:15.261   156694,N,0,0,0
7:15.303   156709,),0,0,1
7:15.375   156735,(,0,0,2
7:15.497   156779,t,0,0,0
7:15.603   156817,),0,0,2
7:15.839   156902,(,0,0,1
7:15.900   156924,N,0,0,0
7:15.939   156938,),0,0,1
7:16.300   157068,(,0,0,2
7:16.367   157092,t,0,0,0
7:16.461   157126,),0,0,2
7:17.789   157604,(,0,0,1
7:17.850   157626,N,0,0,0
7:17.936   157657,),0,0,1
7:18.219   157759,(,0,0,2
7:18.281   157781,t,0,0,0
7:18.375   157815,),0,0,2
7:19.644   158272,(,0,0,1
7:19.711   158296,N,0,0,0
7:19.786   158323,),0,0,1
7:20.075   158427,(,0,0,2
7:20.136   158449,t,0,0,0
7:20.222   158480,),0,0,2
7:21.456   158924,(,0,0,1
7:21.531   158951,N,0,0,0
7:21.603   158977,),0,0,1
7:21.925   159093,(,0,0,2
7:21.992   159117,t,0,0,0
7:22.086   159151,),0,0,2
7:25.303   160309,(,0,0,1
7:25.419   160351,N,0,0,0
7:25.500   160380,),0,0,1
7:25.775   160479,(,0,0,2
7:25.842   160503,t,0,0,0
7:25.931   160535,),0,0,2
7:27.208   160995,(,0,0,1
7:27.297   161027,N,0,0,0
7:27.369   161053,),0,0,1
7:27.706   161174,(,0,0,2
7:27.775   161199,t,0,0,0
7:27.869   161233,),0,0,2
7:29.164   161699,(,0,0,1
7:29.231   161723,N,0,0,0
7:29.303   161749,),0,0,1
7:29.614   161861,(,0,0,2
7:29.681   161885,t,0,0,0
7:29.775   161919,),0,0,2
7:30.989   162356,(,0,0,1
7:31.056   162380,N,0,0,0
7:31.119   162403,),0,0,1
7:31.431   162515,(,0,0,2
7:31.489   162536,t,0,0,0
7:31.581   162569,),0,0,2
7:34.797   163727,(,0,0,1
7:34.881   163757,N,0,0,0
7:34.969   163789,),0,0,1
7:35.289   163904,(,0,0,2
7:35.353   163927,t,0,0,0
7:35.447   163961,),0,0,2
7:36.636   164389,(,0,0,1
7:36.714   164417,N,0,0,0
7:36.786   164443,),0,0,1
7:37.089   164552,(,0,0,2
7:37.150   164574,t,0,0,0
7:37.239   164606,),0,0,2
7:38.419   165031,(,0,0,1
7:38.467   165048,N,0,0,0
7:38.536   165073,),0,0,1
7:38.864   165191,(,0,0,2
7:38.925   165213,t,0,0,0
7:39.025   165249,),0,0,2
8:04.261   174334,(,0,0,1
8:04.347   174365,N,0,0,0
8:04.433   174396,),0,0,1
8:04.761   174514,(,0,0,2
8:04.825   174537,t,0,0,0
8:04.922   174572,),0,0,2
8:44.086   188671,(,0,0,1
8:44.122   188684,N,0,0,0
8:44.167   188700,),0,0,1
8:44.253   188731,(,0,0,2
8:44.336   188761,t,0,0,0
8:44.425   188793,),0,0,2
8:44.567   188844,(,0,0,1
8:44.689   188888,N,0,0,0
8:44.767   188916,),0,0,1
8:45.083   189030,(,0,0,2
8:45.153   189055,t,0,0,0
8:45.247   189089,),0,0,2
8:52.264   191615,(,0,0,1
8:52.342   191643,N,0,0,0
8:52.436   191677,),0,0,1
8:52.733   191784,(,0,0,2
8:52.800   191808,t,0,0,0
8:52.894   191842,),0,0,2
9:05.422   196352,(,0,0,1
9:05.497   196379,N,0,0,0
9:05.553   196399,),0,0,1
9:05.892   196521,(,0,0,2
9:05.953   196543,t,0,0,0
9:06.053   196579,),0,0,2
9:07.572   197126,(,0,0,1
9:07.689   197168,N,0,0,0
9:07.769   197197,),0,0,1
9:08.183   197346,(,0,0,2
9:08.214   197357,t,0,0,0
9:08.247   197369,),0,0,2
9:08.689   197528,(,0,0,1
9:08.719   197539,N,0,0,0
9:08.747   197549,),0,0,1
9:08.853   197587,(,0,0,2
9:08.947   197621,t,0,0,0
9:09.025   197649,),0,0,2
9:11.756   198632,(,0,0,1
9:11.778   198640,N,0,0,0
9:11.792   198645,),0,0,1
9:11.861   198670,(,0,0,2
9:11.953   198703,t,0,0,4
9:12.536   198913,t,0,0,4
9:12.586   198931,),0,0,2
9:13.125   199125,(,0,0,1
9:13.192   199149,N,0,0,0
9:13.225   199161,),0,0,1
9:13.247   199169,(,0,0,2
9:13.386   199219,t,0,0,1
9:13.489   199256,),0,0,2
9:13.658   199317,(,0,0,1
9:13.675   199323,N,0,0,0
9:13.725   199341,),0,0,1
9:14.383   199578,(,0,0,2
9:14.417   199590,t,0,0,0
9:14.458   199605,),0,0,2
9:15.389   199940,(,0,0,1
9:15.467   199968,N,0,0,0
9:15.492   199977,),0,0,1
9:15.519   199987,(,0,0,2
9:15.647   200033,t,0,0,4
9:16.228   200242,t,0,0,4
9:16.283   200262,),0,0,2
9:16.842   200463,(,0,0,1
9:16.925   200493,N,0,0,0
9:16.958   200505,),0,0,1
9:16.983   200514,(,0,0,2
9:17.119   200563,t,0,0,1
9:17.219   200599,),0,0,2
9:17.344   200644,(,0,0,1
9:17.419   200671,N,0,0,0
9:17.444   200680,),0,0,1
9:17.450   200682,(,0,0,2
9:17.614   200741,t,0,0,1
9:17.717   200778,),0,0,2
9:18.808   201171,(,0,0,1
9:18.894   201202,N,0,0,0
9:18.925   201213,),0,0,1
9:18.950   201222,(,0,0,2
9:19.089   201272,t,0,0,1
9:19.186   201307,),0,0,2
9:19.344   201364,(,0,0,1
9:19.361   201370,N,0,0,0
9:19.444   201400,),0,0,1
9:20.683   201846,(,0,0,1
9:20.753   201871,N,0,0,0
9:20.786   201883,),0,0,1
9:20.811   201892,(,0,0,2
9:20.944   201940,t,0,0,1
9:21.042   201975,),0,0,2
9:21.158   202017,(,0,0,1
9:21.236   202045,N,0,0,0
9:21.261   202054,),0,0,1
9:21.294   202066,(,0,0,2
9:21.425   202113,t,0,0,4
9:21.969   202309,t,0,0,4
9:22.031   202331,),0,0,2
9:23.189   202748,(,0,0,1
9:23.225   202761,N,0,0,0
9:23.300   202788,),0,0,1
9:23.922   203012,(,0,0,2
9:23.956   203024,t,0,0,0
9:23.994   203038,),0,0,2
9:24.903   203365,(,0,0,1
9:24.978   203392,N,0,0,0
9:25.006   203402,),0,0,1
9:25.031   203411,(,0,0,2
9:25.456   203564,t,0,0,1
9:25.806   203690,),0,0,2
9:26.728   204022,(,0,0,1
9:26.806   204050,N,0,0,0
9:26.831   204059,),0,0,1
9:26.861   204070,(,0,0,2
9:26.986   204115,t,0,0,4
9:27.528   204310,t,0,0,4
9:27.583   204330,),0,0,2
9:28.753   204751,(,0,0,1
9:28.775   204759,N,0,0,0
9:28.786   204763,),0,0,1
9:29.514   205025,(,0,0,2
9:29.544   205036,t,0,0,0
9:29.583   205050,),0,0,2
9:30.589   205412,(,0,0,1
9:30.608   205419,N,0,0,0
9:30.642   205431,),0,0,1
9:31.356   205688,(,0,0,2
9:31.386   205699,t,0,0,0
9:31.425   205713,),0,0,2
9:32.311   206032,(,0,0,1
9:32.386   206059,N,0,0,0
9:32.411   206068,),0,0,1
9:32.444   206080,(,0,0,2
9:32.572   206126,t,0,0,4
9:33.156   206336,t,0,0,4
9:33.206   206354,),0,0,2
9:33.794   206566,(,0,0,1
9:33.869   206593,N,0,0,0
9:33.903   206605,),0,0,1
9:33.928   206614,(,0,0,2
9:34.064   206663,t,0,0,1
9:34.172   206702,),0,0,2
9:34.206   206714,(,0,0,0
9:34.225   206721,p,0,0,0
9:34.364   206771,),0,0,0
9:34.378   206776,(,0,0,1
9:34.408   206787,N,0,0,0
9:34.453   206803,),0,0,1
9:35.156   207056,t,0,0,2
9:35.206   207074,),0,0,2
9:36.250   207450,(,0,0,1
9:36.272   207458,N,0,0,0
9:36.308   207471,),0,0,1
9:37.011   207724,(,0,0,2
9:37.042   207735,t,0,0,0
9:37.081   207749,),0,0,2
9:38.072   208106,(,0,0,1
9:38.111   208120,N,0,0,0
9:38.194   208150,),0,0,1
9:38.775   208359,(,0,0,2
9:38.808   208371,t,0,0,0
9:38.847   208385,),0,0,2
9:39.811   208732,(,0,0,1
9:39.881   208757,N,0,0,0
9:39.914   208769,),0,0,1
9:39.936   208777,(,0,0,2
9:40.083   208830,t,0,0,4
9:40.597   209015,t,0,0,4
9:40.650   209034,),0,0,2
9:41.692   209409,(,0,0,1
9:41.764   209435,N,0,0,0
9:41.789   209444,),0,0,1
9:41.794   209446,(,0,0,2
9:41.947   209501,t,0,0,4
9:42.517   209706,t,0,0,4
9:42.567   209724,),0,0,2
9:43.697   210131,(,0,0,1
9:43.719   210139,N,0,0,0
9:43.778   210160,),0,0,1
9:44.425   210393,(,0,0,2
9:44.458   210405,t,0,0,0
9:44.497   210419,),0,0,2
9:45.436   210757,(,0,0,1
9:45.514   210785,N,0,0,0
9:45.544   210796,),0,0,1
9:45.569   210805,(,0,0,2
9:45.992   210957,t,0,0,1
9:46.342   211083,),0,0,2
9:47.439   211478,(,0,0,1
9:47.464   211487,N,0,0,0
9:47.497   211499,),0,0,1
9:48.222   211760,(,0,0,2
9:48.253   211771,t,0,0,0
9:48.292   211785,),0,0,2
9:49.211   212116,(,0,0,1
9:49.283   212142,N,0,0,0
9:49.314   212153,),0,0,1
9:50.025   212409,(,0,0,2
9:50.056   212420,t,0,0,0
9:50.097   212435,),0,0,2
9:50.986   212755,(,0,0,1
9:51.064   212783,N,0,0,0
9:51.089   212792,),0,0,1
9:51.122   212804,(,0,0,2
9:51.256   212852,t,0,0,4
9:51.792   213045,t,0,0,4
9:51.850   213066,),0,0,2
9:52.947   213461,(,0,0,1
9:53.025   213489,N,0,0,0
9:53.056   213500,),0,0,1
9:53.772   213758,(,0,0,2
9:53.803   213769,t,0,0,0
9:53.842   213783,),0,0,2
9:54.794   214126,(,0,0,1
9:54.864   214151,N,0,0,0
9:54.894   214162,),0,0,1
9:54.919   214171,(,0,0,2
9:55.347   214325,t,0,0,1
9:55.686   214447,),0,0,2
9:56.678   214804,(,0,0,1
9:56.708   214815,N,0,0,0
9:56.756   214832,),0,0,1
9:57.469   215089,(,0,0,2
9:57.503   215101,t,0,0,0
9:57.544   215116,),0,0,2
9:58.544   215476,(,0,0,1
9:58.611   215500,N,0,0,0
9:58.644   215512,),0,0,1
9:59.358   215769,(,0,0,2
9:59.389   215780,t,0,0,0
9:59.431   215795,),0,0,2
   10:00.356   216128,(,0,0,1
   10:00.419   216151,N,0,0,0
   10:00.456   216164,),0,0,1
   10:01.117   216402,(,0,0,2
   10:01.147   216413,t,0,0,0
   10:01.186   216427,),0,0,2
   10:02.106   216758,(,0,0,1
   10:02.178   216784,N,0,0,0
   10:02.208   216795,),0,0,1
   10:02.933   217056,(,0,0,2
   10:02.964   217067,t,0,0,0
   10:03.003   217081,),0,0,2
   10:03.964   217427,(,0,0,1
   10:04.036   217453,N,0,0,0
   10:04.067   217464,),0,0,1
   10:04.094   217474,(,0,0,2
   10:04.508   217623,t,0,0,1
   10:04.853   217747,),0,0,2
   10:05.811   218092,(,0,0,1
   10:05.886   218119,N,0,0,0
   10:06.011   218164,),0,0,1
   10:06.656   218396,(,0,0,2
   10:06.686   218407,t,0,0,0
   10:06.728   218422,),0,0,2
   10:07.619   218743,(,0,0,1
   10:07.694   218770,N,0,0,0
   10:07.722   218780,),0,0,1
   10:08.406   219026,(,0,0,2
   10:08.436   219037,t,0,0,0
   10:08.472   219050,),0,0,2
   10:09.428   219394,(,0,0,1
   10:09.503   219421,N,0,0,0
   10:09.539   219434,),0,0,1
   10:09.564   219443,(,0,0,2
   10:09.981   219593,t,0,0,1
   10:10.319   219715,),0,0,2
   10:13.061   220702,(,0,0,1
   10:13.128   220726,N,0,0,0
   10:13.158   220737,),0,0,1
   10:13.858   220989,(,0,0,2
   10:13.889   221000,t,0,0,0
   10:13.928   221014,),0,0,2
   10:14.811   221332,(,0,0,1
   10:14.889   221360,N,0,0,0
   10:14.919   221371,),0,0,1
   10:15.619   221623,(,0,0,2
   10:15.650   221634,t,0,0,0
   10:15.689   221648,),0,0,2
   10:16.647   221993,(,0,0,1
   10:16.711   222016,N,0,0,0
   10:16.747   222029,),0,0,1
   10:17.411   222268,(,0,0,2
   10:17.442   222279,t,0,0,0
   10:17.481   222293,),0,0,2
   10:18.431   222635,(,0,0,1
   10:18.492   222657,N,0,0,0
   10:18.522   222668,),0,0,1
   10:19.200   222912,(,0,0,2
   10:19.231   222923,t,0,0,0
   10:19.269   222937,),0,0,2
   10:22.014   223925,(,0,0,1
   10:22.089   223952,N,0,0,0
   10:22.181   223985,),0,0,1
   10:22.808   224211,(,0,0,2
   10:22.839   224222,t,0,0,0
   10:22.875   224235,),0,0,2
   10:25.350   225126,(,0,0,1
   10:25.417   225150,N,0,0,0
   10:25.447   225161,),0,0,1
   10:25.472   225170,(,0,0,2
   10:25.600   225216,t,0,0,1
   10:25.722   225260,),0,0,2
   10:25.792   225285,(,0,0,1
   10:25.861   225310,N,0,0,0
   10:25.889   225320,),0,0,1
   10:26.014   225365,(,0,0,2
   10:26.053   225379,t,0,0,4
   10:26.592   225573,t,0,0,4
   10:26.642   225591,),0,0,2
   10:27.697   225971,(,0,0,1
   10:27.761   225994,N,0,0,0
   10:27.792   226005,),0,0,1
   10:28.419   226231,(,0,0,2
   10:28.453   226243,t,0,0,0
   10:28.489   226256,),0,0,2
   10:34.269   228337,(,0,0,1
   10:34.294   228346,N,0,0,0
   10:34.328   228358,),0,0,1
   10:34.864   228551,(,0,0,2
   10:34.897   228563,t,0,0,0
   10:34.936   228577,),0,0,2
   10:35.897   228923,(,0,0,1
   10:35.964   228947,N,0,0,0
   10:35.994   228958,),0,0,1
   10:36.706   229214,(,0,0,2
   10:36.736   229225,t,0,0,0
   10:36.775   229239,),0,0,2
   10:37.683   229566,(,0,0,1
   10:37.756   229592,N,0,0,0
   10:37.789   229604,),0,0,1
   10:38.406   229826,(,0,0,2
   10:38.436   229837,t,0,0,0
   10:38.475   229851,),0,0,2
   10:39.519   230227,(,0,0,1
   10:39.547   230237,N,0,0,0
   10:39.556   230240,),0,0,1
   10:40.225   230481,(,0,0,2
   10:40.258   230493,t,0,0,0
   10:40.297   230507,),0,0,2
   10:41.386   230899,(,0,0,1
   10:41.408   230907,N,0,0,0
   10:41.481   230933,),0,0,1
   10:41.958   231105,(,0,0,2
   10:41.989   231116,t,0,0,0
   10:42.031   231131,),0,0,2
   10:43.614   231701,(,0,0,1
   10:43.633   231708,N,0,0,0
   10:43.647   231713,),0,0,1
   10:44.350   231966,(,0,0,2
   10:44.381   231977,t,0,0,0
   10:44.417   231990,),0,0,2
   10:45.417   232350,(,0,0,1
   10:45.486   232375,N,0,0,0
   10:45.517   232386,),0,0,1
   10:46.092   232593,(,0,0,2
   10:46.122   232604,t,0,0,0
   10:46.161   232618,),0,0,2
   10:46.667   232800,(,0,0,1
   10:46.719   232819,N,0,0,0
   10:46.750   232830,),0,0,1
   10:47.258   233013,(,0,0,2
   10:47.292   233025,t,0,0,0
   10:47.328   233038,),0,0,2
   10:48.364   233411,(,0,0,1
   10:48.400   233424,N,0,0,0
   10:48.431   233435,),0,0,1
   10:48.933   233616,(,0,0,2
   10:48.967   233628,t,0,0,0
   10:49.006   233642,),0,0,2
   10:49.350   233766,(,0,0,1
   10:49.422   233792,N,0,0,0
   10:49.456   233804,),0,0,1
   10:50.094   234034,(,0,0,2
   10:50.128   234046,t,0,0,0
   10:50.167   234060,),0,0,2
   10:51.131   234407,(,0,0,1
   10:51.208   234435,N,0,0,0
   10:51.242   234447,),0,0,1
   10:51.933   234696,(,0,0,2
   10:51.967   234708,t,0,0,0
   10:52.006   234722,),0,0,2
   10:53.044   235096,(,0,0,1
   10:53.067   235104,N,0,0,0
   10:53.103   235117,),0,0,1
   10:54.864   235751,(,0,0,1
   10:54.928   235774,N,0,0,0
   10:54.961   235786,),0,0,1
   10:55.617   236022,(,0,0,2
   10:55.650   236034,t,0,0,0
   10:55.686   236047,),0,0,2
   10:56.567   236364,(,0,0,1
   10:56.639   236390,N,0,0,0
   10:56.675   236403,),0,0,1
   10:57.311   236632,(,0,0,2
   10:57.344   236644,t,0,0,0
   10:57.383   236658,),0,0,2
   10:58.444   237040,(,0,0,1
   10:58.525   237069,N,0,0,0
   10:58.561   237082,),0,0,1
   10:59.253   237331,(,0,0,2
   10:59.283   237342,t,0,0,0
   10:59.322   237356,),0,0,2
   11:00.264   237695,(,0,0,1
   11:00.333   237720,N,0,0,0
   11:00.358   237729,),0,0,1
   11:00.392   237741,(,0,0,2
   11:00.519   237787,t,0,0,4
   11:01.089   237992,t,0,0,4
   11:01.147   238013,),0,0,2
   11:01.714   238217,(,0,0,1
   11:01.781   238241,N,0,0,0
   11:01.814   238253,),0,0,1
   11:01.836   238261,(,0,0,2
   11:01.964   238307,t,0,0,1
   11:02.056   238340,),0,0,2
   11:02.067   238344,(,0,0,0
   11:02.122   238364,p,0,0,0
   11:02.225   238401,),0,0,0
   11:02.236   238405,(,0,0,1
   11:02.256   238412,N,0,0,0
   11:02.267   238416,),0,0,1
   11:02.994   238678,(,0,0,2
   11:03.028   238690,t,0,0,0
   11:03.067   238704,),0,0,2
   11:04.028   239050,(,0,0,1
   11:04.103   239077,N,0,0,0
   11:04.136   239089,),0,0,1
   11:04.842   239343,(,0,0,2
   11:04.875   239355,t,0,0,0
   11:04.914   239369,),0,0,2
   11:05.867   239712,(,0,0,1
   11:05.942   239739,N,0,0,0
   11:05.978   239752,),0,0,1
   11:06.664   239999,(,0,0,2
   11:06.697   240011,t,0,0,0
   11:06.736   240025,),0,0,2
   11:07.631   240347,(,0,0,1
   11:07.700   240372,N,0,0,0
   11:07.728   240382,),0,0,1
   11:08.425   240633,(,0,0,2
   11:08.456   240644,t,0,0,0
   11:08.494   240658,),0,0,2
   11:09.458   241005,(,0,0,1
   11:09.533   241032,N,0,0,0
   11:09.569   241045,),0,0,1
   11:10.300   241308,(,0,0,2
   11:10.331   241319,t,0,0,0
   11:10.378   241336,),0,0,2
   11:11.319   241675,(,0,0,1
   11:11.383   241698,N,0,0,0
   11:11.414   241709,),0,0,1
   11:12.058   241941,(,0,0,2
   11:12.089   241952,t,0,0,0
   11:12.128   241966,),0,0,2
   11:13.056   242300,(,0,0,1
   11:13.119   242323,N,0,0,0
   11:13.156   242336,),0,0,1
   11:13.839   242582,(,0,0,2
   11:13.869   242593,t,0,0,0
   11:13.908   242607,),0,0,2
   11:14.786   242923,(,0,0,1
   11:14.864   242951,N,0,0,0
   11:14.897   242963,),0,0,1
   11:14.922   242972,(,0,0,2
   11:15.331   243119,t,0,0,1
   11:15.694   243250,),0,0,2
   11:16.736   243625,(,0,0,1
   11:16.808   243651,N,0,0,0
   11:16.842   243663,),0,0,1
   11:17.547   243917,(,0,0,2
   11:17.581   243929,t,0,0,0
   11:17.619   243943,),0,0,2
   11:18.519   244267,(,0,0,1
   11:18.586   244291,N,0,0,0
   11:18.614   244301,),0,0,1
   11:19.342   244563,(,0,0,2
   11:19.372   244574,t,0,0,0
   11:19.414   244589,),0,0,2
   11:20.303   244909,(,0,0,1
   11:20.375   244935,N,0,0,0
   11:20.403   244945,),0,0,1
   11:22.200   245592,(,0,0,1
   11:22.272   245618,N,0,0,0
   11:22.306   245630,),0,0,1
   11:23.017   245886,(,0,0,2
   11:23.047   245897,t,0,0,0
   11:23.089   245912,),0,0,2
   11:24.036   246253,(,0,0,1
   11:24.114   246281,N,0,0,0
   11:24.142   246291,),0,0,1
   11:24.847   246545,(,0,0,2
   11:24.878   246556,t,0,0,0
   11:24.917   246570,),0,0,2
   11:25.814   246893,(,0,0,1
   11:25.883   246918,N,0,0,0
   11:25.914   246929,),0,0,1
   11:26.575   247167,(,0,0,2
   11:26.608   247179,t,0,0,0
   11:26.647   247193,),0,0,2
   11:27.586   247531,(,0,0,1
   11:27.661   247558,N,0,0,0
   11:27.700   247572,),0,0,1
   11:28.383   247818,(,0,0,2
   11:28.417   247830,t,0,0,0
   11:28.458   247845,),0,0,2
   11:29.389   248180,(,0,0,1
   11:29.461   248206,N,0,0,0
   11:29.497   248219,),0,0,1
   11:30.147   248453,(,0,0,2
   11:30.178   248464,t,0,0,0
   11:30.217   248478,),0,0,2
   11:31.156   248816,(,0,0,1
   11:31.228   248842,N,0,0,0
   11:31.264   248855,),0,0,1
   11:31.917   249090,(,0,0,2
   11:31.947   249101,t,0,0,0
   11:31.989   249116,),0,0,2
   11:32.869   249433,(,0,0,1
   11:32.933   249456,N,0,0,0
   11:32.969   249469,),0,0,1
   11:32.994   249478,(,0,0,2
   11:33.125   249525,t,0,0,1
   11:33.225   249561,),0,0,2
   11:33.653   249715,(,0,0,1
   11:33.675   249723,N,0,0,0
   11:33.708   249735,),0,0,1
   11:34.244   249928,(,0,0,2
   11:34.278   249940,t,0,0,0
   11:34.317   249954,),0,0,2
   11:34.672   250082,(,0,0,1
   11:34.750   250110,N,0,0,0
   11:34.789   250124,),0,0,1
   11:34.814   250133,(,0,0,2
   11:34.939   250178,t,0,0,1
   11:35.044   250216,),0,0,2
   11:36.058   250581,(,0,0,1
   11:36.186   250627,N,0,0,0
   11:36.200   250632,),0,0,1
   11:36.233   250644,t,0,0,3
   11:36.367   250692,),0,0,2
   11:36.578   250768,(,0,0,1
   11:36.653   250795,N,0,0,0
   11:36.681   250805,),0,0,1
   11:36.706   250814,(,0,0,2
   11:36.831   250859,t,0,0,1
   11:36.925   250893,),0,0,2
   11:37.375   251055,(,0,0,1
   11:37.397   251063,N,0,0,0
   11:37.425   251073,),0,0,1
   11:37.528   251110,(,0,0,2
   11:37.625   251145,t,0,0,0
   11:37.711   251176,),0,0,2
