Elapsedtime,sample,Type,Sub,Chan,Num
0:00.308,111,(,0,0,0
0:00.350,126,p,0,0,0
0:00.439,158,),0,0,0
0:00.492,177,(,0,0,1
0:00.525,189,N,0,0,0
0:00.569,205,),0,0,1
0:00.633,228,(,0,0,2
0:00.744,268,t,0,0,0
0:00.839,302,),0,0,2
0:00.967,348,(,0,0,0
0:01.000,360,p,0,0,0
0:01.081,389,),0,0,0
0:01.144,412,(,0,0,1
0:01.178,424,N,0,0,0
0:01.228,442,),0,0,1
0:01.297,467,(,0,0,2
0:01.408,507,t,0,0,0
0:01.492,537,),0,0,2
0:01.608,579,(,0,0,0
0:01.650,594,p,0,0,0
0:01.739,626,),0,0,0
0:01.797,647,(,0,0,1
0:01.831,659,N,0,0,0
0:01.881,677,),0,0,1
0:01.936,697,(,0,0,2
0:02.047,737,t,0,0,0
0:02.133,768,),0,0,2
0:02.264,815,(,0,0,0
0:02.294,826,p,0,0,0
0:02.378,856,),0,0,0
0:02.436,877,(,0,0,1
0:02.469,889,N,0,0,0
0:02.517,906,),0,0,1
0:02.583,930,(,0,0,2
0:02.683,966,t,0,0,0
0:02.778,1000,),0,0,2
0:02.886,1039,(,0,0,0
0:02.917,1050,p,0,0,0
0:02.947,1061,),0,0,0
0:03.039,1094,(,0,0,1
0:03.092,1113,N,0,0,0
0:03.142,1131,),0,0,1
0:03.222,1160,(,0,0,2
0:03.322,1196,t,0,0,0
0:03.386,1219,),0,0,2
0:03.503,1261,(,0,0,0
0:03.544,1276,p,0,0,0
0:03.622,1304,),0,0,0
0:03.678,1324,(,0,0,1
0:03.708,1335,N,0,0,0
0:03.756,1352,),0,0,1
0:03.819,1375,(,0,0,2
0:03.919,1411,t,0,0,0
0:03.997,1439,),0,0,2
0:04.108,1479,(,0,0,0
0:04.142,1491,p,0,0,0
0:04.236,1525,),0,0,0
0:04.281,1541,(,0,0,1
0:04.311,1552,N,0,0,0
0:04.356,1568,),0,0,1
0:04.428,1594,(,0,0,2
0:04.531,1631,t,0,0,0
0:04.603,1657,),0,0,2
0:04.725,1701,(,0,0,0
0:04.761,1714,p,0,0,0
0:04.850,1746,),0,0,0
0:04.897,1763,(,0,0,1
0:04.925,1773,N,0,0,0
0:04.964,1787,),0,0,1
0:05.033,1812,(,0,0,2
0:05.136,1849,t,0,0,0
0:05.217,1878,),0,0,2
0:05.325,1917,(,0,0,0
0:05.375,1935,p,0,0,0
0:05.464,1967,),0,0,0
0:05.519,1987,(,0,0,1
0:05.550,1998,N,0,0,0
0:05.597,2015,),0,0,1
0:05.686,2047,(,0,0,2
0:05.786,2083,t,0,0,0
0:05.875,2115,),0,0,2
0:05.983,2154,(,0,0,0
0:06.039,2174,p,0,0,0
0:06.122,2204,),0,0,0
0:06.178,2224,(,0,0,1
0:06.208,2235,N,0,0,0
0:06.256,2252,),0,0,1
0:06.336,2281,(,0,0,2
0:06.436,2317,t,0,0,0
0:06.525,2349,),0,0,2
0:06.656,2396,(,0,0,0
0:06.700,2412,p,0,0,0
0:06.783,2442,),0,0,0
0:06.844,2464,(,0,0,1
0:06.878,2476,N,0,0,0
0:06.922,2492,),0,0,1
0:07.011,2524,(,0,0,2
0:07.111,2560,t,0,0,0
0:07.192,2589,),0,0,2
0:07.297,2627,(,0,0,0
0:07.347,2645,p,0,0,0
0:07.428,2674,),0,0,0
0:07.483,2694,(,0,0,1
0:07.511,2704,N,0,0,0
0:07.561,2722,),0,0,1
0:07.617,2742,(,0,0,2
0:07.739,2786,t,0,0,0
0:07.825,2817,),0,0,2
0:07.942,2859,(,0,0,0
0:07.981,2873,p,0,0,0
0:08.069,2905,),0,0,0
0:08.117,2922,(,0,0,1
0:08.147,2933,N,0,0,0
0:08.192,2949,),0,0,1
0:08.272,2978,(,0,0,2
0:08.369,3013,t,0,0,0
0:08.450,3042,),0,0,2
0:08.581,3089,(,0,0,0
0:08.619,3103,p,0,0,0
0:08.706,3134,),0,0,0
0:08.756,3152,(,0,0,1
0:08.789,3164,N,0,0,0
0:08.833,3180,),0,0,1
0:08.906,3206,(,0,0,2
0:09.011,3244,t,0,0,0
0:09.086,3271,),0,0,2
0:09.206,3314,(,0,0,0
0:09.250,3330,p,0,0,0
0:09.331,3359,),0,0,0
0:09.381,3377,(,0,0,1
0:09.411,3388,N,0,0,0
0:09.456,3404,),0,0,1
0:09.522,3428,(,0,0,2
0:09.636,3469,t,0,0,0
0:09.725,3501,),0,0,2
0:09.850,3546,(,0,0,0
0:09.886,3559,p,0,0,0
0:09.969,3589,),0,0,0
0:10.019,3607,(,0,0,1
0:10.050,3618,N,0,0,0
0:10.092,3633,),0,0,1
0:10.175,3663,(,0,0,2
0:10.264,3695,t,0,0,0
0:10.361,3730,),0,0,2
0:10.478,3772,(,0,0,0
0:10.511,3784,p,0,0,0
0:10.594,3814,),0,0,0
0:10.647,3833,(,0,0,1
0:10.678,3844,N,0,0,0
0:10.725,3861,),0,0,1
0:10.786,3883,(,0,0,2
0:10.894,3922,t,0,0,0
0:10.975,3951,),0,0,2
0:11.067,3984,(,0,0,0
0:11.103,3997,p,0,0,0
0:11.194,4030,),0,0,0
0:11.247,4049,(,0,0,1
0:11.275,4059,N,0,0,0
0:11.322,4076,),0,0,1
0:11.394,4102,(,0,0,2
0:11.497,4139,t,0,0,0
0:11.583,4170,),0,0,2
0:11.711,4216,(,0,0,0
0:11.753,4231,p,0,0,0
0:11.836,4261,),0,0,0
0:11.889,4280,(,0,0,1
0:11.922,4292,N,0,0,0
0:11.967,4308,),0,0,1
0:12.019,4327,(,0,0,2
0:12.150,4374,t,0,0,0
0:12.239,4406,),0,0,2
0:12.369,4453,(,0,0,0
0:12.408,4467,p,0,0,0
0:12.497,4499,),0,0,0
0:12.547,4517,(,0,0,1
0:12.578,4528,N,0,0,0
0:12.622,4544,),0,0,1
0:12.683,4566,(,0,0,2
0:12.808,4611,t,0,0,0
0:12.894,4642,),0,0,2
0:13.019,4687,(,0,0,0
0:13.061,4702,p,0,0,0
0:13.150,4734,),0,0,0
0:13.208,4755,(,0,0,1
0:13.239,4766,N,0,0,0
0:13.286,4783,),0,0,1
0:13.361,4810,(,0,0,2
0:13.469,4849,t,0,0,0
0:13.556,4880,),0,0,2
0:13.694,4930,(,0,0,0
0:13.736,4945,p,0,0,0
0:13.817,4974,),0,0,0
0:13.881,4997,(,0,0,1
0:13.911,5008,N,0,0,0
0:13.961,5026,),0,0,1
0:14.022,5048,(,0,0,2
0:14.142,5091,t,0,0,0
0:14.228,5122,),0,0,2
0:14.367,5172,(,0,0,0
0:14.408,5187,p,0,0,0
0:14.486,5215,),0,0,0
0:14.539,5234,(,0,0,1
0:14.569,5245,N,0,0,0
0:14.614,5261,),0,0,1
0:14.672,5282,(,0,0,2
0:14.789,5324,t,0,0,0
0:14.875,5355,),0,0,2
0:15.011,5404,(,0,0,0
0:15.050,5418,p,0,0,0
0:15.128,5446,),0,0,0
0:15.186,5467,(,0,0,1
0:15.219,5479,N,0,0,0
0:15.264,5495,),0,0,1
0:15.339,5522,(,0,0,2
0:15.436,5557,t,0,0,0
0:15.511,5584,),0,0,2
0:15.633,5628,(,0,0,0
0:15.675,5643,p,0,0,0
0:15.756,5672,),0,0,0
0:15.806,5690,(,0,0,1
0:15.836,5701,N,0,0,0
0:15.878,5716,),0,0,1
0:15.933,5736,(,0,0,2
0:16.053,5779,t,0,0,0
0:16.128,5806,),0,0,2
0:16.258,5853,(,0,0,0
0:16.306,5870,p,0,0,0
0:16.381,5897,),0,0,0
0:16.433,5916,(,0,0,1
0:16.464,5927,N,0,0,0
0:16.508,5943,),0,0,1
0:16.564,5963,(,0,0,2
0:16.672,6002,t,0,0,0
0:16.758,6033,),0,0,2
0:16.883,6078,(,0,0,0
0:16.919,6091,p,0,0,0
0:16.989,6116,),0,0,0
0:17.039,6134,(,0,0,1
0:17.067,6144,N,0,0,0
0:17.117,6162,),0,0,1
0:17.172,6182,(,0,0,2
0:17.289,6224,t,0,0,0
0:17.369,6253,),0,0,2
0:17.494,6298,(,0,0,0
0:17.536,6313,p,0,0,0
0:17.622,6344,),0,0,0
0:17.642,6351,(,0,0,1
0:17.706,6374,N,0,0,0
0:17.753,6391,),0,0,1
0:17.842,6423,(,0,0,2
0:17.933,6456,t,0,0,0
0:18.022,6488,),0,0,2
0:18.164,6539,(,0,0,0
0:18.206,6554,p,0,0,0
0:18.300,6588,),0,0,0
0:18.358,6609,(,0,0,1
0:18.389,6620,N,0,0,0
0:18.436,6637,),0,0,1
0:18.519,6667,(,0,0,2
0:18.614,6701,t,0,0,0
0:18.708,6735,),0,0,2
0:18.850,6786,(,0,0,0
0:18.889,6800,p,0,0,0
0:18.969,6829,),0,0,0
0:19.031,6851,(,0,0,1
0:19.064,6863,N,0,0,0
0:19.114,6881,),0,0,1
0:19.189,6908,(,0,0,2
0:19.292,6945,t,0,0,0
0:19.386,6979,),0,0,2
0:19.525,7029,(,0,0,0
0:19.567,7044,p,0,0,0
0:19.653,7075,),0,0,0
0:19.706,7094,(,0,0,1
0:19.736,7105,N,0,0,0
0:19.781,7121,),0,0,1
0:19.869,7153,(,0,0,2
0:19.956,7184,t,0,0,0
0:20.044,7216,),0,0,2
0:20.181,7265,(,0,0,0
0:20.217,7278,p,0,0,0
0:20.258,7293,),0,0,0
0:20.358,7329,(,0,0,1
0:20.389,7340,N,0,0,0
0:20.433,7356,),0,0,1
0:20.514,7385,(,0,0,2
0:20.603,7417,t,0,0,0
0:20.686,7447,),0,0,2
0:20.817,7494,(,0,0,0
0:20.861,7510,p,0,0,0
0:20.944,7540,),0,0,0
0:20.994,7558,(,0,0,1
0:21.025,7569,N,0,0,0
0:21.069,7585,),0,0,1
0:21.147,7613,(,0,0,2
0:21.247,7649,t,0,0,0
0:21.328,7678,),0,0,2
0:21.469,7729,(,0,0,0
0:21.511,7744,p,0,0,0
0:21.589,7772,),0,0,0
0:21.642,7791,(,0,0,1
0:21.672,7802,N,0,0,0
0:21.719,7819,),0,0,1
0:21.781,7841,(,0,0,2
0:21.900,7884,t,0,0,0
0:21.981,7913,),0,0,2
0:22.114,7961,(,0,0,0
0:22.156,7976,p,0,0,0
0:22.242,8007,),0,0,0
0:22.297,8027,(,0,0,1
0:22.328,8038,N,0,0,0
0:22.375,8055,),0,0,1
0:22.419,8071,(,0,0,2
0:22.547,8117,t,0,0,0
0:22.631,8147,),0,0,2
0:22.756,8192,(,0,0,0
0:22.797,8207,p,0,0,0
0:22.878,8236,),0,0,0
0:22.922,8252,(,0,0,1
0:22.947,8261,N,0,0,0
0:22.989,8276,),0,0,1
0:23.033,8292,(,0,0,2
0:23.153,8335,t,0,0,0
0:23.233,8364,),0,0,2
0:23.378,8416,(,0,0,0
0:23.417,8430,p,0,0,0
0:23.506,8462,),0,0,0
0:23.556,8480,(,0,0,1
0:23.589,8492,N,0,0,0
0:23.633,8508,),0,0,1
0:23.706,8534,(,0,0,2
0:23.817,8574,t,0,0,0
0:23.897,8603,),0,0,2
0:24.022,8648,(,0,0,0
0:24.064,8663,p,0,0,0
0:24.150,8694,),0,0,0
0:24.206,8714,(,0,0,1
0:24.236,8725,N,0,0,0
0:24.286,8743,),0,0,1
0:24.358,8769,(,0,0,2
0:24.472,8810,t,0,0,0
0:24.556,8840,),0,0,2
0:24.694,8890,(,0,0,0
0:24.731,8903,p,0,0,0
0:24.817,8934,),0,0,0
0:24.875,8955,(,0,0,1
0:24.906,8966,N,0,0,0
0:24.950,8982,),0,0,1
0:25.028,9010,(,0,0,2
0:25.125,9045,t,0,0,0
0:25.225,9081,),0,0,2
0:25.342,9123,(,0,0,0
0:25.378,9136,p,0,0,0
0:25.467,9168,),0,0,0
0:25.528,9190,(,0,0,1
0:25.561,9202,N,0,0,0
0:25.608,9219,),0,0,1
0:25.658,9237,(,0,0,2
0:25.786,9283,t,0,0,0
0:25.867,9312,),0,0,2
0:25.989,9356,(,0,0,0
0:26.031,9371,p,0,0,0
0:26.111,9400,),0,0,0
0:26.161,9418,(,0,0,1
0:26.192,9429,N,0,0,0
0:26.239,9446,),0,0,1
0:26.300,9468,(,0,0,2
0:26.419,9511,t,0,0,0
0:26.511,9544,),0,0,2
0:26.644,9592,(,0,0,0
0:26.678,9604,p,0,0,0
0:26.767,9636,),0,0,0
0:26.817,9654,(,0,0,1
0:26.847,9665,N,0,0,0
0:26.892,9681,),0,0,1
0:26.969,9709,(,0,0,2
0:27.069,9745,t,0,0,0
0:27.144,9772,),0,0,2
0:27.303,9829,(,0,0,0
0:27.339,9842,p,0,0,0
0:27.428,9874,),0,0,0
0:27.481,9893,(,0,0,1
0:27.514,9905,N,0,0,0
0:27.561,9922,),0,0,1
0:27.633,9948,(,0,0,2
0:27.733,9984,t,0,0,0
0:27.828,10018,),0,0,2
0:27.958,10065,(,0,0,0
0:27.994,10078,p,0,0,0
0:28.081,10109,),0,0,0
0:28.128,10126,(,0,0,1
0:28.158,10137,N,0,0,0
0:28.203,10153,),0,0,1
0:28.242,10167,(,0,0,2
0:28.375,10215,t,0,0,0
0:28.453,10243,),0,0,2
0:28.606,10298,(,0,0,0
0:28.650,10314,p,0,0,0
0:28.731,10343,),0,0,0
0:28.781,10361,(,0,0,1
0:28.811,10372,N,0,0,0
0:28.856,10388,),0,0,1
0:28.919,10411,(,0,0,2
0:29.006,10442,t,0,0,0
0:29.078,10468,),0,0,2
0:29.239,10526,(,0,0,0
0:29.272,10538,p,0,0,0
0:29.358,10569,),0,0,0
0:29.408,10587,(,0,0,1
0:29.439,10598,N,0,0,0
0:29.483,10614,),0,0,1
0:29.542,10635,(,0,0,2
0:29.658,10677,t,0,0,0
0:29.742,10707,),0,0,2
0:29.894,10762,(,0,0,0
0:29.942,10779,p,0,0,0
0:30.033,10812,),0,0,0
0:30.086,10831,(,0,0,1
0:30.119,10843,N,0,0,0
0:30.167,10860,),0,0,1
0:30.228,10882,(,0,0,2
0:30.353,10927,t,0,0,0
0:30.447,10961,),0,0,2
0:30.608,11019,(,0,0,0
0:30.650,11034,p,0,0,0
0:30.739,11066,),0,0,0
0:30.797,11087,(,0,0,1
0:30.831,11099,N,0,0,0
0:30.878,11116,),0,0,1
0:30.958,11145,(,0,0,2
0:31.072,11186,t,0,0,0
0:31.144,11212,),0,0,2
0:31.314,11273,(,0,0,0
0:31.353,11287,p,0,0,0
0:31.447,11321,),0,0,0
0:31.500,11340,(,0,0,1
0:31.531,11351,N,0,0,0
0:31.578,11368,),0,0,1
0:31.667,11400,(,0,0,2
0:31.761,11434,t,0,0,0
0:31.844,11464,),0,0,2
0:31.994,11518,(,0,0,0
0:32.044,11536,p,0,0,0
0:32.122,11564,),0,0,0
0:32.175,11583,(,0,0,1
0:32.206,11594,N,0,0,0
0:32.247,11609,),0,0,1
0:32.314,11633,(,0,0,2
0:32.422,11672,t,0,0,0
0:32.503,11701,),0,0,2
0:32.650,11754,(,0,0,0
0:32.697,11771,p,0,0,0
0:32.775,11799,),0,0,0
0:32.828,11818,(,0,0,1
0:32.858,11829,N,0,0,0
0:32.906,11846,),0,0,1
0:32.967,11868,(,0,0,2
0:33.089,11912,t,0,0,0
0:33.167,11940,),0,0,2
0:33.314,11993,(,0,0,0
0:33.353,12007,p,0,0,0
0:33.436,12037,),0,0,0
0:33.483,12054,(,0,0,1
0:33.517,12066,N,0,0,0
0:33.558,12081,),0,0,1
0:33.631,12107,(,0,0,2
0:33.736,12145,t,0,0,0
0:33.833,12180,),0,0,2
0:33.964,12227,(,0,0,0
0:34.008,12243,p,0,0,0
0:34.094,12274,),0,0,0
0:34.142,12291,(,0,0,1
0:34.172,12302,N,0,0,0
0:34.219,12319,),0,0,1
0:34.269,12337,(,0,0,2
0:34.372,12374,t,0,0,0
0:34.458,12405,),0,0,2
0:34.600,12456,(,0,0,0
0:34.639,12470,p,0,0,0
0:34.714,12497,),0,0,0
0:34.769,12517,(,0,0,1
0:34.800,12528,N,0,0,0
0:34.847,12545,),0,0,1
0:34.922,12572,(,0,0,2
0:35.008,12603,t,0,0,0
0:35.089,12632,),0,0,2
0:35.219,12679,(,0,0,0
0:35.267,12696,p,0,0,0
0:35.350,12726,),0,0,0
0:35.403,12745,(,0,0,1
0:35.433,12756,N,0,0,0
0:35.481,12773,),0,0,1
0:35.547,12797,(,0,0,2
0:35.669,12841,t,0,0,0
0:35.756,12872,),0,0,2
0:35.897,12923,(,0,0,0
0:35.939,12938,p,0,0,0
0:36.028,12970,),0,0,0
0:36.092,12993,(,0,0,1
0:36.125,13005,N,0,0,0
0:36.169,13021,),0,0,1
0:36.258,13053,(,0,0,2
0:36.347,13085,t,0,0,0
0:36.450,13122,),0,0,2
0:36.575,13167,(,0,0,0
0:36.617,13182,p,0,0,0
0:36.703,13213,),0,0,0
0:36.761,13234,(,0,0,1
0:36.792,13245,N,0,0,0
0:36.839,13262,),0,0,1
0:36.894,13282,(,0,0,2
0:37.031,13331,t,0,0,0
0:37.114,13361,),0,0,2
0:37.253,13411,(,0,0,0
0:37.297,13427,p,0,0,0
0:37.375,13455,),0,0,0
0:37.431,13475,(,0,0,1
0:37.464,13487,N,0,0,0
0:37.508,13503,),0,0,1
0:37.575,13527,(,0,0,2
0:37.689,13568,t,0,0,0
0:37.775,13599,),0,0,2
0:37.906,13646,(,0,0,0
0:37.936,13657,p,0,0,0
0:38.022,13688,),0,0,0
0:38.078,13708,(,0,0,1
0:38.106,13718,N,0,0,0
0:38.156,13736,),0,0,1
0:38.233,13764,(,0,0,2
0:38.325,13797,t,0,0,0
0:38.417,13830,),0,0,2
0:38.547,13877,(,0,0,0
0:38.583,13890,p,0,0,0
0:38.661,13918,),0,0,0
0:38.722,13940,(,0,0,1
0:38.753,13951,N,0,0,0
0:38.803,13969,),0,0,1
0:38.883,13998,(,0,0,2
0:38.978,14032,t,0,0,0
0:39.083,14070,),0,0,2
0:39.197,14111,(,0,0,0
0:39.233,14124,p,0,0,0
0:39.328,14158,),0,0,0
0:39.372,14174,(,0,0,1
0:39.403,14185,N,0,0,0
0:39.447,14201,),0,0,1
0:39.519,14227,(,0,0,2
0:39.631,14267,t,0,0,0
0:39.719,14299,),0,0,2
0:39.825,14337,(,0,0,0
0:39.869,14353,p,0,0,0
0:39.947,14381,),0,0,0
0:40.003,14401,(,0,0,1
0:40.031,14411,N,0,0,0
0:40.075,14427,),0,0,1
0:40.144,14452,(,0,0,2
0:40.253,14491,t,0,0,0
0:40.328,14518,),0,0,2
0:40.458,14565,(,0,0,0
0:40.500,14580,p,0,0,0
0:40.575,14607,),0,0,0
0:40.633,14628,(,0,0,1
0:40.661,14638,N,0,0,0
0:40.706,14654,),0,0,1
0:40.733,14664,(,0,0,2
0:40.867,14712,t,0,0,0
0:40.950,14742,),0,0,2
0:41.031,14771,(,0,0,0
0:41.072,14786,p,0,0,0
0:41.158,14817,),0,0,0
0:41.214,14837,(,0,0,1
0:41.242,14847,N,0,0,0
0:41.289,14864,),0,0,1
0:41.378,14896,(,0,0,2
0:41.453,14923,t,0,0,0
0:41.564,14963,),0,0,2
0:41.675,15003,(,0,0,0
0:41.708,15015,p,0,0,0
0:41.789,15044,),0,0,0
0:41.842,15063,(,0,0,1
0:41.875,15075,N,0,0,0
0:41.919,15091,),0,0,1
0:41.975,15111,(,0,0,2
0:42.103,15157,t,0,0,0
0:42.178,15184,),0,0,2
0:42.325,15237,(,0,0,0
0:42.364,15251,p,0,0,0
0:42.453,15283,),0,0,0
0:42.511,15304,(,0,0,1
0:42.544,15316,N,0,0,0
0:42.592,15333,),0,0,1
0:42.661,15358,(,0,0,2
0:42.767,15396,t,0,0,0
0:42.864,15431,),0,0,2
0:42.967,15468,(,0,0,0
0:43.006,15482,p,0,0,0
0:43.106,15518,),0,0,0
0:43.164,15539,(,0,0,1
0:43.197,15551,N,0,0,0
0:43.247,15569,),0,0,1
0:43.317,15594,(,0,0,2
0:43.425,15633,t,0,0,0
0:43.508,15663,),0,0,2
0:43.639,15710,(,0,0,0
0:43.672,15722,p,0,0,0
0:43.753,15751,),0,0,0
0:43.800,15768,(,0,0,1
0:43.831,15779,N,0,0,0
0:43.878,15796,),0,0,1
0:43.933,15816,(,0,0,2
0:44.053,15859,t,0,0,0
0:44.136,15889,),0,0,2
0:44.275,15939,(,0,0,0
0:44.336,15961,p,0,0,0
0:44.406,15986,),0,0,0
0:44.461,16006,(,0,0,1
0:44.494,16018,N,0,0,0
0:44.542,16035,),0,0,1
0:44.622,16064,(,0,0,2
0:44.722,16100,t,0,0,0
0:44.800,16128,),0,0,2
0:44.917,16170,(,0,0,0
0:44.958,16185,p,0,0,0
0:45.036,16213,),0,0,0
0:45.097,16235,(,0,0,1
0:45.125,16245,N,0,0,0
0:45.172,16262,),0,0,1
0:45.225,16281,(,0,0,2
0:45.342,16323,t,0,0,0
0:45.425,16353,),0,0,2
0:45.547,16397,(,0,0,0
0:45.583,16410,p,0,0,0
0:45.678,16444,),0,0,0
0:45.725,16461,(,0,0,1
0:45.756,16472,N,0,0,0
0:45.803,16489,),0,0,1
0:45.869,16513,(,0,0,2
0:45.964,16547,t,0,0,0
0:46.042,16575,),0,0,2
0:46.153,16615,(,0,0,0
0:46.200,16632,p,0,0,0
0:46.278,16660,),0,0,0
0:46.331,16679,(,0,0,1
0:46.361,16690,N,0,0,0
0:46.403,16705,),0,0,1
0:46.461,16726,(,0,0,2
0:46.575,16767,t,0,0,0
0:46.653,16795,),0,0,2
0:46.778,16840,(,0,0,0
0:46.814,16853,p,0,0,0
0:46.908,16887,),0,0,0
0:46.942,16899,(,0,0,1
0:46.969,16909,N,0,0,0
0:47.014,16925,),0,0,1
0:47.092,16953,(,0,0,2
0:47.189,16988,t,0,0,0
0:47.286,17023,),0,0,2
0:47.400,17064,(,0,0,0
0:47.442,17079,p,0,0,0
0:47.536,17113,),0,0,0
0:47.592,17133,(,0,0,1
0:47.622,17144,N,0,0,0
0:47.672,17162,),0,0,1
0:47.758,17193,(,0,0,2
0:47.858,17229,t,0,0,0
0:47.933,17256,),0,0,2
0:48.064,17303,(,0,0,0
0:48.100,17316,p,0,0,0
0:48.183,17346,),0,0,0
0:48.244,17368,(,0,0,1
0:48.275,17379,N,0,0,0
0:48.325,17397,),0,0,1
0:48.378,17416,(,0,0,2
0:48.506,17462,t,0,0,0
0:48.589,17492,),0,0,2
0:48.719,17539,(,0,0,0
0:48.756,17552,p,0,0,0
0:48.847,17585,),0,0,0
0:48.903,17605,(,0,0,1
0:48.936,17617,N,0,0,0
0:48.983,17634,),0,0,1
0:49.047,17657,(,0,0,2
0:49.161,17698,t,0,0,0
0:49.247,17729,),0,0,2
0:49.367,17772,(,0,0,0
0:49.414,17789,p,0,0,0
0:49.447,17801,),0,0,0
0:49.544,17836,(,0,0,1
0:49.575,17847,N,0,0,0
0:49.622,17864,),0,0,1
0:49.686,17887,(,0,0,2
0:49.806,17930,t,0,0,0
0:49.897,17963,),0,0,2
0:49.997,17999,(,0,0,0
0:50.036,18013,p,0,0,0
0:50.122,18044,),0,0,0
0:50.175,18063,(,0,0,1
0:50.206,18074,N,0,0,0
0:50.253,18091,),0,0,1
0:50.331,18119,(,0,0,2
0:50.419,18151,t,0,0,0
0:50.522,18188,),0,0,2
0:50.622,18224,(,0,0,0
0:50.667,18240,p,0,0,0
0:50.753,18271,),0,0,0
0:50.806,18290,(,0,0,1
0:50.839,18302,N,0,0,0
0:50.886,18319,),0,0,1
0:50.944,18340,(,0,0,2
0:51.053,18379,t,0,0,0
0:51.131,18407,),0,0,2
0:51.244,18448,(,0,0,0
0:51.286,18463,p,0,0,0
0:51.367,18492,),0,0,0
0:51.417,18510,(,0,0,1
0:51.447,18521,N,0,0,0
0:51.492,18537,),0,0,1
0:51.581,18569,(,0,0,2
0:51.669,18601,t,0,0,0
0:51.744,18628,),0,0,2
0:51.858,18669,(,0,0,0
0:51.914,18689,p,0,0,0
0:51.994,18718,),0,0,0
0:52.047,18737,(,0,0,1
0:52.078,18748,N,0,0,0
0:52.122,18764,),0,0,1
0:52.192,18789,(,0,0,2
0:52.294,18826,t,0,0,0
0:52.369,18853,),0,0,2
0:52.478,18892,(,0,0,0
0:52.519,18907,p,0,0,0
0:52.625,18945,),0,0,0
0:52.669,18961,(,0,0,1
0:52.703,18973,N,0,0,0
0:52.747,18989,),0,0,1
0:52.806,19010,(,0,0,2
0:52.922,19052,t,0,0,0
0:52.989,19076,),0,0,2
0:53.011,19084,(,0,0,0
0:53.042,19095,p,0,0,0
0:53.083,19110,),0,0,0
0:53.161,19138,(,0,0,1
0:53.189,19148,N,0,0,0
0:53.233,19164,),0,0,1
0:53.300,19188,(,0,0,2
0:53.392,19221,t,0,0,0
0:53.486,19255,),0,0,2
0:53.692,19329,(,0,0,0
0:53.756,19352,p,0,0,0
0:53.817,19374,),0,0,0
0:53.867,19392,(,0,0,1
0:53.900,19404,N,0,0,0
0:53.947,19421,),0,0,1
0:54.047,19457,(,0,0,2
0:54.142,19491,t,0,0,0
0:54.228,19522,),0,0,2
0:54.347,19565,(,0,0,0
0:54.375,19575,p,0,0,0
0:54.464,19607,),0,0,0
0:54.522,19628,(,0,0,1
0:54.553,19639,N,0,0,0
0:54.600,19656,),0,0,1
0:54.669,19681,(,0,0,2
0:54.783,19722,t,0,0,0
0:54.856,19748,),0,0,2
0:54.975,19791,(,0,0,0
0:55.033,19812,p,0,0,0
0:55.114,19841,),0,0,0
0:55.169,19861,(,0,0,1
0:55.200,19872,N,0,0,0
0:55.250,19890,),0,0,1
0:55.319,19915,(,0,0,2
0:55.425,19953,t,0,0,0
0:55.511,19984,),0,0,2
0:55.636,20029,(,0,0,0
0:55.669,20041,p,0,0,0
0:55.769,20077,),0,0,0
0:55.819,20095,(,0,0,1
0:55.853,20107,N,0,0,0
0:55.897,20123,),0,0,1
0:56.000,20160,(,0,0,2
0:56.083,20190,t,0,0,0
0:56.156,20216,),0,0,2
0:56.281,20261,(,0,0,0
0:56.317,20274,p,0,0,0
0:56.347,20285,),0,0,0
0:56.450,20322,(,0,0,1
0:56.481,20333,N,0,0,0
0:56.533,20352,),0,0,1
0:56.603,20377,(,0,0,2
0:56.697,20411,t,0,0,0
0:56.778,20440,),0,0,2
0:56.894,20482,(,0,0,0
0:56.936,20497,p,0,0,0
0:57.025,20529,),0,0,0
0:57.075,20547,(,0,0,1
0:57.106,20558,N,0,0,0
0:57.153,20575,),0,0,1
0:57.233,20604,(,0,0,2
0:57.325,20637,t,0,0,0
0:57.408,20667,),0,0,2
0:57.506,20702,(,0,0,0
0:57.547,20717,p,0,0,0
0:57.594,20734,),0,0,0
0:57.692,20769,(,0,0,1
0:57.719,20779,N,0,0,0
0:57.764,20795,),0,0,1
0:57.822,20816,(,0,0,2
0:57.931,20855,t,0,0,0
0:58.011,20884,),0,0,2
0:58.117,20922,(,0,0,0
0:58.156,20936,p,0,0,0
0:58.239,20966,),0,0,0
0:58.289,20984,(,0,0,1
0:58.319,20995,N,0,0,0
0:58.367,21012,),0,0,1
0:58.431,21035,(,0,0,2
0:58.536,21073,t,0,0,0
0:58.608,21099,),0,0,2
0:58.711,21136,(,0,0,0
0:58.761,21154,p,0,0,0
0:58.836,21181,),0,0,0
0:58.889,21200,(,0,0,1
0:58.917,21210,N,0,0,0
0:58.958,21225,),0,0,1
0:59.017,21246,(,0,0,2
0:59.122,21284,t,0,0,0
0:59.206,21314,),0,0,2
0:59.333,21360,(,0,0,0
0:59.369,21373,p,0,0,0
0:59.453,21403,),0,0,0
0:59.500,21420,(,0,0,1
0:59.531,21431,N,0,0,0
0:59.575,21447,),0,0,1
0:59.636,21469,(,0,0,2
0:59.756,21512,t,0,0,0
0:59.856,21548,),0,0,2
0:59.961,21586,(,0,0,0
1:00.014,21605,p,0,0,0
1:00.056,21620,),0,0,0
1:00.150,21654,(,0,0,1
1:00.183,21666,N,0,0,0
1:00.233,21684,),0,0,1
1:00.286,21703,(,0,0,2
1:00.428,21754,t,0,0,0
1:00.517,21786,),0,0,2
1:00.647,21833,(,0,0,0
1:00.681,21845,p,0,0,0
1:00.767,21876,),0,0,0
1:00.833,21900,(,0,0,1
1:00.861,21910,N,0,0,0
1:00.908,21927,),0,0,1
1:00.978,21952,(,0,0,2
1:01.100,21996,t,0,0,0
1:01.189,22028,),0,0,2
1:01.339,22082,(,0,0,0
1:01.383,22098,p,0,0,0
1:01.464,22127,),0,0,0
1:01.517,22146,(,0,0,1
1:01.547,22157,N,0,0,0
1:01.594,22174,),0,0,1
1:01.656,22196,(,0,0,2
1:01.775,22239,t,0,0,0
1:01.858,22269,),0,0,2
1:01.983,22314,(,0,0,0
1:02.022,22328,p,0,0,0
1:02.111,22360,),0,0,0
1:02.158,22377,(,0,0,1
1:02.186,22387,N,0,0,0
1:02.231,22403,),0,0,1
1:02.300,22428,(,0,0,2
1:02.422,22472,t,0,0,0
1:02.500,22500,),0,0,2
1:02.625,22545,(,0,0,0
1:02.664,22559,p,0,0,0
1:02.750,22590,),0,0,0
1:02.792,22605,(,0,0,1
1:02.822,22616,N,0,0,0
1:02.872,22634,),0,0,1
1:02.919,22651,(,0,0,2
1:03.036,22693,t,0,0,0
1:03.119,22723,),0,0,2
1:03.239,22766,(,0,0,0
1:03.275,22779,p,0,0,0
1:03.358,22809,),0,0,0
1:03.408,22827,(,0,0,1
1:03.439,22838,N,0,0,0
1:03.486,22855,),0,0,1
1:03.544,22876,(,0,0,2
1:03.661,22918,t,0,0,0
1:03.758,22953,),0,0,2
1:03.853,22987,(,0,0,0
1:03.892,23001,p,0,0,0
1:03.986,23035,),0,0,0
1:04.036,23053,(,0,0,1
1:04.067,23064,N,0,0,0
1:04.114,23081,),0,0,1
1:04.192,23109,(,0,0,2
1:04.289,23144,t,0,0,0
1:04.381,23177,),0,0,2
1:04.489,23216,(,0,0,0
1:04.528,23230,p,0,0,0
1:04.614,23261,),0,0,0
1:04.661,23278,(,0,0,1
1:04.694,23290,N,0,0,0
1:04.742,23307,),0,0,1
1:04.794,23326,(,0,0,2
1:04.908,23367,t,0,0,0
1:04.986,23395,),0,0,2
1:05.075,23427,(,0,0,0
1:05.114,23441,p,0,0,0
1:05.203,23473,),0,0,0
1:05.250,23490,(,0,0,1
1:05.281,23501,N,0,0,0
1:05.328,23518,),0,0,1
1:05.392,23541,(,0,0,2
1:05.506,23582,t,0,0,0
1:05.594,23614,),0,0,2
1:05.706,23654,(,0,0,0
1:05.744,23668,p,0,0,0
1:05.831,23699,),0,0,0
1:05.886,23719,(,0,0,1
1:05.917,23730,N,0,0,0
1:05.964,23747,),0,0,1
1:06.031,23771,(,0,0,2
1:06.136,23809,t,0,0,0
1:06.217,23838,),0,0,2
1:06.331,23879,(,0,0,0
1:06.372,23894,p,0,0,0
1:06.461,23926,),0,0,0
1:06.517,23946,(,0,0,1
1:06.550,23958,N,0,0,0
1:06.597,23975,),0,0,1
1:06.661,23998,(,0,0,2
1:06.778,24040,t,0,0,0
1:06.861,24070,),0,0,2
1:06.939,24098,(,0,0,0
1:06.981,24113,p,0,0,0
1:07.050,24138,),0,0,0
1:07.103,24157,(,0,0,1
1:07.133,24168,N,0,0,0
1:07.181,24185,),0,0,1
1:07.233,24204,(,0,0,2
1:07.361,24250,t,0,0,0
1:07.444,24280,),0,0,2
1:07.617,24342,(,0,0,0
1:07.656,24356,p,0,0,0
1:07.744,24388,),0,0,0
1:07.792,24405,(,0,0,1
1:07.825,24417,N,0,0,0
1:07.869,24433,),0,0,1
1:07.936,24457,(,0,0,2
1:08.044,24496,t,0,0,0
1:08.117,24522,),0,0,2
1:08.233,24564,(,0,0,0
1:08.269,24577,p,0,0,0
1:08.358,24609,),0,0,0
1:08.414,24629,(,0,0,1
1:08.444,24640,N,0,0,0
1:08.489,24656,),0,0,1
1:08.569,24685,(,0,0,2
1:08.675,24723,t,0,0,0
1:08.772,24758,),0,0,2
1:08.883,24798,(,0,0,0
1:08.919,24811,p,0,0,0
1:09.000,24840,),0,0,0
1:09.056,24860,(,0,0,1
1:09.083,24870,N,0,0,0
1:09.131,24887,),0,0,1
1:09.203,24913,(,0,0,2
1:09.308,24951,t,0,0,0
1:09.394,24982,),0,0,2
1:09.511,25024,(,0,0,0
1:09.544,25036,p,0,0,0
1:09.583,25050,),0,0,0
1:09.653,25075,(,0,0,1
1:09.711,25096,N,0,0,0
1:09.756,25112,),0,0,1
1:09.819,25135,(,0,0,2
1:09.928,25174,t,0,0,0
1:10.017,25206,),0,0,2
1:10.114,25241,(,0,0,0
1:10.153,25255,p,0,0,0
1:10.231,25283,),0,0,0
1:10.283,25302,(,0,0,1
1:10.314,25313,N,0,0,0
1:10.361,25330,),0,0,1
1:10.425,25353,(,0,0,2
1:10.533,25392,t,0,0,0
1:10.611,25420,),0,0,2
1:10.628,25426,(,0,0,0
1:10.678,25444,p,0,0,0
1:10.736,25465,),0,0,0
1:10.792,25485,(,0,0,1
1:10.819,25495,N,0,0,0
1:10.864,25511,),0,0,1
1:10.933,25536,(,0,0,2
1:11.008,25563,t,0,0,0
1:11.089,25592,),0,0,2
1:11.286,25663,(,0,0,0
1:11.325,25677,p,0,0,0
1:11.406,25706,),0,0,0
1:11.456,25724,(,0,0,1
1:11.486,25735,N,0,0,0
1:11.531,25751,),0,0,1
1:11.597,25775,(,0,0,2
1:11.719,25819,t,0,0,0
1:11.792,25845,),0,0,2
1:11.919,25891,(,0,0,0
1:11.956,25904,p,0,0,0
1:12.042,25935,),0,0,0
1:12.100,25956,(,0,0,1
1:12.131,25967,N,0,0,0
1:12.181,25985,),0,0,1
1:12.242,26007,(,0,0,2
1:12.361,26050,t,0,0,0
1:12.458,26085,),0,0,2
1:12.578,26128,(,0,0,0
1:12.619,26143,p,0,0,0
1:12.706,26174,),0,0,0
1:12.764,26195,(,0,0,1
1:12.797,26207,N,0,0,0
1:12.850,26226,),0,0,1
1:12.950,26262,(,0,0,2
1:13.039,26294,t,0,0,0
1:13.131,26327,),0,0,2
1:13.242,26367,(,0,0,0
1:13.272,26378,p,0,0,0
1:13.356,26408,),0,0,0
1:13.419,26431,(,0,0,1
1:13.453,26443,N,0,0,0
1:13.497,26459,),0,0,1
1:13.828,26578,(,0,0,0
1:13.925,26613,p,0,0,0
1:13.958,26625,),0,0,0
1:14.053,26659,(,0,0,1
1:14.083,26670,N,0,0,0
1:14.128,26686,),0,0,1
1:14.161,26698,(,0,0,2
1:14.297,26747,t,0,0,0
1:14.375,26775,),0,0,2
1:14.492,26817,(,0,0,0
1:14.528,26830,p,0,0,0
1:14.617,26862,),0,0,0
1:14.667,26880,(,0,0,1
1:14.694,26890,N,0,0,0
1:14.739,26906,),0,0,1
1:14.822,26936,(,0,0,2
1:14.922,26972,t,0,0,0
1:15.011,27004,),0,0,2
1:15.125,27045,(,0,0,0
1:15.164,27059,p,0,0,0
1:15.236,27085,),0,0,0
1:15.289,27104,(,0,0,1
1:15.319,27115,N,0,0,0
1:15.364,27131,),0,0,1
1:15.431,27155,(,0,0,2
1:15.542,27195,t,0,0,0
1:15.614,27221,),0,0,2
1:15.736,27265,(,0,0,0
1:15.775,27279,p,0,0,0
1:15.850,27306,),0,0,0
1:15.908,27327,(,0,0,1
1:15.939,27338,N,0,0,0
1:15.983,27354,),0,0,1
1:16.033,27372,(,0,0,2
1:16.156,27416,t,0,0,0
1:16.242,27447,),0,0,2
1:16.336,27481,(,0,0,0
1:16.372,27494,p,0,0,0
1:16.447,27521,),0,0,0
1:16.506,27542,(,0,0,1
1:16.536,27553,N,0,0,0
1:16.581,27569,),0,0,1
1:16.622,27584,(,0,0,2
1:16.744,27628,t,0,0,5
1:16.836,27661,t,0,0,5
1:16.864,27671,),0,0,2
1:16.917,27690,(,0,0,0
1:16.950,27702,p,0,0,0
1:17.033,27732,),0,0,0
1:17.083,27750,(,0,0,1
1:17.114,27761,N,0,0,0
1:17.158,27777,),0,0,1
1:17.233,27804,(,0,0,2
1:17.328,27838,t,0,0,0
1:17.417,27870,),0,0,2
1:17.525,27909,(,0,0,0
1:17.556,27920,p,0,0,0
1:17.647,27953,),0,0,0
1:17.703,27973,(,0,0,1
1:17.733,27984,N,0,0,0
1:17.781,28001,),0,0,1
1:17.853,28027,(,0,0,2
1:17.969,28069,t,0,0,0
1:18.050,28098,),0,0,2
1:18.172,28142,(,0,0,0
1:18.206,28154,p,0,0,0
1:18.294,28186,),0,0,0
1:18.350,28206,(,0,0,1
1:18.383,28218,N,0,0,0
1:18.428,28234,),0,0,1
1:18.497,28259,(,0,0,2
1:18.611,28300,t,0,0,0
1:18.697,28331,),0,0,2
1:18.808,28371,(,0,0,0
1:18.858,28389,p,0,0,0
1:18.944,28420,),0,0,0
1:19.000,28440,(,0,0,1
1:19.031,28451,N,0,0,0
1:19.075,28467,),0,0,1
1:19.150,28494,(,0,0,2
1:19.258,28533,t,0,0,0
1:19.336,28561,),0,0,2
1:19.447,28601,(,0,0,0
1:19.489,28616,p,0,0,0
1:19.575,28647,),0,0,0
1:19.631,28667,(,0,0,1
1:19.661,28678,N,0,0,0
1:19.706,28694,),0,0,1
1:19.772,28718,(,0,0,2
1:19.886,28759,t,0,0,0
1:19.967,28788,),0,0,2
1:20.072,28826,(,0,0,0
1:20.114,28841,p,0,0,0
1:20.203,28873,),0,0,0
1:20.250,28890,(,0,0,1
1:20.281,28901,N,0,0,0
1:20.331,28919,),0,0,1
1:20.397,28943,(,0,0,2
1:20.519,28987,t,0,0,0
1:20.600,29016,),0,0,2
1:20.706,29054,(,0,0,0
1:20.750,29070,p,0,0,0
1:20.833,29100,),0,0,0
1:20.889,29120,(,0,0,1
1:20.919,29131,N,0,0,0
1:20.969,29149,),0,0,1
1:21.019,29167,(,0,0,2
1:21.147,29213,t,0,0,0
1:21.239,29246,),0,0,2
1:21.342,29283,(,0,0,0
1:21.381,29297,p,0,0,0
1:21.467,29328,),0,0,0
1:21.514,29345,(,0,0,1
1:21.544,29356,N,0,0,0
1:21.592,29373,),0,0,1
1:21.653,29395,(,0,0,2
1:21.758,29433,t,0,0,0
1:21.850,29466,),0,0,2
1:21.942,29499,(,0,0,0
1:21.986,29515,p,0,0,0
1:22.069,29545,),0,0,0
1:22.119,29563,(,0,0,1
1:22.150,29574,N,0,0,0
1:22.197,29591,),0,0,1
1:22.264,29615,(,0,0,2
1:22.367,29652,t,0,0,0
1:22.450,29682,),0,0,2
1:22.550,29718,(,0,0,0
1:22.592,29733,p,0,0,0
1:22.661,29758,),0,0,0
1:22.703,29773,(,0,0,1
1:22.731,29783,N,0,0,0
1:22.775,29799,),0,0,1
1:22.819,29815,(,0,0,2
1:22.933,29856,t,0,0,0
1:23.008,29883,),0,0,2
1:23.125,29925,(,0,0,0
1:23.169,29941,p,0,0,0
1:23.247,29969,),0,0,0
1:23.300,29988,(,0,0,1
1:23.331,29999,N,0,0,0
1:23.375,30015,),0,0,1
1:23.436,30037,(,0,0,2
1:23.547,30077,t,0,0,0
1:23.628,30106,),0,0,2
1:23.736,30145,(,0,0,0
1:23.778,30160,p,0,0,0
1:23.867,30192,),0,0,0
1:23.889,30200,(,0,0,1
1:23.953,30223,N,0,0,0
1:23.997,30239,),0,0,1
1:24.086,30271,(,0,0,2
1:24.183,30306,t,0,0,0
1:24.261,30334,),0,0,2
1:24.381,30377,(,0,0,0
1:24.436,30397,p,0,0,0
1:24.519,30427,),0,0,0
1:24.569,30445,(,0,0,1
1:24.600,30456,N,0,0,0
1:24.644,30472,),0,0,1
1:24.694,30490,(,0,0,2
1:24.825,30537,t,0,0,0
1:24.922,30572,),0,0,2
1:25.031,30611,(,0,0,0
1:25.072,30626,p,0,0,0
1:25.167,30660,),0,0,0
1:25.219,30679,(,0,0,1
1:25.250,30690,N,0,0,0
1:25.300,30708,),0,0,1
1:25.372,30734,(,0,0,2
1:25.478,30772,t,0,0,0
1:25.569,30805,),0,0,2
1:25.681,30845,(,0,0,0
1:25.728,30862,p,0,0,0
1:25.811,30892,),0,0,0
1:25.864,30911,(,0,0,1
1:25.894,30922,N,0,0,0
1:25.942,30939,),0,0,1
1:26.003,30961,(,0,0,2
1:26.119,31003,t,0,0,0
1:26.194,31030,),0,0,2
1:26.328,31078,(,0,0,0
1:26.367,31092,p,0,0,0
1:26.453,31123,),0,0,0
1:26.508,31143,(,0,0,1
1:26.539,31154,N,0,0,0
1:26.583,31170,),0,0,1
1:26.653,31195,(,0,0,2
1:26.756,31232,t,0,0,0
1:26.831,31259,),0,0,2
1:26.964,31307,(,0,0,0
1:27.003,31321,p,0,0,0
1:27.083,31350,),0,0,0
1:27.142,31371,(,0,0,1
1:27.172,31382,N,0,0,0
1:27.219,31399,),0,0,1
1:27.283,31422,(,0,0,2
1:27.389,31460,t,0,0,0
1:27.475,31491,),0,0,2
1:27.603,31537,(,0,0,0
1:27.644,31552,p,0,0,0
1:27.731,31583,),0,0,0
1:27.781,31601,(,0,0,1
1:27.808,31611,N,0,0,0
1:27.853,31627,),0,0,1
1:27.900,31644,(,0,0,2
1:28.017,31686,t,0,0,0
1:28.111,31720,),0,0,2
1:28.222,31760,(,0,0,0
1:28.264,31775,p,0,0,0
1:28.347,31805,),0,0,0
1:28.397,31823,(,0,0,1
1:28.428,31834,N,0,0,0
1:28.472,31850,),0,0,1
1:28.533,31872,(,0,0,2
1:28.639,31910,t,0,0,0
1:28.736,31945,),0,0,2
1:28.856,31988,(,0,0,0
1:28.892,32001,p,0,0,0
1:28.972,32030,),0,0,0
1:29.014,32045,(,0,0,1
1:29.047,32057,N,0,0,0
1:29.094,32074,),0,0,1
1:29.161,32098,(,0,0,2
1:29.269,32137,t,0,0,0
1:29.367,32172,),0,0,2
1:29.511,32224,(,0,0,0
1:29.550,32238,p,0,0,0
1:29.633,32268,),0,0,0
1:29.689,32288,(,0,0,1
1:29.719,32299,N,0,0,0
1:29.767,32316,),0,0,1
1:29.856,32348,(,0,0,2
1:29.944,32380,t,0,0,0
1:30.025,32409,),0,0,2
1:30.183,32466,(,0,0,0
1:30.219,32479,p,0,0,0
1:30.311,32512,),0,0,0
1:30.369,32533,(,0,0,1
1:30.400,32544,N,0,0,0
1:30.447,32561,),0,0,1
1:30.514,32585,(,0,0,2
1:30.636,32629,t,0,0,0
1:30.725,32661,),0,0,2
1:30.867,32712,(,0,0,0
1:30.906,32726,p,0,0,0
1:30.944,32740,),0,0,0
1:31.044,32776,(,0,0,1
1:31.075,32787,N,0,0,0
1:31.122,32804,),0,0,1
1:31.194,32830,(,0,0,2
1:31.294,32866,t,0,0,0
1:31.386,32899,),0,0,2
1:31.528,32950,(,0,0,0
1:31.564,32963,p,0,0,0
1:31.656,32996,),0,0,0
1:31.711,33016,(,0,0,1
1:31.744,33028,N,0,0,0
1:31.792,33045,),0,0,1
1:31.867,33072,(,0,0,2
1:31.964,33107,t,0,0,0
1:32.050,33138,),0,0,2
1:32.186,33187,(,0,0,0
1:32.219,33199,p,0,0,0
1:32.303,33229,),0,0,0
1:32.358,33249,(,0,0,1
1:32.389,33260,N,0,0,0
1:32.436,33277,),0,0,1
1:32.503,33301,(,0,0,2
1:32.617,33342,t,0,0,0
1:32.703,33373,),0,0,2
1:32.833,33420,(,0,0,0
1:32.872,33434,p,0,0,0
1:32.953,33463,),0,0,0
1:33.003,33481,(,0,0,1
1:33.033,33492,N,0,0,0
1:33.078,33508,),0,0,1
1:33.144,33532,(,0,0,2
1:33.250,33570,t,0,0,0
1:33.325,33597,),0,0,2
1:33.453,33643,(,0,0,0
1:33.492,33657,p,0,0,0
1:33.589,33692,),0,0,0
1:33.636,33709,(,0,0,1
1:33.667,33720,N,0,0,0
1:33.711,33736,),0,0,1
1:33.781,33761,(,0,0,2
1:33.881,33797,t,0,0,0
1:33.967,33828,),0,0,2
1:34.019,33847,(,0,0,0
1:34.069,33865,p,0,0,0
1:34.128,33886,),0,0,0
1:34.192,33909,(,0,0,1
1:34.222,33920,N,0,0,0
1:34.267,33936,),0,0,1
1:34.336,33961,(,0,0,2
1:34.439,33998,t,0,0,0
1:34.519,34027,),0,0,2
1:34.719,34099,(,0,0,0
1:34.758,34113,p,0,0,0
1:34.844,34144,),0,0,0
1:34.886,34159,(,0,0,1
1:34.917,34170,N,0,0,0
1:34.958,34185,),0,0,1
1:35.008,34203,(,0,0,2
1:35.111,34240,t,0,0,0
1:35.194,34270,),0,0,2
1:35.319,34315,(,0,0,0
1:35.353,34327,p,0,0,0
1:35.439,34358,),0,0,0
1:35.494,34378,(,0,0,1
1:35.525,34389,N,0,0,0
1:35.569,34405,),0,0,1
1:35.642,34431,(,0,0,2
1:35.744,34468,t,0,0,0
1:35.833,34500,),0,0,2
1:35.958,34545,(,0,0,0
1:35.994,34558,p,0,0,0
1:36.081,34589,),0,0,0
1:36.136,34609,(,0,0,1
1:36.167,34620,N,0,0,0
1:36.217,34638,),0,0,1
1:36.264,34655,(,0,0,2
1:36.392,34701,t,0,0,0
1:36.481,34733,),0,0,2
1:36.614,34781,(,0,0,0
1:36.650,34794,p,0,0,0
1:36.731,34823,),0,0,0
1:36.789,34844,(,0,0,1
1:36.819,34855,N,0,0,0
1:36.867,34872,),0,0,1
1:36.933,34896,(,0,0,2
1:37.053,34939,t,0,0,0
1:37.142,34971,),0,0,2
1:37.272,35018,(,0,0,0
1:37.314,35033,p,0,0,0
1:37.394,35062,),0,0,0
1:37.458,35085,(,0,0,1
1:37.489,35096,N,0,0,0
1:37.536,35113,),0,0,1
1:37.597,35135,(,0,0,2
1:37.728,35182,t,0,0,0
1:37.819,35215,),0,0,2
1:37.933,35256,(,0,0,0
1:37.981,35273,p,0,0,0
1:38.058,35301,),0,0,0
1:38.114,35321,(,0,0,1
1:38.142,35331,N,0,0,0
1:38.189,35348,),0,0,1
1:38.250,35370,(,0,0,2
1:38.356,35408,t,0,0,0
1:38.442,35439,),0,0,2
1:38.569,35485,(,0,0,0
1:38.611,35500,p,0,0,0
1:38.683,35526,),0,0,0
1:38.739,35546,(,0,0,1
1:38.769,35557,N,0,0,0
1:38.819,35575,),0,0,1
1:38.894,35602,(,0,0,2
1:38.997,35639,t,0,0,0
1:39.094,35674,),0,0,2
1:39.189,35708,(,0,0,0
1:39.236,35725,p,0,0,0
1:39.314,35753,),0,0,0
1:39.367,35772,(,0,0,1
1:39.394,35782,N,0,0,0
1:39.439,35798,),0,0,1
1:39.492,35817,(,0,0,2
1:39.600,35856,t,0,0,0
1:39.683,35886,),0,0,2
1:39.800,35928,(,0,0,0
1:39.839,35942,p,0,0,0
1:39.919,35971,),0,0,0
1:39.972,35990,(,0,0,1
1:40.003,36001,N,0,0,0
1:40.047,36017,),0,0,1
1:40.108,36039,(,0,0,2
1:40.222,36080,t,0,0,0
1:40.325,36117,),0,0,2
1:40.442,36159,(,0,0,1
1:40.469,36169,N,0,0,0
1:40.514,36185,),0,0,1
1:40.586,36211,(,0,0,2
1:40.681,36245,t,0,0,5
1:40.778,36280,t,0,0,5
1:40.836,36301,),0,0,2
1:40.942,36339,(,0,0,0
1:40.978,36352,p,0,0,0
1:41.050,36378,),0,0,0
1:41.097,36395,(,0,0,1
1:41.131,36407,N,0,0,0
1:41.178,36424,),0,0,1
1:41.228,36442,(,0,0,2
1:41.353,36487,t,0,0,0
1:41.425,36513,),0,0,2
1:41.567,36564,(,0,0,0
1:41.600,36576,p,0,0,0
1:41.686,36607,),0,0,0
1:41.747,36629,(,0,0,1
1:41.781,36641,N,0,0,0
1:41.825,36657,),0,0,1
1:41.900,36684,(,0,0,2
1:42.003,36721,t,0,0,0
1:42.086,36751,),0,0,2
1:42.211,36796,(,0,0,0
1:42.264,36815,p,0,0,0
1:42.344,36844,),0,0,0
1:42.403,36865,(,0,0,1
1:42.433,36876,N,0,0,0
1:42.481,36893,),0,0,1
1:42.561,36922,(,0,0,2
1:42.667,36960,t,0,0,0
1:42.753,36991,),0,0,2
1:42.881,37037,(,0,0,0
1:42.919,37051,p,0,0,0
1:43.014,37085,),0,0,0
1:43.067,37104,(,0,0,1
1:43.097,37115,N,0,0,0
1:43.144,37132,),0,0,1
1:43.222,37160,(,0,0,2
1:43.319,37195,t,0,0,0
1:43.414,37229,),0,0,2
1:43.519,37267,(,0,0,0
1:43.556,37280,p,0,0,0
1:43.639,37310,),0,0,0
1:43.692,37329,(,0,0,1
1:43.722,37340,N,0,0,0
1:43.772,37358,),0,0,1
1:43.842,37383,(,0,0,2
1:43.942,37419,t,0,0,0
1:44.036,37453,),0,0,2
1:44.164,37499,(,0,0,0
1:44.208,37515,p,0,0,0
1:44.281,37541,),0,0,0
1:44.333,37560,(,0,0,1
1:44.367,37572,N,0,0,0
1:44.414,37589,),0,0,1
1:44.467,37608,(,0,0,2
1:44.578,37648,t,0,0,0
1:44.664,37679,),0,0,2
1:44.769,37717,(,0,0,0
1:44.825,37737,p,0,0,0
1:44.900,37764,),0,0,0
1:44.953,37783,(,0,0,1
1:44.983,37794,N,0,0,0
1:45.028,37810,),0,0,1
1:45.097,37835,(,0,0,2
1:45.200,37872,t,0,0,0
1:45.289,37904,),0,0,2
1:45.394,37942,(,0,0,0
1:45.433,37956,p,0,0,0
1:45.511,37984,),0,0,0
1:45.567,38004,(,0,0,1
1:45.600,38016,N,0,0,0
1:45.647,38033,),0,0,1
1:45.708,38055,(,0,0,2
1:45.819,38095,t,0,0,0
1:45.900,38124,),0,0,2
1:46.019,38167,(,0,0,0
1:46.058,38181,p,0,0,0
1:46.142,38211,),0,0,0
1:46.197,38231,(,0,0,1
1:46.228,38242,N,0,0,0
1:46.272,38258,),0,0,1
1:46.353,38287,(,0,0,2
1:46.450,38322,t,0,0,0
1:46.531,38351,),0,0,2
1:46.633,38388,(,0,0,0
1:46.678,38404,p,0,0,0
1:46.756,38432,),0,0,0
1:46.806,38450,(,0,0,1
1:46.836,38461,N,0,0,0
1:46.878,38476,),0,0,1
1:46.939,38498,(,0,0,2
1:47.028,38530,t,0,0,0
1:47.111,38560,),0,0,2
1:47.222,38600,(,0,0,0
1:47.261,38614,p,0,0,0
1:47.344,38644,),0,0,0
1:47.400,38664,(,0,0,1
1:47.431,38675,N,0,0,0
1:47.475,38691,),0,0,1
1:47.539,38714,(,0,0,2
1:47.644,38752,t,0,0,0
1:47.722,38780,),0,0,2
1:47.831,38819,(,0,0,0
1:47.881,38837,p,0,0,0
1:47.919,38851,),0,0,0
1:48.017,38886,(,0,0,1
1:48.047,38897,N,0,0,0
1:48.092,38913,),0,0,1
1:48.167,38940,(,0,0,2
1:48.258,38973,t,0,0,0
1:48.364,39011,),0,0,2
1:48.478,39052,(,0,0,0
1:48.525,39069,p,0,0,0
1:48.597,39095,),0,0,0
1:48.661,39118,(,0,0,1
1:48.692,39129,N,0,0,0
1:48.742,39147,),0,0,1
1:48.856,39188,(,0,0,2
1:48.925,39213,t,0,0,0
1:49.017,39246,),0,0,2
1:49.092,39273,(,0,0,0
1:49.167,39300,p,0,0,0
1:49.242,39327,),0,0,0
1:49.311,39352,(,0,0,1
1:49.342,39363,N,0,0,0
1:49.389,39380,),0,0,1
1:49.442,39399,(,0,0,2
1:49.558,39441,t,0,0,5
1:49.647,39473,t,0,0,5
1:49.681,39485,),0,0,2
1:49.761,39514,(,0,0,0
1:49.811,39532,p,0,0,0
1:49.844,39544,),0,0,0
1:49.931,39575,(,0,0,1
1:49.958,39585,N,0,0,0
1:50.006,39602,),0,0,1
1:50.064,39623,(,0,0,2
1:50.172,39662,t,0,0,0
1:50.269,39697,),0,0,2
1:50.375,39735,(,0,0,0
1:50.447,39761,p,0,0,0
1:50.539,39794,),0,0,0
1:50.553,39799,(,0,0,1
1:50.586,39811,N,0,0,0
1:50.633,39828,),0,0,1
1:50.703,39853,(,0,0,2
1:50.817,39894,t,0,0,0
1:50.897,39923,),0,0,2
1:50.997,39959,(,0,0,0
1:51.053,39979,p,0,0,0
1:51.128,40006,),0,0,0
1:51.186,40027,(,0,0,1
1:51.219,40039,N,0,0,0
1:51.267,40056,),0,0,1
1:51.339,40082,(,0,0,2
1:51.444,40120,t,0,0,0
1:51.519,40147,),0,0,2
1:51.622,40184,(,0,0,0
1:51.661,40198,p,0,0,0
1:51.750,40230,),0,0,0
1:51.797,40247,(,0,0,1
1:51.828,40258,N,0,0,0
1:51.878,40276,),0,0,1
1:51.961,40306,(,0,0,2
1:52.025,40329,t,0,0,0
1:52.119,40363,),0,0,2
1:52.231,40403,(,0,0,0
1:52.264,40415,p,0,0,0
1:52.347,40445,),0,0,0
1:52.406,40466,(,0,0,1
1:52.433,40476,N,0,0,0
1:52.481,40493,),0,0,1
1:52.539,40514,(,0,0,2
1:52.644,40552,t,0,0,0
1:52.744,40588,),0,0,2
1:52.822,40616,(,0,0,0
1:52.869,40633,p,0,0,0
1:52.950,40662,),0,0,0
1:52.981,40673,(,0,0,1
1:53.008,40683,N,0,0,0
1:53.056,40700,),0,0,1
1:53.125,40725,(,0,0,2
1:53.225,40761,t,0,0,0
1:53.314,40793,),0,0,2
1:53.425,40833,(,0,0,0
1:53.464,40847,p,0,0,0
1:53.550,40878,),0,0,0
1:53.597,40895,(,0,0,1
1:53.628,40906,N,0,0,0
1:53.675,40923,),0,0,1
1:53.758,40953,(,0,0,2
1:53.864,40991,t,0,0,0
1:53.950,41022,),0,0,2
1:54.064,41063,(,0,0,0
1:54.114,41081,p,0,0,0
1:54.156,41096,),0,0,0
1:54.247,41129,(,0,0,1
1:54.281,41141,N,0,0,0
1:54.331,41159,),0,0,1
1:54.411,41188,(,0,0,2
1:54.517,41226,t,0,0,0
1:54.606,41258,),0,0,2
1:54.722,41300,(,0,0,0
1:54.764,41315,p,0,0,0
1:54.808,41331,),0,0,0
1:54.906,41366,(,0,0,1
1:54.936,41377,N,0,0,0
1:54.981,41393,),0,0,1
1:55.056,41420,(,0,0,2
1:55.156,41456,t,0,0,0
1:55.256,41492,),0,0,2
1:55.375,41535,(,0,0,0
1:55.417,41550,p,0,0,0
1:55.453,41563,),0,0,0
1:55.550,41598,(,0,0,1
1:55.583,41610,N,0,0,0
1:55.631,41627,),0,0,1
1:55.717,41658,(,0,0,2
1:55.806,41690,t,0,0,0
1:55.897,41723,),0,0,2
1:56.011,41764,(,0,0,0
1:56.064,41783,p,0,0,0
1:56.125,41805,),0,0,0
1:56.167,41820,(,0,0,1
1:56.203,41833,N,0,0,0
1:56.247,41849,),0,0,1
1:56.306,41870,(,0,0,2
1:56.417,41910,t,0,0,0
1:56.500,41940,),0,0,2
1:56.608,41979,(,0,0,0
1:56.650,41994,p,0,0,0
1:56.742,42027,),0,0,0
1:56.794,42046,(,0,0,1
1:56.825,42057,N,0,0,0
1:56.867,42072,),0,0,1
1:56.950,42102,(,0,0,2
1:57.039,42134,t,0,0,0
1:57.114,42161,),0,0,2
1:57.225,42201,(,0,0,0
1:57.267,42216,p,0,0,0
1:57.358,42249,),0,0,0
1:57.403,42265,(,0,0,1
1:57.433,42276,N,0,0,0
1:57.478,42292,),0,0,1
1:57.553,42319,(,0,0,2
1:57.653,42355,t,0,0,0
1:57.719,42379,),0,0,2
1:57.889,42440,(,0,0,1
1:57.917,42450,N,0,0,0
1:57.961,42466,),0,0,1
1:58.028,42490,(,0,0,2
1:58.117,42522,t,0,0,0
1:58.200,42552,),0,0,2
1:58.436,42637,(,0,0,0
1:58.486,42655,p,0,0,0
1:58.558,42681,),0,0,0
1:58.603,42697,(,0,0,1
1:58.636,42709,N,0,0,0
1:58.683,42726,),0,0,1
1:58.753,42751,(,0,0,2
1:58.864,42791,t,0,0,0
1:58.939,42818,),0,0,2
1:59.061,42862,(,0,0,0
1:59.083,42870,p,0,0,0
1:59.172,42902,),0,0,0
1:59.222,42920,(,0,0,1
1:59.250,42930,N,0,0,0
1:59.300,42948,),0,0,1
1:59.372,42974,(,0,0,2
1:59.478,43012,t,0,0,5
1:59.597,43055,t,0,0,5
1:59.633,43068,),0,0,2
1:59.706,43094,(,0,0,0
1:59.756,43112,p,0,0,0
1:59.836,43141,),0,0,0
1:59.889,43160,(,0,0,1
1:59.919,43171,N,0,0,0
1:59.967,43188,),0,0,1
2:00.025,43209,(,0,0,2
2:00.144,43252,t,0,0,0
2:00.233,43284,),0,0,2
2:00.381,43337,(,0,0,0
2:00.419,43351,p,0,0,0
2:00.514,43385,),0,0,0
2:00.564,43403,(,0,0,1
2:00.597,43415,N,0,0,0
2:00.642,43431,),0,0,1
2:00.692,43449,(,0,0,2
2:00.831,43499,t,0,0,0
2:00.911,43528,),0,0,2
2:01.039,43574,(,0,0,0
2:01.075,43587,p,0,0,0
2:01.147,43613,),0,0,0
2:01.197,43631,(,0,0,1
2:01.228,43642,N,0,0,0
2:01.272,43658,),0,0,1
2:01.336,43681,(,0,0,2
2:01.450,43722,t,0,0,0
2:01.531,43751,),0,0,2
2:01.706,43814,(,0,0,0
2:01.742,43827,p,0,0,0
2:01.825,43857,),0,0,0
2:01.881,43877,(,0,0,1
2:01.908,43887,N,0,0,0
2:01.953,43903,),0,0,1
2:02.017,43926,(,0,0,2
2:02.136,43969,t,0,0,0
2:02.217,43998,),0,0,2
2:02.339,44042,(,0,0,0
2:02.389,44060,p,0,0,0
2:02.472,44090,),0,0,0
2:02.531,44111,(,0,0,1
2:02.561,44122,N,0,0,0
2:02.608,44139,),0,0,1
2:02.658,44157,(,0,0,2
2:02.781,44201,t,0,0,0
2:02.869,44233,),0,0,2
2:03.003,44281,(,0,0,0
2:03.047,44297,p,0,0,0
2:03.128,44326,),0,0,0
2:03.183,44346,(,0,0,1
2:03.214,44357,N,0,0,0
2:03.258,44373,),0,0,1
2:03.319,44395,(,0,0,2
2:03.431,44435,t,0,0,0
2:03.514,44465,),0,0,2
2:03.628,44506,(,0,0,0
2:03.664,44519,p,0,0,0
2:03.761,44554,),0,0,0
2:03.806,44570,(,0,0,1
2:03.836,44581,N,0,0,0
2:03.881,44597,),0,0,1
2:03.942,44619,(,0,0,2
2:04.058,44661,t,0,0,0
2:04.144,44692,),0,0,2
2:04.256,44732,(,0,0,0
2:04.292,44745,p,0,0,0
2:04.375,44775,),0,0,0
2:04.422,44792,(,0,0,1
2:04.453,44803,N,0,0,0
2:04.500,44820,),0,0,1
2:04.556,44840,(,0,0,2
2:04.656,44876,t,0,0,0
2:04.736,44905,),0,0,2
2:04.856,44948,(,0,0,0
2:04.881,44957,p,0,0,0
2:04.969,44989,),0,0,0
2:05.008,45003,(,0,0,1
2:05.039,45014,N,0,0,0
2:05.083,45030,),0,0,1
2:05.131,45047,(,0,0,2
2:05.247,45089,t,0,0,0
2:05.325,45117,),0,0,2
2:05.450,45162,(,0,0,0
2:05.483,45174,p,0,0,0
2:05.575,45207,),0,0,0
2:05.628,45226,(,0,0,1
2:05.661,45238,N,0,0,0
2:05.706,45254,),0,0,1
2:05.772,45278,(,0,0,2
2:05.889,45320,t,0,0,0
2:05.975,45351,),0,0,2
2:06.103,45397,(,0,0,0
2:06.136,45409,p,0,0,0
2:06.214,45437,),0,0,0
2:06.267,45456,(,0,0,1
2:06.297,45467,N,0,0,0
2:06.342,45483,),0,0,1
2:06.389,45500,(,0,0,2
2:06.522,45548,t,0,0,0
2:06.603,45577,),0,0,2
2:06.728,45622,(,0,0,0
2:06.764,45635,p,0,0,0
2:06.814,45653,),0,0,0
2:06.917,45690,(,0,0,1
2:06.947,45701,N,0,0,0
2:06.994,45718,),0,0,1
2:07.061,45742,(,0,0,2
2:07.175,45783,t,0,0,0
2:07.261,45814,),0,0,2
2:07.378,45856,(,0,0,0
2:07.419,45871,p,0,0,0
2:07.508,45903,),0,0,0
2:07.567,45924,(,0,0,1
2:07.597,45935,N,0,0,0
2:07.647,45953,),0,0,1
2:07.694,45970,(,0,0,2
2:07.831,46019,t,0,0,0
2:07.922,46052,),0,0,2
2:08.036,46093,(,0,0,0
2:08.075,46107,p,0,0,0
2:08.161,46138,),0,0,0
2:08.206,46154,(,0,0,1
2:08.236,46165,N,0,0,0
2:08.281,46181,),0,0,1
2:08.350,46206,(,0,0,2
2:08.450,46242,t,0,0,0
2:08.547,46277,),0,0,2
2:08.642,46311,(,0,0,0
2:08.697,46331,p,0,0,0
2:08.783,46362,),0,0,0
2:08.822,46376,(,0,0,1
2:08.853,46387,N,0,0,0
2:08.897,46403,),0,0,1
2:08.961,46426,(,0,0,2
2:09.069,46465,t,0,0,0
2:09.156,46496,),0,0,2
2:09.275,46539,(,0,0,0
2:09.308,46551,p,0,0,0
2:09.389,46580,),0,0,0
2:09.436,46597,(,0,0,1
2:09.464,46607,N,0,0,0
2:09.508,46623,),0,0,1
2:09.572,46646,(,0,0,2
2:09.678,46684,t,0,0,0
2:09.761,46714,),0,0,2
2:09.858,46749,(,0,0,0
2:09.906,46766,p,0,0,0
2:10.000,46800,),0,0,0
2:10.044,46816,(,0,0,1
2:10.072,46826,N,0,0,0
2:10.117,46842,),0,0,1
2:10.175,46863,(,0,0,2
2:10.289,46904,t,0,0,0
2:10.364,46931,),0,0,2
2:10.483,46974,(,0,0,0
2:10.533,46992,p,0,0,0
2:10.611,47020,),0,0,0
2:10.664,47039,(,0,0,1
2:10.694,47050,N,0,0,0
2:10.739,47066,),0,0,1
2:10.778,47080,(,0,0,2
2:10.906,47126,t,0,0,0
2:10.983,47154,),0,0,2
2:11.100,47196,(,0,0,0
2:11.139,47210,p,0,0,0
2:11.219,47239,),0,0,0
2:11.272,47258,(,0,0,1
2:11.300,47268,N,0,0,0
2:11.350,47286,),0,0,1
2:11.397,47303,(,0,0,2
2:11.528,47350,t,0,0,0
2:11.622,47384,),0,0,2
2:11.736,47425,(,0,0,0
2:11.769,47437,p,0,0,0
2:11.853,47467,),0,0,0
2:11.908,47487,(,0,0,1
2:11.939,47498,N,0,0,0
2:11.989,47516,),0,0,1
2:12.078,47548,(,0,0,2
2:12.169,47581,t,0,0,0
2:12.253,47611,),0,0,2
2:12.381,47657,(,0,0,0
2:12.431,47675,p,0,0,0
2:12.517,47706,),0,0,0
2:12.572,47726,(,0,0,1
2:12.603,47737,N,0,0,0
2:12.650,47754,),0,0,1
2:12.708,47775,(,0,0,2
2:12.828,47818,t,0,0,0
2:12.908,47847,),0,0,2
2:13.028,47890,(,0,0,0
2:13.075,47907,p,0,0,0
2:13.156,47936,),0,0,0
2:13.214,47957,(,0,0,1
2:13.244,47968,N,0,0,0
2:13.289,47984,),0,0,1
2:13.375,48015,(,0,0,2
2:13.472,48050,t,0,0,0
2:13.553,48079,),0,0,2
2:13.672,48122,(,0,0,0
2:13.714,48137,p,0,0,0
2:13.803,48169,),0,0,0
2:13.853,48187,(,0,0,1
2:13.881,48197,N,0,0,0
2:13.925,48213,),0,0,1
2:13.981,48233,(,0,0,2
2:14.094,48274,t,0,0,0
2:14.183,48306,),0,0,2
2:14.311,48352,(,0,0,0
2:14.347,48365,p,0,0,0
2:14.386,48379,),0,0,0
2:14.489,48416,(,0,0,1
2:14.519,48427,N,0,0,0
2:14.567,48444,),0,0,1
2:14.625,48465,(,0,0,2
2:14.739,48506,t,0,0,0
2:14.819,48535,),0,0,2
2:14.939,48578,(,0,0,0
2:14.992,48597,p,0,0,0
2:15.067,48624,),0,0,0
2:15.122,48644,(,0,0,1
2:15.153,48655,N,0,0,0
2:15.200,48672,),0,0,1
2:15.250,48690,(,0,0,2
2:15.375,48735,t,0,0,0
2:15.458,48765,),0,0,2
2:15.586,48811,(,0,0,0
2:15.625,48825,p,0,0,0
2:15.706,48854,),0,0,0
2:15.756,48872,(,0,0,1
2:15.786,48883,N,0,0,0
2:15.831,48899,),0,0,1
2:15.900,48924,(,0,0,2
2:16.006,48962,t,0,0,0
2:16.083,48990,),0,0,2
2:16.200,49032,(,0,0,0
2:16.253,49051,p,0,0,0
2:16.336,49081,),0,0,0
2:16.383,49098,(,0,0,1
2:16.414,49109,N,0,0,0
2:16.461,49126,),0,0,1
2:16.528,49150,(,0,0,2
2:16.633,49188,t,0,0,0
2:16.714,49217,),0,0,2
2:16.828,49258,(,0,0,0
2:16.861,49270,p,0,0,0
2:16.942,49299,),0,0,0
2:16.981,49313,(,0,0,1
2:17.008,49323,N,0,0,0
2:17.056,49340,),0,0,1
2:17.100,49356,(,0,0,2
2:17.219,49399,t,0,0,0
2:17.311,49432,),0,0,2
2:17.433,49476,(,0,0,0
2:17.472,49490,p,0,0,0
2:17.558,49521,),0,0,0
2:17.614,49541,(,0,0,1
2:17.642,49551,N,0,0,0
2:17.689,49568,),0,0,1
2:17.747,49589,(,0,0,2
2:17.864,49631,t,0,0,0
2:17.950,49662,),0,0,2
2:18.072,49706,(,0,0,0
2:18.106,49718,p,0,0,0
2:18.200,49752,),0,0,0
2:18.247,49769,(,0,0,1
2:18.281,49781,N,0,0,0
2:18.325,49797,),0,0,1
2:18.389,49820,(,0,0,2
2:18.506,49862,t,0,0,0
2:18.594,49894,),0,0,2
2:18.719,49939,(,0,0,0
2:18.761,49954,p,0,0,0
2:18.844,49984,),0,0,0
2:18.906,50006,(,0,0,1
2:18.936,50017,N,0,0,0
2:18.983,50034,),0,0,1
2:19.067,50064,(,0,0,2
2:19.169,50101,t,0,0,0
2:19.253,50131,),0,0,2
2:19.386,50179,(,0,0,0
2:19.422,50192,p,0,0,0
2:19.522,50228,),0,0,0
2:19.572,50246,(,0,0,1
2:19.606,50258,N,0,0,0
2:19.656,50276,),0,0,1
2:19.703,50293,(,0,0,2
2:19.839,50342,t,0,0,0
2:19.922,50372,),0,0,2
2:20.028,50410,(,0,0,0
2:20.075,50427,p,0,0,0
2:20.161,50458,),0,0,0
2:20.208,50475,(,0,0,1
2:20.239,50486,N,0,0,0
2:20.283,50502,),0,0,1
2:20.361,50530,(,0,0,2
2:20.456,50564,t,0,0,0
2:20.539,50594,),0,0,2
2:20.661,50638,(,0,0,0
2:20.708,50655,p,0,0,0
2:20.794,50686,),0,0,0
2:20.842,50703,(,0,0,1
2:20.872,50714,N,0,0,0
2:20.917,50730,),0,0,1
2:21.003,50761,(,0,0,2
2:21.092,50793,t,0,0,0
2:21.169,50821,),0,0,2
2:21.286,50863,(,0,0,0
2:21.328,50878,p,0,0,0
2:21.406,50906,),0,0,0
2:21.456,50924,(,0,0,1
2:21.486,50935,N,0,0,0
2:21.533,50952,),0,0,1
2:21.583,50970,(,0,0,2
2:21.706,51014,t,0,0,0
2:21.786,51043,),0,0,2
2:21.911,51088,(,0,0,0
2:21.950,51102,p,0,0,0
2:21.989,51116,),0,0,0
2:22.053,51139,(,0,0,1
2:22.111,51160,N,0,0,0
2:22.158,51177,),0,0,1
2:22.219,51199,(,0,0,2
2:22.328,51238,t,0,0,0
2:22.422,51272,),0,0,2
2:22.525,51309,(,0,0,0
2:22.561,51322,p,0,0,0
2:22.647,51353,),0,0,0
2:22.706,51374,(,0,0,1
2:22.736,51385,N,0,0,0
2:22.783,51402,),0,0,1
2:22.831,51419,(,0,0,2
2:22.939,51458,t,0,0,0
2:23.011,51484,),0,0,2
2:23.125,51525,(,0,0,0
2:23.158,51537,p,0,0,0
2:23.244,51568,),0,0,0
2:23.294,51586,(,0,0,1
2:23.322,51596,N,0,0,0
2:23.369,51613,),0,0,1
2:23.428,51634,(,0,0,2
2:23.547,51677,t,0,0,0
2:23.636,51709,),0,0,2
2:23.772,51758,(,0,0,0
2:23.814,51773,p,0,0,0
2:23.861,51790,),0,0,0
2:23.953,51823,(,0,0,1
2:23.986,51835,N,0,0,0
2:24.031,51851,),0,0,1
2:24.092,51873,(,0,0,2
2:24.217,51918,t,0,0,0
2:24.308,51951,),0,0,2
2:24.442,51999,(,0,0,0
2:24.492,52017,p,0,0,0
2:24.575,52047,),0,0,0
2:24.633,52068,(,0,0,1
2:24.667,52080,N,0,0,0
2:24.714,52097,),0,0,1
2:24.808,52131,(,0,0,2
2:24.903,52165,t,0,0,0
2:24.989,52196,),0,0,2
2:25.119,52243,(,0,0,0
2:25.161,52258,p,0,0,0
2:25.250,52290,),0,0,0
2:25.297,52307,(,0,0,1
2:25.353,52327,N,0,0,0
2:25.375,52335,),0,0,1
2:25.461,52366,(,0,0,2
2:25.539,52394,t,0,0,0
2:25.647,52433,),0,0,2
2:25.772,52478,(,0,0,0
2:25.825,52497,p,0,0,0
2:25.892,52521,),0,0,0
2:25.947,52541,(,0,0,1
2:25.978,52552,N,0,0,0
2:26.025,52569,),0,0,1
2:26.075,52587,(,0,0,2
2:26.203,52633,t,0,0,0
2:26.281,52661,),0,0,2
2:26.492,52737,(,0,0,0
2:26.525,52749,p,0,0,0
2:26.553,52759,),0,0,0
2:26.578,52768,(,0,0,1
2:26.608,52779,N,0,0,0
2:26.653,52795,),0,0,1
2:26.706,52814,(,0,0,2
2:26.825,52857,t,0,0,0
2:26.900,52884,),0,0,2
2:27.017,52926,(,0,0,0
2:27.064,52943,p,0,0,0
2:27.153,52975,),0,0,0
2:27.208,52995,(,0,0,1
2:27.264,53015,N,0,0,0
2:27.283,53022,),0,0,1
2:27.350,53046,(,0,0,2
2:27.461,53086,t,0,0,0
2:27.528,53110,),0,0,2
2:27.681,53165,(,0,0,0
2:27.706,53174,p,0,0,0
2:27.764,53195,),0,0,0
2:27.833,53220,(,0,0,1
2:27.889,53240,N,0,0,0
2:27.911,53248,),0,0,1
2:28.017,53286,(,0,0,2
2:28.081,53309,t,0,0,0
2:28.147,53333,),0,0,2
2:28.158,53337,(,0,0,0
2:28.186,53347,p,0,0,0
2:28.214,53357,),0,0,0
2:28.331,53399,(,0,0,1
2:28.358,53409,N,0,0,0
2:28.397,53423,),0,0,1
2:28.467,53448,(,0,0,2
2:28.506,53462,t,0,0,5
2:28.664,53519,t,0,0,5
2:28.708,53535,),0,0,2
2:28.831,53579,(,0,0,0
2:28.883,53598,p,0,0,0
2:28.911,53608,),0,0,0
2:28.997,53639,(,0,0,1
2:29.025,53649,N,0,0,0
2:29.075,53667,),0,0,1
2:29.139,53690,(,0,0,2
2:29.253,53731,t,0,0,0
2:29.339,53762,),0,0,2
2:29.428,53794,(,0,0,0
2:29.461,53806,p,0,0,0
2:29.511,53824,),0,0,0
2:29.550,53838,(,0,0,1
2:29.664,53879,N,0,0,0
2:29.681,53885,),0,0,1
2:29.761,53914,(,0,0,2
2:29.822,53936,t,0,0,0
2:29.911,53968,),0,0,2
2:30.017,54006,(,0,0,0
2:30.067,54024,p,0,0,0
2:30.111,54040,),0,0,0
2:30.181,54065,(,0,0,1
2:30.289,54104,N,0,0,0
2:30.319,54115,),0,0,1
2:30.428,54154,(,0,0,2
2:30.497,54179,t,0,0,5
2:30.619,54223,t,0,0,5
2:30.664,54239,),0,0,2
2:30.672,54242,(,0,0,0
2:30.686,54247,p,0,0,0
2:30.714,54257,),0,0,0
2:30.853,54307,(,0,0,1
2:30.889,54320,N,0,0,0
2:30.947,54341,),0,0,1
2:31.028,54370,(,0,0,2
2:31.117,54402,t,0,0,0
2:31.203,54433,),0,0,2
2:31.294,54466,(,0,0,0
2:31.383,54498,p,0,0,0
2:31.433,54516,),0,0,0
2:31.486,54535,(,0,0,1
2:31.517,54546,N,0,0,0
2:31.564,54563,),0,0,1
2:31.628,54586,(,0,0,2
2:31.744,54628,t,0,0,0
2:31.831,54659,),0,0,2
2:31.939,54698,(,0,0,0
2:31.983,54714,p,0,0,0
2:32.064,54743,),0,0,0
2:32.111,54760,(,0,0,1
2:32.144,54772,N,0,0,0
2:32.186,54787,),0,0,1
2:32.267,54816,(,0,0,2
2:32.372,54854,t,0,0,0
2:32.453,54883,),0,0,2
2:32.567,54924,(,0,0,0
2:32.606,54938,p,0,0,0
2:32.681,54965,),0,0,0
2:32.744,54988,(,0,0,1
2:32.778,55000,N,0,0,0
2:32.822,55016,),0,0,1
2:32.914,55049,(,0,0,2
2:33.006,55082,t,0,0,0
2:33.086,55111,),0,0,2
2:33.192,55149,(,0,0,0
2:33.250,55170,p,0,0,0
2:33.331,55199,),0,0,0
2:33.378,55216,(,0,0,1
2:33.408,55227,N,0,0,0
2:33.456,55244,),0,0,1
2:33.525,55269,(,0,0,2
2:33.622,55304,t,0,0,0
2:33.725,55341,),0,0,2
2:33.814,55373,(,0,0,0
2:33.850,55386,p,0,0,0
2:33.944,55420,),0,0,0
2:33.986,55435,(,0,0,1
2:34.019,55447,N,0,0,0
2:34.064,55463,),0,0,1
2:34.483,55614,(,0,0,0
2:34.506,55622,p,0,0,0
2:34.539,55634,),0,0,0
2:34.558,55641,(,0,0,1
2:34.631,55667,N,0,0,0
2:34.667,55680,),0,0,1
2:34.744,55708,(,0,0,2
2:34.814,55733,t,0,0,0
2:34.925,55773,),0,0,2
2:35.006,55802,(,0,0,0
2:35.047,55817,p,0,0,0
2:35.108,55839,),0,0,0
2:35.150,55854,(,0,0,1
2:35.233,55884,N,0,0,0
2:35.261,55894,),0,0,1
2:35.339,55922,(,0,0,2
2:35.375,55935,t,0,0,5
2:35.506,55982,t,0,0,5
2:35.561,56002,),0,0,2
2:35.592,56013,(,0,0,0
2:35.614,56021,p,0,0,0
2:35.636,56029,),0,0,0
2:35.817,56094,(,0,0,1
2:35.850,56106,N,0,0,0
2:35.894,56122,),0,0,1
2:36.003,56161,(,0,0,2
2:36.033,56172,t,0,0,0
2:36.186,56227,),0,0,2
2:36.211,56236,(,0,0,0
2:36.344,56284,p,0,0,0
2:36.381,56297,),0,0,0
2:36.442,56319,(,0,0,1
2:36.517,56346,N,0,0,0
2:36.575,56367,),0,0,1
2:36.681,56405,(,0,0,2
2:36.742,56427,t,0,0,0
2:36.825,56457,),0,0,2
2:36.925,56493,(,0,0,0
2:36.978,56512,p,0,0,0
2:37.072,56546,),0,0,0
2:37.125,56565,(,0,0,1
2:37.183,56586,N,0,0,0
2:37.203,56593,),0,0,1
2:37.303,56629,(,0,0,2
2:37.389,56660,t,0,0,0
2:37.519,56707,),0,0,2
2:37.594,56734,(,0,0,1
2:37.625,56745,N,0,0,0
2:37.667,56760,),0,0,1
2:37.758,56793,(,0,0,2
2:37.850,56826,t,0,0,0
2:37.919,56851,),0,0,2
2:38.100,56916,(,0,0,0
2:38.133,56928,p,0,0,0
2:38.208,56955,),0,0,0
2:38.258,56973,(,0,0,1
2:38.317,56994,N,0,0,0
2:38.339,57002,),0,0,1
2:38.419,57031,(,0,0,2
2:38.522,57068,t,0,0,0
2:38.603,57097,),0,0,2
2:38.681,57125,(,0,0,0
2:38.756,57152,p,0,0,0
2:38.847,57185,),0,0,0
2:38.894,57202,(,0,0,1
2:38.925,57213,N,0,0,0
2:38.972,57230,),0,0,1
2:39.039,57254,(,0,0,2
2:39.136,57289,t,0,0,0
2:39.225,57321,),0,0,2
2:39.333,57360,(,0,0,0
2:39.367,57372,p,0,0,0
2:39.461,57406,),0,0,0
2:39.508,57423,(,0,0,1
2:39.542,57435,N,0,0,0
2:39.589,57452,),0,0,1
2:39.667,57480,(,0,0,2
2:39.758,57513,t,0,0,0
2:39.819,57535,),0,0,2
2:39.933,57576,(,0,0,0
2:39.978,57592,p,0,0,0
2:40.064,57623,),0,0,0
2:40.108,57639,(,0,0,1
2:40.142,57651,N,0,0,0
2:40.186,57667,),0,0,1
2:40.242,57687,(,0,0,2
2:40.353,57727,t,0,0,0
2:40.447,57761,),0,0,2
2:40.547,57797,(,0,0,0
2:40.575,57807,p,0,0,0
2:40.647,57833,),0,0,0
2:40.700,57852,(,0,0,1
2:40.731,57863,N,0,0,0
2:40.772,57878,),0,0,1
2:40.850,57906,(,0,0,2
2:40.936,57937,t,0,0,0
2:41.006,57962,),0,0,2
2:41.150,58014,(,0,0,0
2:41.186,58027,p,0,0,0
2:41.269,58057,),0,0,0
2:41.319,58075,(,0,0,1
2:41.353,58087,N,0,0,0
2:41.397,58103,),0,0,1
2:41.464,58127,(,0,0,2
2:41.581,58169,t,0,0,0
2:41.661,58198,),0,0,2
2:41.789,58244,(,0,0,0
2:41.825,58257,p,0,0,0
2:41.919,58291,),0,0,0
2:41.958,58305,(,0,0,1
2:41.992,58317,N,0,0,0
2:42.036,58333,),0,0,1
2:42.128,58366,(,0,0,2
2:42.222,58400,t,0,0,0
2:42.278,58420,),0,0,2
2:42.425,58473,(,0,0,0
2:42.461,58486,p,0,0,0
2:42.558,58521,),0,0,0
2:42.608,58539,(,0,0,1
2:42.639,58550,N,0,0,0
2:42.689,58568,),0,0,1
2:42.756,58592,(,0,0,2
2:42.872,58634,t,0,0,0
2:42.956,58664,),0,0,2
2:43.081,58709,(,0,0,0
2:43.114,58721,p,0,0,0
2:43.197,58751,),0,0,0
2:43.250,58770,(,0,0,1
2:43.308,58791,N,0,0,0
2:43.328,58798,),0,0,1
2:43.392,58821,(,0,0,2
2:43.506,58862,t,0,0,0
2:43.592,58893,),0,0,2
2:43.722,58940,(,0,0,0
2:43.753,58951,p,0,0,0
2:43.794,58966,),0,0,0
2:43.889,59000,(,0,0,1
2:43.942,59019,N,0,0,0
2:43.961,59026,),0,0,1
2:44.022,59048,(,0,0,2
2:44.133,59088,t,0,0,0
2:44.214,59117,),0,0,2
2:44.300,59148,(,0,0,0
2:44.372,59174,p,0,0,0
2:44.461,59206,),0,0,0
2:44.514,59225,(,0,0,1
2:44.547,59237,N,0,0,0
2:44.592,59253,),0,0,1
2:44.633,59268,(,0,0,2
2:44.778,59320,t,0,0,0
2:44.856,59348,),0,0,2
2:44.986,59395,(,0,0,0
2:45.022,59408,p,0,0,0
2:45.106,59438,),0,0,0
2:45.156,59456,(,0,0,1
2:45.186,59467,N,0,0,0
2:45.228,59482,),0,0,1
2:45.317,59514,(,0,0,2
2:45.403,59545,t,0,0,0
2:45.478,59572,),0,0,2
2:45.600,59616,(,0,0,0
2:45.631,59627,p,0,0,0
2:45.722,59660,),0,0,0
2:45.769,59677,(,0,0,1
2:45.800,59688,N,0,0,0
2:45.844,59704,),0,0,1
2:45.928,59734,(,0,0,2
2:46.017,59766,t,0,0,0
2:46.097,59795,),0,0,2
2:46.219,59839,(,0,0,0
2:46.256,59852,p,0,0,0
2:46.364,59891,),0,0,0
2:46.383,59898,(,0,0,1
2:46.439,59918,N,0,0,0
2:46.458,59925,),0,0,1
2:46.522,59948,(,0,0,2
2:46.619,59983,t,0,0,0
2:46.697,60011,),0,0,2
2:46.806,60050,(,0,0,0
2:46.856,60068,p,0,0,0
2:46.942,60099,),0,0,0
2:46.972,60110,(,0,0,1
2:47.022,60128,N,0,0,0
2:47.042,60135,),0,0,1
2:47.114,60161,(,0,0,2
2:47.208,60195,t,0,0,0
2:47.289,60224,),0,0,2
2:47.419,60271,(,0,0,0
2:47.461,60286,p,0,0,0
2:47.533,60312,),0,0,0
2:47.564,60323,(,0,0,1
2:47.647,60353,N,0,0,0
2:47.669,60361,),0,0,1
2:47.739,60386,(,0,0,2
2:47.858,60429,t,0,0,0
2:47.944,60460,),0,0,2
2:48.075,60507,(,0,0,0
2:48.111,60520,p,0,0,0
2:48.197,60551,),0,0,0
2:48.244,60568,(,0,0,1
2:48.303,60589,N,0,0,0
2:48.322,60596,),0,0,1
2:48.392,60621,(,0,0,2
2:48.511,60664,t,0,0,0
2:48.586,60691,),0,0,2
2:48.722,60740,(,0,0,0
2:48.758,60753,p,0,0,0
2:48.847,60785,),0,0,0
2:48.903,60805,(,0,0,1
2:48.961,60826,N,0,0,0
2:48.983,60834,),0,0,1
2:49.058,60861,(,0,0,2
2:49.164,60899,t,0,0,0
2:49.258,60933,),0,0,2
2:49.369,60973,(,0,0,0
2:49.419,60991,p,0,0,0
2:49.461,61006,),0,0,0
2:49.564,61043,(,0,0,1
2:49.622,61064,N,0,0,0
2:49.642,61071,),0,0,1
2:49.722,61100,(,0,0,2
2:49.833,61140,t,0,0,0
2:49.908,61167,),0,0,2
2:50.033,61212,(,0,0,0
2:50.081,61229,p,0,0,0
2:50.164,61259,),0,0,0
2:50.217,61278,(,0,0,1
2:50.272,61298,N,0,0,0
2:50.292,61305,),0,0,1
2:50.367,61332,(,0,0,2
2:50.467,61368,t,0,0,0
2:50.564,61403,),0,0,2
2:50.672,61442,(,0,0,0
2:50.706,61454,p,0,0,0
2:50.739,61466,),0,0,0
2:50.844,61504,(,0,0,1
2:50.875,61515,N,0,0,0
2:50.919,61531,),0,0,1
2:51.003,61561,(,0,0,2
2:51.094,61594,t,0,0,0
2:51.169,61621,),0,0,2
2:51.297,61667,(,0,0,0
2:51.331,61679,p,0,0,0
2:51.411,61708,),0,0,0
2:51.464,61727,(,0,0,1
2:51.519,61747,N,0,0,0
2:51.536,61753,),0,0,1
2:51.625,61785,(,0,0,2
2:51.703,61813,t,0,0,0
2:51.800,61848,),0,0,2
2:51.911,61888,(,0,0,0
2:51.953,61903,p,0,0,0
2:52.036,61933,),0,0,0
2:52.086,61951,(,0,0,1
2:52.139,61970,N,0,0,0
2:52.158,61977,),0,0,1
2:52.231,62003,(,0,0,2
2:52.322,62036,t,0,0,0
2:52.417,62070,),0,0,2
2:52.553,62119,(,0,0,0
2:52.594,62134,p,0,0,0
2:52.672,62162,),0,0,0
2:52.725,62181,(,0,0,1
2:52.778,62200,N,0,0,0
2:52.800,62208,),0,0,1
2:52.844,62224,(,0,0,2
2:52.969,62269,t,0,0,0
2:53.039,62294,),0,0,2
2:53.183,62346,(,0,0,0
2:53.225,62361,p,0,0,0
2:53.319,62395,),0,0,0
2:53.364,62411,(,0,0,1
2:53.419,62431,N,0,0,0
2:53.439,62438,),0,0,1
2:53.514,62465,(,0,0,2
2:53.608,62499,t,0,0,0
2:53.697,62531,),0,0,2
2:53.839,62582,(,0,0,0
2:53.883,62598,p,0,0,0
2:53.969,62629,),0,0,0
2:54.028,62650,(,0,0,1
2:54.086,62671,N,0,0,0
2:54.106,62678,),0,0,1
2:54.161,62698,(,0,0,2
2:54.286,62743,t,0,0,0
2:54.381,62777,),0,0,2
2:54.531,62831,(,0,0,0
2:54.575,62847,p,0,0,0
2:54.647,62873,),0,0,0
2:54.711,62896,(,0,0,1
2:54.767,62916,N,0,0,0
2:54.789,62924,),0,0,1
2:54.892,62961,(,0,0,2
2:54.961,62986,t,0,0,0
2:55.047,63017,),0,0,2
2:55.203,63073,(,0,0,0
2:55.239,63086,p,0,0,0
2:55.269,63097,),0,0,0
2:55.381,63137,(,0,0,1
2:55.436,63157,N,0,0,0
2:55.458,63165,),0,0,1
2:55.531,63191,(,0,0,2
2:55.642,63231,t,0,0,0
2:55.725,63261,),0,0,2
2:55.861,63310,(,0,0,0
2:55.897,63323,p,0,0,0
2:56.014,63365,),0,0,0
2:56.036,63373,(,0,0,1
2:56.092,63393,N,0,0,0
2:56.114,63401,),0,0,1
2:56.181,63425,(,0,0,2
2:56.289,63464,t,0,0,0
2:56.375,63495,),0,0,2
2:56.525,63549,(,0,0,0
2:56.564,63563,p,0,0,0
2:56.647,63593,),0,0,0
2:56.697,63611,(,0,0,1
2:56.753,63631,N,0,0,0
2:56.772,63638,),0,0,1
2:56.831,63659,(,0,0,2
2:56.942,63699,t,0,0,0
2:57.028,63730,),0,0,2
2:57.178,63784,(,0,0,0
2:57.217,63798,p,0,0,0
2:57.300,63828,),0,0,0
2:57.356,63848,(,0,0,1
2:57.414,63869,N,0,0,0
2:57.433,63876,),0,0,1
2:57.519,63907,(,0,0,2
2:57.606,63938,t,0,0,0
2:57.694,63970,),0,0,2
2:57.881,64037,(,0,0,0
2:57.906,64046,p,0,0,0
2:57.936,64057,),0,0,0
2:58.014,64085,(,0,0,1
2:58.069,64105,N,0,0,0
2:58.092,64113,),0,0,1
2:58.153,64135,(,0,0,2
2:58.264,64175,t,0,0,0
2:58.350,64206,),0,0,2
2:58.483,64254,(,0,0,0
2:58.517,64266,p,0,0,0
2:58.572,64286,),0,0,0
2:58.661,64318,(,0,0,1
2:58.719,64339,N,0,0,0
2:58.739,64346,),0,0,1
2:58.792,64365,(,0,0,2
2:58.894,64402,t,0,0,0
2:58.978,64432,),0,0,2
2:59.094,64474,(,0,0,0
2:59.136,64489,p,0,0,0
2:59.203,64513,),0,0,0
2:59.261,64534,(,0,0,1
2:59.325,64557,N,0,0,0
2:59.344,64564,),0,0,1
2:59.419,64591,(,0,0,2
2:59.531,64631,t,0,0,0
2:59.606,64658,),0,0,2
2:59.739,64706,(,0,0,0
2:59.767,64716,p,0,0,0
2:59.806,64730,),0,0,0
2:59.917,64770,(,0,0,1
2:59.975,64791,N,0,0,0
3:00.000,64800,),0,0,1
3:00.058,64821,(,0,0,2
3:00.158,64857,t,0,0,0
3:00.269,64897,),0,0,2
3:00.378,64936,(,0,0,0
3:00.417,64950,p,0,0,0
3:00.467,64968,),0,0,0
3:00.572,65006,(,0,0,1
3:00.603,65017,N,0,0,0
3:00.653,65035,),0,0,1
3:00.708,65055,(,0,0,2
3:00.833,65100,t,0,0,0
3:00.911,65128,),0,0,2
3:01.056,65180,(,0,0,0
3:01.083,65190,p,0,0,0
3:01.128,65206,),0,0,0
3:01.233,65244,(,0,0,1
3:01.292,65265,N,0,0,0
3:01.314,65273,),0,0,1
3:01.406,65306,(,0,0,2
3:01.447,65321,t,0,0,5
3:01.583,65370,t,0,0,5
3:01.611,65380,),0,0,2
3:01.731,65423,(,0,0,0
3:01.772,65438,p,0,0,0
3:01.850,65466,),0,0,0
3:01.908,65487,(,0,0,1
3:01.967,65508,N,0,0,0
3:01.986,65515,),0,0,1
3:02.072,65546,(,0,0,2
3:02.161,65578,t,0,0,0
3:02.247,65609,),0,0,2
3:02.364,65651,(,0,0,0
3:02.403,65665,p,0,0,0
3:02.444,65680,),0,0,0
3:02.544,65716,(,0,0,1
3:02.603,65737,N,0,0,0
3:02.625,65745,),0,0,1
3:02.686,65767,(,0,0,2
3:02.806,65810,t,0,0,0
3:02.886,65839,),0,0,2
3:02.997,65879,(,0,0,0
3:03.033,65892,p,0,0,0
3:03.128,65926,),0,0,0
3:03.150,65934,(,0,0,1
3:03.231,65963,N,0,0,0
3:03.250,65970,),0,0,1
3:03.286,65983,(,0,0,2
3:03.411,66028,t,0,0,0
3:03.481,66053,),0,0,2
3:03.608,66099,(,0,0,0
3:03.642,66111,p,0,0,0
3:03.692,66129,),0,0,0
3:03.786,66163,(,0,0,1
3:03.842,66183,N,0,0,0
3:03.864,66191,),0,0,1
3:03.933,66216,(,0,0,2
3:04.031,66251,t,0,0,0
3:04.108,66279,),0,0,2
3:04.225,66321,(,0,0,0
3:04.267,66336,p,0,0,0
3:04.303,66349,),0,0,0
3:04.400,66384,(,0,0,1
3:04.431,66395,N,0,0,0
3:04.475,66411,),0,0,1
3:04.553,66439,(,0,0,2
3:04.656,66476,t,0,0,0
3:04.742,66507,),0,0,2
3:04.861,66550,(,0,0,0
3:04.889,66560,p,0,0,0
3:04.967,66588,),0,0,0
3:05.006,66602,(,0,0,1
3:05.061,66622,N,0,0,0
3:05.081,66629,),0,0,1
3:05.144,66652,(,0,0,2
3:05.242,66687,t,0,0,0
3:05.317,66714,),0,0,2
3:05.450,66762,(,0,0,0
3:05.483,66774,p,0,0,0
3:05.575,66807,),0,0,0
3:05.633,66828,(,0,0,1
3:05.692,66849,N,0,0,0
3:05.714,66857,),0,0,1
3:05.786,66883,(,0,0,2
3:05.894,66922,t,0,0,0
3:05.967,66948,),0,0,2
3:06.103,66997,(,0,0,0
3:06.153,67015,p,0,0,0
3:06.239,67046,),0,0,0
3:06.297,67067,(,0,0,1
3:06.356,67088,N,0,0,0
3:06.375,67095,),0,0,1
3:06.464,67127,(,0,0,2
3:06.569,67165,t,0,0,0
3:06.653,67195,),0,0,2
3:06.789,67244,(,0,0,0
3:06.833,67260,p,0,0,0
3:06.919,67291,),0,0,0
3:06.978,67312,(,0,0,1
3:07.036,67333,N,0,0,0
3:07.056,67340,),0,0,1
3:07.150,67374,(,0,0,2
3:07.225,67401,t,0,0,0
3:07.311,67432,),0,0,2
3:07.433,67476,(,0,0,0
3:07.469,67489,p,0,0,0
3:07.558,67521,),0,0,0
3:07.619,67543,(,0,0,1
3:07.675,67563,N,0,0,0
3:07.700,67572,),0,0,1
3:07.761,67594,(,0,0,2
3:07.867,67632,t,0,0,0
3:07.956,67664,),0,0,2
3:08.069,67705,(,0,0,0
3:08.108,67719,p,0,0,0
3:08.200,67752,),0,0,0
3:08.250,67770,(,0,0,1
3:08.306,67790,N,0,0,0
3:08.328,67798,),0,0,1
3:08.403,67825,(,0,0,2
3:08.497,67859,t,0,0,0
3:08.578,67888,),0,0,2
3:08.706,67934,(,0,0,0
3:08.742,67947,p,0,0,0
3:08.828,67978,),0,0,0
3:08.881,67997,(,0,0,1
3:08.939,68018,N,0,0,0
3:08.961,68026,),0,0,1
3:09.036,68053,(,0,0,2
3:09.139,68090,t,0,0,0
3:09.222,68120,),0,0,2
3:09.342,68163,(,0,0,0
3:09.378,68176,p,0,0,0
3:09.481,68213,),0,0,0
3:09.522,68228,(,0,0,1
3:09.581,68249,N,0,0,0
3:09.600,68256,),0,0,1
3:09.686,68287,(,0,0,2
3:09.778,68320,t,0,0,0
3:09.867,68352,),0,0,2
3:09.981,68393,(,0,0,0
3:10.025,68409,p,0,0,0
3:10.106,68438,),0,0,0
3:10.161,68458,(,0,0,1
3:10.217,68478,N,0,0,0
3:10.236,68485,),0,0,1
3:10.289,68504,(,0,0,2
3:10.408,68547,t,0,0,0
3:10.483,68574,),0,0,2
3:10.597,68615,(,0,0,0
3:10.642,68631,p,0,0,0
3:10.756,68672,),0,0,0
3:10.775,68679,(,0,0,1
3:10.828,68698,N,0,0,0
3:10.847,68705,),0,0,1
3:10.925,68733,(,0,0,2
3:11.008,68763,t,0,0,0
3:11.089,68792,),0,0,2
3:11.200,68832,(,0,0,0
3:11.244,68848,p,0,0,0
3:11.322,68876,),0,0,0
3:11.381,68897,(,0,0,1
3:11.433,68916,N,0,0,0
3:11.453,68923,),0,0,1
3:11.517,68946,(,0,0,2
3:11.622,68984,t,0,0,0
3:11.708,69015,),0,0,2
3:11.828,69058,(,0,0,0
3:11.872,69074,p,0,0,0
3:11.947,69101,),0,0,0
3:12.011,69124,(,0,0,1
3:12.067,69144,N,0,0,0
3:12.089,69152,),0,0,1
3:12.161,69178,(,0,0,2
3:12.272,69218,t,0,0,0
3:12.364,69251,),0,0,2
3:12.472,69290,(,0,0,0
3:12.514,69305,p,0,0,0
3:12.600,69336,),0,0,0
3:12.653,69355,(,0,0,1
3:12.711,69376,N,0,0,0
3:12.731,69383,),0,0,1
3:12.794,69406,(,0,0,2
3:12.911,69448,t,0,0,0
3:12.989,69476,),0,0,2
3:13.028,69490,(,0,0,0
3:13.047,69497,p,0,0,0
3:13.100,69516,),0,0,0
3:13.181,69545,(,0,0,1
3:13.233,69564,N,0,0,0
3:13.256,69572,),0,0,1
3:13.331,69599,(,0,0,2
3:13.419,69631,t,0,0,0
3:13.511,69664,),0,0,2
3:13.731,69743,(,0,0,0
3:13.775,69759,p,0,0,0
3:13.858,69789,),0,0,0
3:13.903,69805,(,0,0,1
3:13.958,69825,N,0,0,0
3:13.981,69833,),0,0,1
3:14.064,69863,(,0,0,2
3:14.161,69898,t,0,0,0
3:14.242,69927,),0,0,2
3:14.361,69970,(,0,0,0
3:14.397,69983,p,0,0,0
3:14.483,70014,),0,0,0
3:14.539,70034,(,0,0,1
3:14.594,70054,N,0,0,0
3:14.614,70061,),0,0,1
3:14.694,70090,(,0,0,2
3:14.781,70121,t,0,0,0
3:14.875,70155,),0,0,2
3:14.989,70196,(,0,0,0
3:15.039,70214,p,0,0,0
3:15.122,70244,),0,0,0
3:15.181,70265,(,0,0,1
3:15.236,70285,N,0,0,0
3:15.258,70293,),0,0,1
3:15.333,70320,(,0,0,2
3:15.428,70354,t,0,0,0
3:15.503,70381,),0,0,2
3:15.611,70420,(,0,0,0
3:15.656,70436,p,0,0,0
3:15.736,70465,),0,0,0
3:15.792,70485,(,0,0,1
3:15.844,70504,N,0,0,0
3:15.867,70512,),0,0,1
3:15.925,70533,(,0,0,2
3:16.036,70573,t,0,0,0
3:16.125,70605,),0,0,2
3:16.219,70639,(,0,0,0
3:16.261,70654,p,0,0,0
3:16.297,70667,),0,0,0
3:16.392,70701,(,0,0,1
3:16.444,70720,N,0,0,0
3:16.464,70727,),0,0,1
3:16.519,70747,(,0,0,2
3:16.622,70784,t,0,0,0
3:16.706,70814,),0,0,2
3:16.814,70853,(,0,0,0
3:16.853,70867,p,0,0,0
3:16.936,70897,),0,0,0
3:16.969,70909,(,0,0,1
3:17.022,70928,N,0,0,0
3:17.042,70935,),0,0,1
3:17.108,70959,(,0,0,2
3:17.214,70997,t,0,0,0
3:17.297,71027,),0,0,2
3:17.408,71067,(,0,0,0
3:17.456,71084,p,0,0,0
3:17.547,71117,),0,0,0
3:17.597,71135,(,0,0,1
3:17.656,71156,N,0,0,0
3:17.675,71163,),0,0,1
3:17.761,71194,(,0,0,2
3:17.861,71230,t,0,0,0
3:17.944,71260,),0,0,2
3:18.089,71312,(,0,0,0
3:18.122,71324,p,0,0,0
3:18.219,71359,),0,0,0
3:18.278,71380,(,0,0,1
3:18.336,71401,N,0,0,0
3:18.358,71409,),0,0,1
3:18.453,71443,(,0,0,2
3:18.547,71477,t,0,0,0
3:18.639,71510,),0,0,2
3:18.778,71560,(,0,0,0
3:18.811,71572,p,0,0,0
3:18.897,71603,),0,0,0
3:18.956,71624,(,0,0,1
3:19.011,71644,N,0,0,0
3:19.031,71651,),0,0,1
3:19.103,71677,(,0,0,2
3:19.214,71717,t,0,0,0
3:19.300,71748,),0,0,2
3:19.433,71796,(,0,0,0
3:19.475,71811,p,0,0,0
3:19.564,71843,),0,0,0
3:19.622,71864,(,0,0,1
3:19.681,71885,N,0,0,0
3:19.703,71893,),0,0,1
3:19.758,71913,(,0,0,2
3:19.875,71955,t,0,0,0
3:19.950,71982,),0,0,2
3:20.078,72028,(,0,0,0
3:20.114,72041,p,0,0,0
3:20.203,72073,),0,0,0
3:20.258,72093,(,0,0,1
3:20.314,72113,N,0,0,0
3:20.333,72120,),0,0,1
3:20.422,72152,(,0,0,2
3:20.517,72186,t,0,0,0
3:20.600,72216,),0,0,2
3:20.731,72263,(,0,0,0
3:20.769,72277,p,0,0,0
3:20.811,72292,),0,0,0
3:20.908,72327,(,0,0,1
3:20.961,72346,N,0,0,0
3:20.981,72353,),0,0,1
3:21.047,72377,(,0,0,2
3:21.158,72417,t,0,0,0
3:21.236,72445,),0,0,2
3:21.375,72495,(,0,0,0
3:21.414,72509,p,0,0,0
3:21.497,72539,),0,0,0
3:21.550,72558,(,0,0,1
3:21.603,72577,N,0,0,0
3:21.625,72585,),0,0,1
3:21.683,72606,(,0,0,2
3:21.789,72644,t,0,0,0
3:21.867,72672,),0,0,2
3:22.006,72722,(,0,0,0
3:22.036,72733,p,0,0,0
3:22.072,72746,),0,0,0
3:22.169,72781,(,0,0,1
3:22.225,72801,N,0,0,0
3:22.244,72808,),0,0,1
3:22.317,72834,(,0,0,2
3:22.428,72874,t,0,0,0
3:22.506,72902,),0,0,2
3:22.636,72949,(,0,0,0
3:22.675,72963,p,0,0,0
3:22.714,72977,),0,0,0
3:22.806,73010,(,0,0,1
3:22.861,73030,N,0,0,0
3:22.881,73037,),0,0,1
3:22.928,73054,(,0,0,2
3:23.036,73093,t,0,0,0
3:23.114,73121,),0,0,2
3:23.247,73169,(,0,0,0
3:23.283,73182,p,0,0,0
3:23.369,73213,),0,0,0
3:23.428,73234,(,0,0,1
3:23.486,73255,N,0,0,0
3:23.511,73264,),0,0,1
3:23.561,73282,(,0,0,2
3:23.678,73324,t,0,0,0
3:23.767,73356,),0,0,2
3:23.886,73399,(,0,0,0
3:23.933,73416,p,0,0,0
3:24.017,73446,),0,0,0
3:24.061,73462,(,0,0,1
3:24.133,73488,N,0,0,0
3:24.167,73500,),0,0,1
3:24.214,73517,(,0,0,2
3:24.328,73558,t,0,0,0
3:24.425,73593,),0,0,2
3:24.536,73633,(,0,0,0
3:24.567,73644,p,0,0,0
3:24.678,73684,),0,0,0
3:24.733,73704,(,0,0,1
3:24.794,73726,N,0,0,0
3:24.817,73734,),0,0,1
3:24.864,73751,(,0,0,2
3:24.992,73797,t,0,0,0
3:25.072,73826,),0,0,2
3:25.208,73875,(,0,0,0
3:25.261,73894,p,0,0,0
3:25.325,73917,),0,0,0
3:25.381,73937,(,0,0,1
3:25.442,73959,N,0,0,0
3:25.464,73967,),0,0,1
3:25.536,73993,(,0,0,2
3:25.644,74032,t,0,0,0
3:25.717,74058,),0,0,2
3:25.850,74106,(,0,0,0
3:25.903,74125,p,0,0,0
3:25.964,74147,),0,0,0
3:26.025,74169,(,0,0,1
3:26.083,74190,N,0,0,0
3:26.106,74198,),0,0,1
3:26.194,74230,(,0,0,2
3:26.275,74259,t,0,0,0
3:26.372,74294,),0,0,2
3:26.475,74331,(,0,0,0
3:26.536,74353,p,0,0,0
3:26.611,74380,),0,0,0
3:26.667,74400,(,0,0,1
3:26.728,74422,N,0,0,0
3:26.747,74429,),0,0,1
3:26.828,74458,(,0,0,2
3:26.925,74493,t,0,0,0
3:27.025,74529,),0,0,2
3:27.128,74566,(,0,0,0
3:27.169,74581,p,0,0,0
3:27.278,74620,),0,0,0
3:27.300,74628,(,0,0,1
3:27.358,74649,N,0,0,0
3:27.381,74657,),0,0,1
3:27.439,74678,(,0,0,2
3:27.556,74720,t,0,0,0
3:27.633,74748,),0,0,2
3:27.744,74788,(,0,0,0
3:27.794,74806,p,0,0,0
3:27.886,74839,),0,0,0
3:27.942,74859,(,0,0,1
3:27.997,74879,N,0,0,0
3:28.017,74886,),0,0,1
3:28.078,74908,(,0,0,2
3:28.181,74945,t,0,0,0
3:28.264,74975,),0,0,2
3:28.372,75014,(,0,0,0
3:28.414,75029,p,0,0,0
3:28.489,75056,),0,0,0
3:28.542,75075,(,0,0,1
3:28.606,75098,N,0,0,0
3:28.639,75110,),0,0,1
3:28.650,75114,(,0,0,2
3:28.792,75165,t,0,0,5
3:28.908,75207,t,0,0,5
3:28.944,75220,),0,0,2
3:28.981,75233,(,0,0,0
3:29.008,75243,p,0,0,0
3:29.097,75275,),0,0,0
3:29.122,75284,(,0,0,1
3:29.186,75307,N,0,0,0
3:29.211,75316,),0,0,1
3:29.275,75339,(,0,0,2
3:29.386,75379,t,0,0,0
3:29.469,75409,),0,0,2
3:29.586,75451,(,0,0,0
3:29.631,75467,p,0,0,0
3:29.750,75510,),0,0,0
3:29.769,75517,(,0,0,1
3:29.833,75540,N,0,0,0
3:29.853,75547,),0,0,1
3:29.939,75578,(,0,0,2
3:30.022,75608,t,0,0,0
3:30.111,75640,),0,0,2
3:30.256,75692,(,0,0,0
3:30.286,75703,p,0,0,0
3:30.372,75734,),0,0,0
3:30.431,75755,(,0,0,1
3:30.489,75776,N,0,0,0
3:30.511,75784,),0,0,1
3:30.589,75812,(,0,0,2
3:30.700,75852,t,0,0,0
3:30.803,75889,),0,0,2
3:30.911,75928,(,0,0,0
3:30.983,75954,p,0,0,0
3:31.050,75978,),0,0,0
3:31.100,75996,(,0,0,1
3:31.156,76016,N,0,0,0
3:31.178,76024,),0,0,1
3:31.225,76041,(,0,0,2
3:31.364,76091,t,0,0,0
3:31.439,76118,),0,0,2
3:31.550,76158,(,0,0,0
3:31.619,76183,p,0,0,0
3:31.708,76215,),0,0,0
3:31.772,76238,(,0,0,1
3:31.831,76259,N,0,0,0
3:31.853,76267,),0,0,1
3:31.914,76289,(,0,0,2
3:32.033,76332,t,0,0,0
3:32.108,76359,),0,0,2
3:32.231,76403,(,0,0,0
3:32.278,76420,p,0,0,0
3:32.353,76447,),0,0,0
3:32.417,76470,(,0,0,1
3:32.472,76490,N,0,0,0
3:32.492,76497,),0,0,1
3:32.592,76533,(,0,0,2
3:32.675,76563,t,0,0,0
3:32.756,76592,),0,0,2
3:32.886,76639,(,0,0,0
3:32.922,76652,p,0,0,0
3:33.008,76683,),0,0,0
3:33.069,76705,(,0,0,1
3:33.122,76724,N,0,0,0
3:33.144,76732,),0,0,1
3:33.203,76753,(,0,0,2
3:33.292,76785,t,0,0,0
3:33.381,76817,),0,0,2
3:33.519,76867,(,0,0,0
3:33.550,76878,p,0,0,0
3:33.633,76908,),0,0,0
3:33.686,76927,(,0,0,1
3:33.742,76947,N,0,0,0
3:33.761,76954,),0,0,1
3:33.844,76984,(,0,0,2
3:33.933,77016,t,0,0,0
3:34.011,77044,),0,0,2
3:34.122,77084,(,0,0,0
3:34.158,77097,p,0,0,0
3:34.253,77131,),0,0,0
3:34.308,77151,(,0,0,1
3:34.367,77172,N,0,0,0
3:34.389,77180,),0,0,1
3:34.464,77207,(,0,0,2
3:34.564,77243,t,0,0,0
3:34.642,77271,),0,0,2
3:34.761,77314,(,0,0,0
3:34.797,77327,p,0,0,0
3:34.897,77363,),0,0,0
3:34.950,77382,(,0,0,1
3:35.000,77400,N,0,0,0
3:35.017,77406,),0,0,1
3:35.094,77434,(,0,0,2
3:35.178,77464,t,0,0,0
3:35.261,77494,),0,0,2
3:35.375,77535,(,0,0,0
3:35.428,77554,p,0,0,0
3:35.508,77583,),0,0,0
3:35.558,77601,(,0,0,1
3:35.614,77621,N,0,0,0
3:35.636,77629,),0,0,1
3:35.722,77660,(,0,0,2
3:35.811,77692,t,0,0,0
3:35.908,77727,),0,0,2
3:36.031,77771,(,0,0,0
3:36.069,77785,p,0,0,0
3:36.156,77816,),0,0,0
3:36.206,77834,(,0,0,1
3:36.267,77856,N,0,0,0
3:36.289,77864,),0,0,1
3:36.331,77879,(,0,0,2
3:36.467,77928,t,0,0,0
3:36.547,77957,),0,0,2
3:36.669,78001,(,0,0,0
3:36.703,78013,p,0,0,0
3:36.789,78044,),0,0,0
3:36.850,78066,(,0,0,1
3:36.908,78087,N,0,0,0
3:36.928,78094,),0,0,1
3:37.019,78127,(,0,0,2
3:37.117,78162,t,0,0,0
3:37.203,78193,),0,0,2
3:37.325,78237,(,0,0,0
3:37.361,78250,p,0,0,0
3:37.447,78281,),0,0,0
3:37.503,78301,(,0,0,1
3:37.561,78322,N,0,0,0
3:37.581,78329,),0,0,1
3:37.656,78356,(,0,0,2
3:37.772,78398,t,0,0,0
3:37.856,78428,),0,0,2
3:37.972,78470,(,0,0,0
3:38.006,78482,p,0,0,0
3:38.039,78494,),0,0,0
3:38.150,78534,(,0,0,1
3:38.208,78555,N,0,0,0
3:38.231,78563,),0,0,1
3:38.303,78589,(,0,0,2
3:38.389,78620,t,0,0,5
3:38.503,78661,t,0,0,5
3:38.558,78681,),0,0,2
3:38.644,78712,(,0,0,0
3:38.700,78732,p,0,0,0
3:38.744,78748,),0,0,0
3:38.764,78755,N,0,0,0
3:38.767,78756,(,0,0,1
3:38.844,78784,),0,0,1
3:38.914,78809,(,0,0,2
3:39.017,78846,t,0,0,0
3:39.108,78879,),0,0,2
3:39.225,78921,(,0,0,0
3:39.267,78936,p,0,0,0
3:39.336,78961,),0,0,0
3:39.392,78981,(,0,0,1
3:39.447,79001,N,0,0,0
3:39.467,79008,),0,0,1
3:39.547,79037,(,0,0,2
3:39.619,79063,t,0,0,0
3:39.753,79111,),0,0,2
3:39.772,79118,(,0,0,0
3:39.842,79143,p,0,0,0
3:39.942,79179,),0,0,0
3:39.994,79198,(,0,0,1
3:40.067,79224,N,0,0,0
3:40.089,79232,),0,0,1
3:40.158,79257,(,0,0,2
3:40.256,79292,t,0,0,5
3:40.358,79329,t,0,0,5
3:40.400,79344,),0,0,2
3:40.439,79358,(,0,0,0
3:40.469,79369,p,0,0,0
3:40.497,79379,),0,0,0
3:40.597,79415,(,0,0,1
3:40.650,79434,N,0,0,0
3:40.672,79442,),0,0,1
3:40.714,79457,(,0,0,2
3:40.839,79502,t,0,0,5
3:40.936,79537,t,0,0,5
3:40.989,79556,),0,0,2
3:41.022,79568,(,0,0,0
3:41.064,79583,p,0,0,0
3:41.083,79590,),0,0,0
3:41.169,79621,(,0,0,1
3:41.225,79641,N,0,0,0
3:41.244,79648,),0,0,1
3:41.336,79681,(,0,0,2
3:41.408,79707,t,0,0,0
3:41.483,79734,),0,0,2
3:41.603,79777,(,0,0,0
3:41.633,79788,p,0,0,0
3:41.706,79814,),0,0,0
3:41.764,79835,(,0,0,1
3:41.825,79857,N,0,0,0
3:41.847,79865,),0,0,1
3:41.928,79894,(,0,0,2
3:42.031,79931,t,0,0,5
3:42.111,79960,t,0,0,5
3:42.147,79973,),0,0,2
3:42.206,79994,(,0,0,0
3:42.261,80014,p,0,0,0
3:42.358,80049,),0,0,0
3:42.394,80062,(,0,0,1
3:42.456,80084,N,0,0,0
3:42.478,80092,),0,0,1
3:42.539,80114,(,0,0,2
3:42.656,80156,t,0,0,0
3:42.739,80186,),0,0,2
3:42.850,80226,(,0,0,0
3:42.883,80238,p,0,0,0
3:43.017,80286,),0,0,0
3:43.022,80288,(,0,0,1
3:43.094,80314,N,0,0,0
3:43.114,80321,),0,0,1
3:43.181,80345,(,0,0,2
3:43.281,80381,t,0,0,0
3:43.389,80420,),0,0,2
3:43.464,80447,(,0,0,0
3:43.503,80461,p,0,0,0
3:43.547,80477,),0,0,0
3:43.664,80519,(,0,0,1
3:43.722,80540,N,0,0,0
3:43.742,80547,),0,0,1
3:43.850,80586,(,0,0,2
3:43.917,80610,t,0,0,0
3:43.989,80636,),0,0,2
3:44.086,80671,(,0,0,0
3:44.119,80683,p,0,0,0
3:44.208,80715,),0,0,0
3:44.264,80735,(,0,0,1
3:44.322,80756,N,0,0,0
3:44.342,80763,),0,0,1
3:44.439,80798,(,0,0,2
3:44.528,80830,t,0,0,0
3:44.614,80861,),0,0,2
3:44.694,80890,(,0,0,0
3:44.733,80904,p,0,0,0
3:44.806,80930,),0,0,0
3:44.864,80951,(,0,0,1
3:44.919,80971,N,0,0,0
3:44.942,80979,),0,0,1
3:45.008,81003,(,0,0,2
3:45.111,81040,t,0,0,0
3:45.186,81067,),0,0,2
3:45.256,81092,(,0,0,0
3:45.317,81114,p,0,0,0
3:45.397,81143,),0,0,0
3:45.453,81163,(,0,0,1
3:45.508,81183,N,0,0,0
3:45.528,81190,),0,0,1
3:45.600,81216,(,0,0,2
3:45.697,81251,t,0,0,0
3:45.772,81278,),0,0,2
3:45.867,81312,(,0,0,0
3:45.903,81325,p,0,0,0
3:45.992,81357,),0,0,0
3:46.044,81376,(,0,0,1
3:46.100,81396,N,0,0,0
3:46.119,81403,),0,0,1
3:46.194,81430,(,0,0,2
3:46.300,81468,t,0,0,0
3:46.375,81495,),0,0,2
3:46.472,81530,(,0,0,0
3:46.506,81542,p,0,0,0
3:46.592,81573,),0,0,0
3:46.639,81590,(,0,0,1
3:46.694,81610,N,0,0,0
3:46.714,81617,),0,0,1
3:46.797,81647,(,0,0,2
3:46.878,81676,t,0,0,0
3:46.950,81702,),0,0,2
3:47.000,81720,(,0,0,0
3:47.056,81740,p,0,0,0
3:47.164,81779,),0,0,0
3:47.178,81784,(,0,0,1
3:47.267,81816,N,0,0,0
3:47.289,81824,),0,0,1
3:47.369,81853,(,0,0,2
3:47.472,81890,t,0,0,0
3:47.544,81916,),0,0,2
3:47.653,81955,(,0,0,0
3:47.692,81969,p,0,0,0
3:47.772,81998,),0,0,0
3:47.828,82018,(,0,0,1
3:47.886,82039,N,0,0,0
3:47.908,82047,),0,0,1
3:47.997,82079,(,0,0,2
3:48.100,82116,t,0,0,0
3:48.192,82149,),0,0,2
3:48.289,82184,(,0,0,0
3:48.350,82206,p,0,0,0
3:48.392,82221,),0,0,0
3:48.478,82252,(,0,0,1
3:48.539,82274,N,0,0,0
3:48.558,82281,),0,0,1
3:48.656,82316,(,0,0,2
3:48.733,82344,t,0,0,0
3:48.819,82375,),0,0,2
3:48.939,82418,(,0,0,0
3:48.967,82428,p,0,0,0
3:49.017,82446,),0,0,0
3:49.114,82481,(,0,0,1
3:49.169,82501,N,0,0,0
3:49.192,82509,),0,0,1
3:49.258,82533,(,0,0,2
3:49.353,82567,t,0,0,0
3:49.503,82621,),0,0,2
3:49.525,82629,(,0,0,0
3:49.600,82656,p,0,0,0
3:49.689,82688,),0,0,0
3:49.711,82696,(,0,0,1
3:49.797,82727,N,0,0,0
3:49.819,82735,),0,0,1
3:49.881,82757,(,0,0,2
3:49.975,82791,t,0,0,0
3:50.064,82823,),0,0,2
3:50.153,82855,(,0,0,0
3:50.200,82872,p,0,0,0
3:50.272,82898,),0,0,0
3:50.336,82921,(,0,0,1
3:50.392,82941,N,0,0,0
3:50.411,82948,),0,0,1
3:50.494,82978,(,0,0,2
3:50.581,83009,t,0,0,0
3:50.694,83050,),0,0,2
3:50.753,83071,(,0,0,0
3:50.792,83085,p,0,0,0
3:50.881,83117,),0,0,0
3:50.939,83138,(,0,0,1
3:50.997,83159,N,0,0,0
3:51.017,83166,),0,0,1
3:51.094,83194,(,0,0,2
3:51.197,83231,t,0,0,0
3:51.272,83258,),0,0,2
3:51.356,83288,(,0,0,0
3:51.403,83305,p,0,0,0
3:51.489,83336,),0,0,0
3:51.550,83358,(,0,0,1
3:51.606,83378,N,0,0,0
3:51.622,83384,),0,0,1
3:51.708,83415,(,0,0,2
3:51.814,83453,t,0,0,0
3:51.961,83506,),0,0,2
3:51.964,83507,(,0,0,0
3:52.036,83533,p,0,0,0
3:52.117,83562,),0,0,0
3:52.136,83569,(,0,0,1
3:52.194,83590,N,0,0,0
3:52.222,83600,),0,0,1
3:52.331,83639,(,0,0,2
3:52.397,83663,t,0,0,0
3:52.492,83697,),0,0,2
3:52.511,83704,(,0,0,0
3:52.597,83735,p,0,0,0
3:52.642,83751,),0,0,0
3:52.725,83781,(,0,0,1
3:52.781,83801,N,0,0,0
3:52.803,83809,),0,0,1
3:52.861,83830,(,0,0,2
3:52.964,83867,t,0,0,0
3:53.031,83891,),0,0,2
3:53.119,83923,(,0,0,0
3:53.164,83939,p,0,0,0
3:53.236,83965,),0,0,0
3:53.253,83971,(,0,0,1
3:53.336,84001,N,0,0,0
3:53.356,84008,),0,0,1
3:53.433,84036,(,0,0,2
3:53.536,84073,t,0,0,0
3:53.644,84112,),0,0,2
3:53.711,84136,(,0,0,0
3:53.742,84147,p,0,0,0
3:53.839,84182,),0,0,0
3:53.894,84202,(,0,0,1
3:53.950,84222,N,0,0,0
3:53.969,84229,),0,0,1
3:54.022,84248,(,0,0,2
3:54.144,84292,t,0,0,0
3:54.236,84325,),0,0,2
3:54.342,84363,(,0,0,0
3:54.375,84375,p,0,0,0
3:54.489,84416,),0,0,0
3:54.494,84418,(,0,0,1
3:54.583,84450,N,0,0,0
3:54.603,84457,),0,0,1
3:54.700,84492,(,0,0,2
3:54.778,84520,t,0,0,0
3:54.869,84553,),0,0,2
3:54.958,84585,(,0,0,0
3:55.003,84601,p,0,0,0
3:55.067,84624,),0,0,0
3:55.142,84651,(,0,0,1
3:55.200,84672,N,0,0,0
3:55.228,84682,),0,0,1
3:55.322,84716,(,0,0,2
3:55.397,84743,t,0,0,5
3:55.500,84780,t,0,0,5
3:55.550,84798,),0,0,2
3:55.594,84814,(,0,0,0
3:55.633,84828,p,0,0,0
3:55.722,84860,),0,0,0
3:55.775,84879,(,0,0,1
3:55.833,84900,N,0,0,0
3:55.856,84908,),0,0,1
3:55.928,84934,(,0,0,2
3:56.025,84969,t,0,0,0
3:56.106,84998,),0,0,2
3:56.203,85033,(,0,0,0
3:56.269,85057,p,0,0,0
3:56.319,85075,),0,0,0
3:56.386,85099,(,0,0,1
3:56.444,85120,N,0,0,0
3:56.464,85127,),0,0,1
3:56.542,85155,(,0,0,2
3:56.644,85192,t,0,0,5
3:56.767,85236,t,0,0,5
3:56.794,85246,),0,0,2
3:56.833,85260,(,0,0,0
3:56.892,85281,p,0,0,0
3:56.953,85303,),0,0,0
3:57.011,85324,(,0,0,1
3:57.067,85344,N,0,0,0
3:57.089,85352,),0,0,1
3:57.161,85378,(,0,0,2
3:57.247,85409,t,0,0,0
3:57.342,85443,),0,0,2
3:57.425,85473,(,0,0,0
3:57.458,85485,p,0,0,0
3:57.542,85515,),0,0,0
3:57.597,85535,(,0,0,1
3:57.656,85556,N,0,0,0
3:57.678,85564,),0,0,1
3:57.758,85593,(,0,0,2
3:57.844,85624,t,0,0,0
3:57.944,85660,),0,0,2
3:58.000,85680,(,0,0,0
3:58.056,85700,p,0,0,0
3:58.103,85717,),0,0,0
3:58.153,85735,(,0,0,1
3:58.211,85756,N,0,0,0
3:58.233,85764,),0,0,1
3:58.297,85787,(,0,0,2
3:58.389,85820,t,0,0,0
3:58.472,85850,),0,0,2
3:58.614,85901,(,0,0,0
3:58.644,85912,p,0,0,0
3:58.678,85924,),0,0,0
3:58.772,85958,(,0,0,1
3:58.828,85978,N,0,0,0
3:58.850,85986,),0,0,1
3:58.925,86013,(,0,0,2
3:59.003,86041,t,0,0,0
3:59.081,86069,),0,0,2
3:59.181,86105,(,0,0,0
3:59.225,86121,p,0,0,0
3:59.267,86136,),0,0,0
3:59.364,86171,(,0,0,1
3:59.417,86190,N,0,0,0
3:59.439,86198,),0,0,1
3:59.517,86226,(,0,0,2
3:59.614,86261,t,0,0,0
3:59.694,86290,),0,0,2
3:59.808,86331,(,0,0,0
3:59.889,86360,p,0,0,0
3:59.942,86379,),0,0,0
4:00.003,86401,(,0,0,1
4:00.064,86423,N,0,0,0
4:00.083,86430,),0,0,1
4:00.186,86467,(,0,0,2
4:00.272,86498,t,0,0,0
4:00.347,86525,),0,0,2
4:00.450,86562,(,0,0,0
4:00.500,86580,p,0,0,0
4:00.589,86612,),0,0,0
4:00.608,86619,(,0,0,1
4:00.700,86652,N,0,0,0
4:00.725,86661,),0,0,1
4:00.825,86697,(,0,0,2
4:00.881,86717,t,0,0,0
4:00.975,86751,),0,0,2
4:01.100,86796,(,0,0,0
4:01.144,86812,p,0,0,0
4:01.236,86845,),0,0,0
4:01.283,86862,(,0,0,1
4:01.344,86884,N,0,0,0
4:01.364,86891,),0,0,1
4:01.439,86918,(,0,0,2
4:01.533,86952,t,0,0,0
4:01.606,86978,),0,0,2
4:01.717,87018,(,0,0,0
4:01.758,87033,p,0,0,0
4:01.847,87065,),0,0,0
4:01.892,87081,(,0,0,1
4:01.947,87101,N,0,0,0
4:01.967,87108,),0,0,1
4:02.039,87134,(,0,0,2
4:02.136,87169,t,0,0,0
4:02.217,87198,),0,0,2
4:02.314,87233,(,0,0,0
4:02.358,87249,p,0,0,0
4:02.444,87280,),0,0,0
4:02.492,87297,(,0,0,1
4:02.547,87317,N,0,0,0
4:02.567,87324,),0,0,1
4:02.633,87348,(,0,0,2
4:02.736,87385,t,0,0,0
4:02.817,87414,),0,0,2
4:02.928,87454,(,0,0,0
4:02.964,87467,p,0,0,0
4:03.050,87498,),0,0,0
4:03.108,87519,(,0,0,1
4:03.167,87540,N,0,0,0
4:03.186,87547,),0,0,1
4:03.278,87580,(,0,0,2
4:03.356,87608,t,0,0,0
4:03.447,87641,),0,0,2
4:03.522,87668,(,0,0,0
4:03.572,87686,p,0,0,0
4:03.644,87712,),0,0,0
4:03.703,87733,(,0,0,1
4:03.758,87753,N,0,0,0
4:03.781,87761,),0,0,1
4:03.864,87791,(,0,0,2
4:03.953,87823,t,0,0,0
4:04.028,87850,),0,0,2
4:04.133,87888,(,0,0,0
4:04.169,87901,p,0,0,0
4:04.286,87943,),0,0,0
4:04.306,87950,(,0,0,1
4:04.361,87970,N,0,0,0
4:04.381,87977,),0,0,1
4:04.447,88001,(,0,0,2
4:04.556,88040,t,0,0,0
4:04.608,88059,),0,0,2
4:04.736,88105,(,0,0,0
4:04.789,88124,p,0,0,0
4:04.864,88151,),0,0,0
4:04.922,88172,(,0,0,1
4:04.967,88188,N,0,0,0
4:05.067,88224,),0,0,1
4:05.106,88238,(,0,0,2
4:05.139,88250,t,0,0,1
4:05.242,88287,),0,0,2
4:05.328,88318,(,0,0,0
4:05.364,88331,p,0,0,0
4:05.439,88358,),0,0,0
4:05.506,88382,(,0,0,1
4:05.561,88402,N,0,0,0
4:05.581,88409,),0,0,1
4:05.639,88430,(,0,0,2
4:05.761,88474,t,0,0,0
4:05.839,88502,),0,0,2
4:06.042,88575,(,0,0,0
4:06.078,88588,p,0,0,0
4:06.097,88595,),0,0,0
4:06.122,88604,(,0,0,1
4:06.186,88627,N,0,0,0
4:06.206,88634,),0,0,1
4:06.347,88685,(,0,0,2
4:06.408,88707,t,0,0,1
4:06.519,88747,),0,0,2
4:06.603,88777,(,0,0,0
4:06.703,88813,p,0,0,0
4:06.731,88823,),0,0,0
4:06.753,88831,(,0,0,1
4:06.811,88852,N,0,0,0
4:06.831,88859,),0,0,1
4:06.889,88880,(,0,0,2
4:07.014,88925,t,0,0,0
4:07.067,88944,),0,0,2
4:07.194,88990,(,0,0,0
4:07.228,89002,p,0,0,0
4:07.325,89037,),0,0,0
4:07.358,89049,(,0,0,1
4:07.436,89077,N,0,0,0
4:07.458,89085,),0,0,1
4:07.522,89108,(,0,0,2
4:07.642,89151,t,0,0,0
4:07.725,89181,),0,0,2
4:07.850,89226,(,0,0,0
4:07.875,89235,p,0,0,0
4:07.906,89246,),0,0,0
4:08.017,89286,(,0,0,1
4:08.075,89307,N,0,0,0
4:08.097,89315,),0,0,1
4:08.169,89341,(,0,0,2
4:08.322,89396,t,0,0,0
4:08.431,89435,),0,0,2
4:08.469,89449,(,0,0,0
4:08.500,89460,p,0,0,0
4:08.511,89464,),0,0,0
4:08.636,89509,(,0,0,1
4:08.694,89530,N,0,0,0
4:08.717,89538,),0,0,1
4:08.797,89567,(,0,0,2
4:08.867,89592,t,0,0,0
4:08.953,89623,),0,0,2
4:09.175,89703,(,0,0,0
4:09.203,89713,p,0,0,0
4:09.228,89722,),0,0,0
4:09.239,89726,(,0,0,1
4:09.292,89745,N,0,0,0
4:09.317,89754,),0,0,1
4:09.397,89783,(,0,0,2
4:09.447,89801,t,0,0,0
4:09.578,89848,),0,0,2
4:09.589,89852,(,0,0,0
4:09.650,89874,p,0,0,0
4:09.736,89905,),0,0,0
4:09.750,89910,(,0,0,1
4:09.886,89959,N,0,0,0
4:09.908,89967,),0,0,1
4:10.081,90029,(,0,0,2
4:10.128,90046,t,0,0,1
4:10.161,90058,),0,0,2
4:10.250,90090,(,0,0,0
4:10.272,90098,p,0,0,0
4:10.361,90130,),0,0,0
4:10.417,90150,(,0,0,1
4:10.475,90171,N,0,0,0
4:10.497,90179,),0,0,1
4:10.586,90211,(,0,0,2
4:10.658,90237,t,0,0,0
4:10.750,90270,),0,0,2
4:10.836,90301,(,0,0,0
4:10.869,90313,p,0,0,0
4:10.892,90321,),0,0,0
4:10.983,90354,(,0,0,1
4:11.036,90373,N,0,0,0
4:11.067,90384,),0,0,1
4:11.119,90403,(,0,0,2
4:11.200,90432,t,0,0,0
4:11.317,90474,),0,0,2
4:11.417,90510,(,0,0,0
4:11.458,90525,p,0,0,0
4:11.553,90559,),0,0,0
4:11.569,90565,(,0,0,1
4:11.628,90586,N,0,0,0
4:11.678,90604,),0,0,1
4:11.756,90632,(,0,0,2
4:11.783,90642,t,0,0,5
4:11.942,90699,t,0,0,5
4:12.011,90724,),0,0,2
4:12.075,90747,(,0,0,0
4:12.117,90762,p,0,0,0
4:12.136,90769,),0,0,0
4:12.181,90785,(,0,0,1
4:12.231,90803,N,0,0,0
4:12.289,90824,),0,0,1
4:12.475,90891,(,0,0,2
4:12.506,90902,t,0,0,1
4:12.533,90912,),0,0,2
4:12.581,90929,(,0,0,0
4:12.600,90936,p,0,0,0
4:12.625,90945,),0,0,0
4:12.789,91004,(,0,0,1
4:12.853,91027,N,0,0,0
4:12.878,91036,),0,0,1
4:13.006,91082,(,0,0,2
4:13.061,91102,t,0,0,0
4:13.114,91121,),0,0,2
4:13.231,91163,(,0,0,0
4:13.256,91172,p,0,0,0
4:13.292,91185,),0,0,0
4:13.342,91203,(,0,0,1
4:13.469,91249,N,0,0,0
4:13.486,91255,),0,0,1
4:13.542,91275,(,0,0,2
4:13.569,91285,t,0,0,4
4:13.667,91320,t,0,0,4
4:13.744,91348,),0,0,2
4:13.786,91363,(,0,0,0
4:13.814,91373,p,0,0,0
4:13.853,91387,),0,0,0
4:13.989,91436,(,0,0,1
4:14.053,91459,N,0,0,0
4:14.069,91465,),0,0,1
4:14.144,91492,(,0,0,2
4:14.236,91525,t,0,0,0
4:14.308,91551,),0,0,2
4:14.403,91585,(,0,0,0
4:14.458,91605,p,0,0,0
4:14.558,91641,),0,0,0
4:14.578,91648,(,0,0,1
4:14.636,91669,N,0,0,0
4:14.658,91677,),0,0,1
4:14.733,91704,(,0,0,2
4:14.828,91738,t,0,0,0
4:14.917,91770,),0,0,2
4:14.975,91791,(,0,0,0
4:15.025,91809,p,0,0,0
4:15.094,91834,),0,0,0
4:15.147,91853,(,0,0,1
4:15.211,91876,N,0,0,0
4:15.233,91884,),0,0,1
4:15.278,91900,(,0,0,2
4:15.397,91943,t,0,0,0
4:15.475,91971,),0,0,2
4:15.550,91998,(,0,0,0
4:15.592,92013,p,0,0,0
4:15.631,92027,),0,0,0
4:15.722,92060,(,0,0,1
4:15.781,92081,N,0,0,0
4:15.800,92088,),0,0,1
4:15.869,92113,(,0,0,2
4:15.967,92148,t,0,0,0
4:16.081,92189,),0,0,2
4:16.131,92207,(,0,0,0
4:16.183,92226,p,0,0,0
4:16.250,92250,),0,0,0
4:16.294,92266,(,0,0,1
4:16.353,92287,N,0,0,0
4:16.372,92294,),0,0,1
4:16.425,92313,(,0,0,2
4:16.558,92361,t,0,0,0
4:16.625,92385,),0,0,2
4:16.681,92405,(,0,0,0
4:16.714,92417,p,0,0,0
4:16.750,92430,),0,0,0
4:16.875,92475,(,0,0,1
4:16.933,92496,N,0,0,0
4:16.956,92504,),0,0,1
4:16.994,92518,(,0,0,2
4:17.094,92554,t,0,0,5
4:17.200,92592,t,0,0,5
4:17.281,92621,),0,0,2
4:17.419,92671,(,0,0,1
4:17.475,92691,N,0,0,0
4:17.500,92700,),0,0,1
4:17.533,92712,(,0,0,2
4:17.669,92761,t,0,0,0
4:17.758,92793,),0,0,2
4:17.831,92819,(,0,0,0
4:17.883,92838,p,0,0,0
4:17.956,92864,),0,0,0
4:18.006,92882,(,0,0,1
4:18.064,92903,N,0,0,0
4:18.083,92910,),0,0,1
4:18.172,92942,(,0,0,2
4:18.258,92973,t,0,0,0
4:18.381,93017,),0,0,2
4:18.431,93035,(,0,0,1
4:18.481,93053,N,0,0,0
4:18.500,93060,),0,0,1
4:18.567,93084,(,0,0,2
4:18.678,93124,t,0,0,0
4:18.750,93150,),0,0,2
4:18.928,93214,(,0,0,0
4:18.975,93231,p,0,0,0
4:19.056,93260,),0,0,0
4:19.094,93274,(,0,0,1
4:19.150,93294,N,0,0,0
4:19.175,93303,),0,0,1
4:19.217,93318,(,0,0,2
4:19.375,93375,t,0,0,0
4:19.428,93394,),0,0,2
4:19.458,93405,(,0,0,0
4:19.572,93446,p,0,0,0
4:19.636,93469,),0,0,0
4:19.694,93490,(,0,0,1
4:19.753,93511,N,0,0,0
4:19.775,93519,),0,0,1
4:19.842,93543,(,0,0,2
4:19.931,93575,t,0,0,0
4:20.047,93617,),0,0,2
4:20.111,93640,(,0,0,0
4:20.142,93651,p,0,0,0
4:20.225,93681,),0,0,0
4:20.264,93695,(,0,0,1
4:20.317,93714,N,0,0,0
4:20.342,93723,),0,0,1
4:20.381,93737,(,0,0,2
4:20.511,93784,t,0,0,5
4:20.608,93819,t,0,0,5
4:20.700,93852,),0,0,2
4:20.839,93902,(,0,0,1
4:20.897,93923,N,0,0,0
4:20.917,93930,),0,0,1
4:21.000,93960,(,0,0,2
4:21.106,93998,t,0,0,5
4:21.211,94036,t,0,0,5
4:21.283,94062,),0,0,2
4:21.408,94107,(,0,0,1
4:21.464,94127,N,0,0,0
4:21.486,94135,),0,0,1
4:21.575,94167,(,0,0,2
4:21.644,94192,t,0,0,0
4:21.750,94230,),0,0,2
4:21.789,94244,(,0,0,0
4:21.844,94264,p,0,0,0
4:21.936,94297,),0,0,0
4:21.983,94314,(,0,0,1
4:22.039,94334,N,0,0,0
4:22.061,94342,),0,0,1
4:22.117,94362,(,0,0,2
4:22.225,94401,t,0,0,5
4:22.297,94427,t,0,0,5
4:22.328,94438,),0,0,2
4:22.367,94452,(,0,0,0
4:22.411,94468,p,0,0,0
4:22.489,94496,),0,0,0
4:22.536,94513,(,0,0,1
4:22.592,94533,N,0,0,0
4:22.614,94541,),0,0,1
4:22.644,94552,(,0,0,2
4:22.778,94600,t,0,0,5
4:22.883,94638,t,0,0,5
4:22.947,94661,),0,0,2
4:23.072,94706,(,0,0,1
4:23.128,94726,N,0,0,0
4:23.147,94733,),0,0,1
4:23.203,94753,(,0,0,2
4:23.308,94791,t,0,0,0
4:23.400,94824,),0,0,2
4:23.456,94844,(,0,0,0
4:23.497,94859,p,0,0,0
4:23.525,94869,),0,0,0
4:23.619,94903,(,0,0,1
4:23.681,94925,N,0,0,0
4:23.703,94933,),0,0,1
4:23.767,94956,(,0,0,2
4:23.872,94994,t,0,0,0
4:23.939,95018,),0,0,2
4:23.956,95024,(,0,0,0
4:23.997,95039,p,0,0,0
4:24.033,95052,),0,0,0
4:24.100,95076,(,0,0,1
4:24.156,95096,N,0,0,0
4:24.178,95104,),0,0,1
4:24.236,95125,(,0,0,2
4:24.344,95164,t,0,0,0
4:24.431,95195,),0,0,2
4:24.606,95258,(,0,0,0
4:24.647,95273,p,0,0,0
4:24.756,95312,),0,0,0
4:24.772,95318,(,0,0,1
4:24.833,95340,N,0,0,0
4:24.856,95348,),0,0,1
4:24.950,95382,(,0,0,2
4:25.047,95417,t,0,0,0
4:25.139,95450,),0,0,2
4:25.192,95469,(,0,0,0
4:25.250,95490,p,0,0,0
4:25.342,95523,),0,0,0
4:25.381,95537,(,0,0,1
4:25.439,95558,N,0,0,0
4:25.458,95565,),0,0,1
4:25.514,95585,(,0,0,2
4:25.631,95627,t,0,0,0
4:25.731,95663,),0,0,2
4:25.775,95679,(,0,0,0
4:25.817,95694,p,0,0,0
4:25.906,95726,),0,0,0
4:25.947,95741,(,0,0,1
4:26.006,95762,N,0,0,0
4:26.031,95771,),0,0,1
4:26.108,95799,(,0,0,2
4:26.197,95831,t,0,0,0
4:26.272,95858,),0,0,2
4:26.336,95881,(,0,0,0
4:26.383,95898,p,0,0,0
4:26.469,95929,),0,0,0
4:26.514,95945,(,0,0,1
4:26.572,95966,N,0,0,0
4:26.594,95974,),0,0,1
4:26.661,95998,(,0,0,2
4:26.753,96031,t,0,0,0
4:26.822,96056,),0,0,2
4:26.975,96111,(,0,0,1
4:27.028,96130,N,0,0,0
4:27.050,96138,),0,0,1
4:27.136,96169,(,0,0,2
4:27.217,96198,t,0,0,0
4:27.294,96226,),0,0,2
4:27.414,96269,(,0,0,0
4:27.458,96285,p,0,0,0
4:27.550,96318,),0,0,0
4:27.592,96333,(,0,0,1
4:27.647,96353,N,0,0,0
4:27.667,96360,),0,0,1
4:27.725,96381,(,0,0,2
4:27.833,96420,t,0,0,5
4:27.917,96450,t,0,0,5
4:27.997,96479,),0,0,2
4:28.131,96527,(,0,0,1
4:28.192,96549,N,0,0,0
4:28.211,96556,),0,0,1
4:28.294,96586,(,0,0,2
4:28.375,96615,t,0,0,0
4:28.461,96646,),0,0,2
4:28.497,96659,(,0,0,0
4:28.600,96696,p,0,0,0
4:28.639,96710,),0,0,0
4:28.669,96721,(,0,0,1
4:28.728,96742,N,0,0,0
4:28.750,96750,),0,0,1
4:28.825,96777,(,0,0,2
4:28.911,96808,t,0,0,0
4:28.978,96832,),0,0,2
4:29.031,96851,(,0,0,0
4:29.072,96866,p,0,0,0
4:29.158,96897,),0,0,0
4:29.200,96912,(,0,0,1
4:29.261,96934,N,0,0,0
4:29.278,96940,),0,0,1
4:29.339,96962,(,0,0,2
4:29.447,97001,t,0,0,0
4:29.522,97028,),0,0,2
4:29.592,97053,(,0,0,0
4:29.642,97071,p,0,0,0
4:29.714,97097,),0,0,0
4:29.764,97115,(,0,0,1
4:29.822,97136,N,0,0,0
4:29.842,97143,),0,0,1
4:29.939,97178,(,0,0,2
4:30.025,97209,t,0,0,0
4:30.122,97244,),0,0,2
4:30.150,97254,(,0,0,0
4:30.206,97274,p,0,0,0
4:30.308,97311,),0,0,0
4:30.319,97315,(,0,0,1
4:30.411,97348,N,0,0,0
4:30.433,97356,),0,0,1
4:30.519,97387,(,0,0,2
4:30.600,97416,t,0,0,0
4:30.694,97450,),0,0,2
4:30.744,97468,(,0,0,0
4:30.794,97486,p,0,0,0
4:30.878,97516,),0,0,0
4:30.919,97531,(,0,0,1
4:30.981,97553,N,0,0,0
4:31.006,97562,),0,0,1
4:31.072,97586,(,0,0,2
4:31.181,97625,t,0,0,0
4:31.261,97654,),0,0,2
4:31.314,97673,(,0,0,0
4:31.369,97693,p,0,0,0
4:31.444,97720,),0,0,0
4:31.497,97739,(,0,0,1
4:31.558,97761,N,0,0,0
4:31.578,97768,),0,0,1
4:31.661,97798,(,0,0,2
4:31.747,97829,t,0,0,0
4:31.831,97859,),0,0,2
4:31.886,97879,(,0,0,0
4:31.933,97896,p,0,0,0
4:32.008,97923,),0,0,0
4:32.050,97938,(,0,0,1
4:32.106,97958,N,0,0,0
4:32.122,97964,),0,0,1
4:32.203,97993,(,0,0,2
4:32.292,98025,t,0,0,0
4:32.383,98058,),0,0,2
4:32.425,98073,(,0,0,0
4:32.475,98091,p,0,0,0
4:32.511,98104,),0,0,0
4:32.600,98136,(,0,0,1
4:32.656,98156,N,0,0,0
4:32.678,98164,),0,0,1
4:32.772,98198,(,0,0,2
4:32.850,98226,t,0,0,0
4:32.931,98255,),0,0,2
4:32.981,98273,(,0,0,0
4:33.028,98290,p,0,0,0
4:33.114,98321,),0,0,0
4:33.158,98337,(,0,0,1
4:33.217,98358,N,0,0,0
4:33.236,98365,),0,0,1
4:33.319,98395,(,0,0,2
4:33.408,98427,t,0,0,0
4:33.483,98454,),0,0,2
4:33.547,98477,(,0,0,0
4:33.586,98491,p,0,0,0
4:33.672,98522,),0,0,0
4:33.719,98539,(,0,0,1
4:33.781,98561,N,0,0,0
4:33.800,98568,),0,0,1
4:33.864,98591,(,0,0,2
4:33.972,98630,t,0,0,0
4:34.042,98655,),0,0,2
4:34.103,98677,(,0,0,0
4:34.136,98689,p,0,0,0
4:34.200,98712,),0,0,0
4:34.264,98735,(,0,0,1
4:34.317,98754,N,0,0,0
4:34.336,98761,),0,0,1
4:34.447,98801,(,0,0,2
4:34.514,98825,t,0,0,0
4:34.581,98849,),0,0,2
4:34.644,98872,(,0,0,0
4:34.683,98886,p,0,0,0
4:34.756,98912,),0,0,0
4:34.803,98929,(,0,0,1
4:34.858,98949,N,0,0,0
4:34.875,98955,),0,0,1
4:34.947,98981,(,0,0,2
4:35.019,99007,t,0,0,5
4:35.117,99042,t,0,0,5
4:35.183,99066,),0,0,2
4:35.303,99109,(,0,0,1
4:35.361,99130,N,0,0,0
4:35.383,99138,),0,0,1
4:35.453,99163,(,0,0,2
4:35.561,99202,t,0,0,0
4:35.644,99232,),0,0,2
4:35.875,99315,(,0,0,1
4:35.897,99323,N,0,0,0
4:35.942,99339,),0,0,1
4:36.017,99366,(,0,0,2
4:36.125,99405,t,0,0,0
4:36.236,99445,),0,0,2
4:36.281,99461,(,0,0,0
4:36.297,99467,p,0,0,0
4:36.397,99503,),0,0,0
4:36.447,99521,(,0,0,1
4:36.475,99531,N,0,0,0
4:36.522,99548,),0,0,1
4:36.617,99582,(,0,0,2
4:36.714,99617,t,0,0,5
4:36.808,99651,t,0,0,5
4:36.872,99674,),0,0,2
4:37.025,99729,(,0,0,1
4:37.044,99736,N,0,0,0
4:37.092,99753,),0,0,1
4:37.175,99783,(,0,0,2
4:37.281,99821,t,0,0,0
4:37.347,99845,),0,0,2
4:37.586,99931,(,0,0,1
4:37.611,99940,N,0,0,0
4:37.661,99958,),0,0,1
4:37.744,99988,(,0,0,2
4:37.850   100026,t,0,0,0
4:37.922   100052,),0,0,2
4:37.975   100071,(,0,0,0
4:38.006   100082,p,0,0,0
4:38.092   100113,),0,0,0
4:38.150   100134,(,0,0,1
4:38.172   100142,N,0,0,0
4:38.219   100159,),0,0,1
4:38.275   100179,(,0,0,2
4:38.389   100220,t,0,0,0
4:38.472   100250,),0,0,2
4:38.717   100338,(,0,0,1
4:38.742   100347,N,0,0,0
4:38.786   100363,),0,0,1
4:38.867   100392,(,0,0,2
4:38.939   100418,t,0,0,0
4:39.031   100451,),0,0,2
4:39.264   100535,(,0,0,1
4:39.283   100542,N,0,0,0
4:39.331   100559,),0,0,1
4:39.400   100584,(,0,0,2
4:39.494   100618,t,0,0,0
4:39.569   100645,),0,0,2
4:39.808   100731,(,0,0,1
4:39.828   100738,N,0,0,0
4:39.872   100754,),0,0,1
4:39.917   100770,(,0,0,2
4:40.033   100812,t,0,0,0
4:40.114   100841,),0,0,2
4:40.150   100854,(,0,0,0
4:40.192   100869,p,0,0,0
4:40.275   100899,),0,0,0
4:40.331   100919,(,0,0,1
4:40.350   100926,N,0,0,0
4:40.394   100942,),0,0,1
4:40.453   100963,(,0,0,2
4:40.556   101000,t,0,0,0
4:40.639   101030,),0,0,2
4:40.678   101044,(,0,0,0
4:40.728   101062,p,0,0,0
4:40.800   101088,),0,0,0
4:40.858   101109,(,0,0,1
4:40.878   101116,N,0,0,0
4:40.925   101133,),0,0,1
4:40.953   101143,(,0,0,2
4:41.078   101188,t,0,0,5
4:41.178   101224,t,0,0,5
4:41.242   101247,),0,0,2
4:41.383   101298,(,0,0,1
4:41.403   101305,N,0,0,0
4:41.450   101322,),0,0,1
4:41.508   101343,(,0,0,2
4:41.614   101381,t,0,0,0
4:41.711   101416,),0,0,2
4:41.747   101429,(,0,0,0
4:41.808   101451,p,0,0,0
4:41.889   101480,),0,0,0
4:41.950   101502,(,0,0,1
4:41.972   101510,N,0,0,0
4:42.017   101526,),0,0,1
4:42.128   101566,(,0,0,2
4:42.186   101587,t,0,0,0
4:42.278   101620,),0,0,2
4:42.319   101635,(,0,0,0
4:42.372   101654,p,0,0,0
4:42.453   101683,),0,0,0
4:42.506   101702,(,0,0,1
4:42.528   101710,N,0,0,0
4:42.578   101728,),0,0,1
4:42.656   101756,(,0,0,2
4:42.753   101791,t,0,0,5
4:42.828   101818,t,0,0,5
4:42.892   101841,),0,0,2
4:43.072   101906,(,0,0,1
4:43.097   101915,N,0,0,0
4:43.142   101931,),0,0,1
4:43.228   101962,(,0,0,2
4:43.322   101996,t,0,0,0
4:43.386   102019,),0,0,2
4:43.475   102051,(,0,0,0
4:43.489   102056,p,0,0,0
4:43.558   102081,),0,0,0
4:43.600   102096,(,0,0,1
4:43.644   102112,N,0,0,0
4:43.689   102128,),0,0,1
4:43.794   102166,(,0,0,2
4:43.853   102187,t,0,0,0
4:43.933   102216,),0,0,2
4:44.167   102300,(,0,0,1
4:44.189   102308,N,0,0,0
4:44.233   102324,),0,0,1
4:44.281   102341,(,0,0,2
4:44.394   102382,t,0,0,0
4:44.489   102416,),0,0,2
4:44.697   102491,(,0,0,1
4:44.719   102499,N,0,0,0
4:44.764   102515,),0,0,1
4:44.844   102544,(,0,0,2
4:44.922   102572,t,0,0,0
4:45.025   102609,),0,0,2
4:45.247   102689,(,0,0,1
4:45.267   102696,N,0,0,0
4:45.311   102712,),0,0,1
4:45.406   102746,(,0,0,2
4:45.467   102768,t,0,0,0
4:45.553   102799,),0,0,2
4:45.769   102877,(,0,0,1
4:45.792   102885,N,0,0,0
4:45.839   102902,),0,0,1
4:45.917   102930,(,0,0,2
4:45.997   102959,t,0,0,0
4:46.094   102994,),0,0,2
4:46.119   103003,(,0,0,0
4:46.186   103027,p,0,0,0
4:46.261   103054,),0,0,0
4:46.278   103060,(,0,0,1
4:46.328   103078,N,0,0,0
4:46.372   103094,),0,0,1
4:46.458   103125,(,0,0,2
4:46.525   103149,t,0,0,0
4:46.603   103177,),0,0,2
4:46.833   103260,(,0,0,1
4:46.856   103268,N,0,0,0
4:46.903   103285,),0,0,1
4:46.983   103314,(,0,0,2
4:47.053   103339,t,0,0,0
4:47.119   103363,),0,0,2
4:47.144   103372,(,0,0,0
4:47.175   103383,p,0,0,0
4:47.214   103397,),0,0,0
4:47.350   103446,(,0,0,1
4:47.372   103454,N,0,0,0
4:47.419   103471,),0,0,1
4:47.506   103502,(,0,0,2
4:47.583   103530,t,0,0,0
4:47.678   103564,),0,0,2
4:47.894   103642,(,0,0,1
4:47.917   103650,N,0,0,0
4:47.969   103669,),0,0,1
4:48.047   103697,(,0,0,2
4:48.133   103728,t,0,0,0
4:48.228   103762,),0,0,2
4:48.264   103775,(,0,0,0
4:48.311   103792,p,0,0,0
4:48.406   103826,),0,0,0
4:48.431   103835,(,0,0,1
4:48.453   103843,N,0,0,0
4:48.503   103861,),0,0,1
4:48.586   103891,(,0,0,2
4:48.647   103913,t,0,0,0
4:48.750   103950,),0,0,2
4:48.847   103985,(,0,0,0
4:48.861   103990,p,0,0,0
4:48.975   104031,),0,0,0
4:48.997   104039,(,0,0,1
4:49.025   104049,N,0,0,0
4:49.075   104067,),0,0,1
4:49.158   104097,(,0,0,2
4:49.253   104131,t,0,0,0
4:49.331   104159,),0,0,2
4:49.389   104180,(,0,0,0
4:49.433   104196,p,0,0,0
4:49.517   104226,),0,0,0
4:49.572   104246,(,0,0,1
4:49.594   104254,N,0,0,0
4:49.642   104271,),0,0,1
4:49.736   104305,(,0,0,2
4:49.811   104332,t,0,0,0
4:49.900   104364,),0,0,2
4:49.947   104381,(,0,0,0
4:49.994   104398,p,0,0,0
4:50.114   104441,),0,0,0
4:50.133   104448,(,0,0,1
4:50.158   104457,N,0,0,0
4:50.203   104473,),0,0,1
4:50.261   104494,(,0,0,2
4:50.367   104532,t,0,0,0
4:50.456   104564,),0,0,2
4:50.697   104651,(,0,0,1
4:50.717   104658,N,0,0,0
4:50.764   104675,),0,0,1
4:50.814   104693,(,0,0,2
4:50.922   104732,t,0,0,5
4:51.017   104766,t,0,0,5
4:51.092   104793,),0,0,2
4:51.228   104842,(,0,0,1
4:51.256   104852,N,0,0,0
4:51.303   104869,),0,0,1
4:51.367   104892,(,0,0,2
4:51.467   104928,t,0,0,0
4:51.542   104955,),0,0,2
4:51.603   104977,(,0,0,0
4:51.631   104987,p,0,0,0
4:51.725   105021,),0,0,0
4:51.767   105036,(,0,0,1
4:51.789   105044,N,0,0,0
4:51.836   105061,),0,0,1
4:51.897   105083,(,0,0,2
4:51.992   105117,t,0,0,0
4:52.075   105147,),0,0,2
4:52.283   105222,(,0,0,1
4:52.311   105232,N,0,0,0
4:52.361   105250,),0,0,1
4:52.436   105277,(,0,0,2
4:52.517   105306,t,0,0,0
4:52.592   105333,),0,0,2
4:52.647   105353,(,0,0,0
4:52.692   105369,p,0,0,0
4:52.772   105398,),0,0,0
4:52.825   105417,(,0,0,1
4:52.847   105425,N,0,0,0
4:52.889   105440,),0,0,1
4:52.944   105460,(,0,0,2
4:53.028   105490,t,0,0,5
4:53.125   105525,t,0,0,5
4:53.200   105552,),0,0,2
4:53.314   105593,(,0,0,1
4:53.361   105610,N,0,0,0
4:53.408   105627,),0,0,1
4:53.492   105657,(,0,0,2
4:53.575   105687,t,0,0,5
4:53.656   105716,t,0,0,5
4:53.697   105731,),0,0,2
4:53.878   105796,(,0,0,1
4:53.906   105806,N,0,0,0
4:53.953   105823,),0,0,1
4:54.006   105842,(,0,0,2
4:54.122   105884,t,0,0,0
4:54.200   105912,),0,0,2
4:54.247   105929,(,0,0,0
4:54.303   105949,p,0,0,0
4:54.394   105982,),0,0,0
4:54.450   106002,(,0,0,1
4:54.475   106011,N,0,0,0
4:54.525   106029,),0,0,1
4:54.586   106051,(,0,0,2
4:54.678   106084,t,0,0,0
4:54.761   106114,),0,0,2
4:54.847   106145,(,0,0,0
4:54.894   106162,p,0,0,0
4:54.967   106188,),0,0,0
4:55.019   106207,(,0,0,1
4:55.042   106215,N,0,0,0
4:55.097   106235,),0,0,1
4:55.158   106257,(,0,0,2
4:55.269   106297,t,0,0,0
4:55.342   106323,),0,0,2
4:55.367   106332,(,0,0,0
4:55.453   106363,p,0,0,0
4:55.544   106396,),0,0,0
4:55.603   106417,(,0,0,1
4:55.625   106425,N,0,0,0
4:55.669   106441,),0,0,1
4:55.758   106473,(,0,0,2
4:55.839   106502,t,0,0,0
4:55.922   106532,),0,0,2
4:56.142   106611,(,0,0,1
4:56.161   106618,N,0,0,0
4:56.208   106635,),0,0,1
4:56.283   106662,(,0,0,2
4:56.367   106692,t,0,0,0
4:56.447   106721,),0,0,2
4:56.506   106742,(,0,0,0
4:56.553   106759,p,0,0,0
4:56.622   106784,),0,0,0
4:56.683   106806,(,0,0,1
4:56.708   106815,N,0,0,0
4:56.750   106830,),0,0,1
4:56.831   106859,(,0,0,2
4:56.917   106890,t,0,0,0
4:56.986   106915,),0,0,2
4:57.039   106934,(,0,0,0
4:57.092   106953,p,0,0,0
4:57.172   106982,),0,0,0
4:57.219   106999,(,0,0,1
4:57.239   107006,N,0,0,0
4:57.286   107023,),0,0,1
4:57.358   107049,(,0,0,2
4:57.433   107076,t,0,0,0
4:57.525   107109,),0,0,2
4:57.750   107190,(,0,0,1
4:57.772   107198,N,0,0,0
4:57.819   107215,),0,0,1
4:57.889   107240,(,0,0,2
4:57.961   107266,t,0,0,0
4:58.058   107301,),0,0,2
4:58.136   107329,(,0,0,1
4:58.167   107340,N,0,0,0
4:58.208   107355,),0,0,1
4:58.289   107384,(,0,0,2
4:58.383   107418,t,0,0,0
4:58.444   107440,),0,0,2
4:58.714   107537,(,0,0,1
4:58.736   107545,N,0,0,0
4:58.783   107562,),0,0,1
4:58.844   107584,(,0,0,2
4:58.942   107619,t,0,0,5
4:59.031   107651,t,0,0,5
4:59.094   107674,),0,0,2
4:59.250   107730,(,0,0,1
4:59.269   107737,N,0,0,0
4:59.319   107755,),0,0,1
4:59.350   107766,(,0,0,2
4:59.478   107812,t,0,0,0
4:59.578   107848,),0,0,2
4:59.814   107933,(,0,0,1
4:59.836   107941,N,0,0,0
4:59.886   107959,),0,0,1
4:59.950   107982,(,0,0,2
5:00.053   108019,t,0,0,0
5:00.125   108045,),0,0,2
5:00.175   108063,(,0,0,0
5:00.219   108079,p,0,0,0
5:00.322   108116,),0,0,0
5:00.372   108134,(,0,0,1
5:00.394   108142,N,0,0,0
5:00.442   108159,),0,0,1
5:00.492   108177,(,0,0,2
5:00.603   108217,t,0,0,5
5:00.700   108252,t,0,0,5
5:00.775   108279,),0,0,2
5:00.900   108324,(,0,0,1
5:00.947   108341,N,0,0,0
5:01.000   108360,),0,0,1
5:01.044   108376,(,0,0,2
5:01.150   108414,t,0,0,0
5:01.233   108444,),0,0,2
5:01.269   108457,(,0,0,0
5:01.336   108481,p,0,0,0
5:01.414   108509,),0,0,0
5:01.467   108528,(,0,0,1
5:01.492   108537,N,0,0,0
5:01.536   108553,),0,0,1
5:01.644   108592,(,0,0,2
5:01.714   108617,t,0,0,0
5:01.800   108648,),0,0,2
5:01.853   108667,(,0,0,0
5:01.894   108682,p,0,0,0
5:01.983   108714,),0,0,0
5:02.033   108732,(,0,0,1
5:02.056   108740,N,0,0,0
5:02.106   108758,),0,0,1
5:02.156   108776,(,0,0,2
5:02.256   108812,t,0,0,0
5:02.336   108841,),0,0,2
5:02.386   108859,(,0,0,0
5:02.447   108881,p,0,0,0
5:02.542   108915,),0,0,0
5:02.567   108924,(,0,0,1
5:02.592   108933,N,0,0,0
5:02.639   108950,),0,0,1
5:02.728   108982,(,0,0,2
5:02.808   109011,t,0,0,0
5:02.881   109037,),0,0,2
5:02.958   109065,(,0,0,0
5:02.989   109076,p,0,0,0
5:03.058   109101,),0,0,0
5:03.119   109123,(,0,0,1
5:03.139   109130,N,0,0,0
5:03.186   109147,),0,0,1
5:03.261   109174,(,0,0,2
5:03.339   109202,t,0,0,5
5:03.433   109236,t,0,0,5
5:03.514   109265,),0,0,2
5:03.650   109314,(,0,0,1
5:03.672   109322,N,0,0,0
5:03.719   109339,),0,0,1
5:03.783   109362,(,0,0,2
5:03.881   109397,t,0,0,0
5:03.969   109429,),0,0,2
5:04.011   109444,(,0,0,0
5:04.056   109460,p,0,0,0
5:04.133   109488,),0,0,0
5:04.183   109506,(,0,0,1
5:04.206   109514,N,0,0,0
5:04.250   109530,),0,0,1
5:04.308   109551,(,0,0,2
5:04.403   109585,t,0,0,0
5:04.494   109618,),0,0,2
5:04.533   109632,(,0,0,0
5:04.583   109650,p,0,0,0
5:04.661   109678,),0,0,0
5:04.703   109693,(,0,0,1
5:04.725   109701,N,0,0,0
5:04.772   109718,),0,0,1
5:04.828   109738,(,0,0,2
5:04.925   109773,t,0,0,0
5:04.997   109799,),0,0,2
5:05.031   109811,(,0,0,0
5:05.083   109830,p,0,0,0
5:05.175   109863,),0,0,0
5:05.203   109873,(,0,0,1
5:05.222   109880,N,0,0,0
5:05.269   109897,),0,0,1
5:05.347   109925,(,0,0,0
5:05.408   109947,p,0,0,0
5:05.494   109978,),0,0,0
5:05.594   110014,(,0,0,1
5:05.614   110021,N,0,0,0
5:05.653   110035,),0,0,1
5:05.750   110070,(,0,0,2
5:05.825   110097,t,0,0,0
5:05.892   110121,),0,0,2
5:06.169   110221,(,0,0,1
5:06.194   110230,N,0,0,0
5:06.250   110250,),0,0,1
5:06.328   110278,(,0,0,2
5:06.425   110313,t,0,0,0
5:06.506   110342,),0,0,2
5:06.564   110363,(,0,0,0
5:06.619   110383,p,0,0,0
5:06.706   110414,),0,0,0
5:06.767   110436,(,0,0,1
5:06.789   110444,N,0,0,0
5:06.836   110461,),0,0,1
5:06.942   110499,(,0,0,2
5:07.003   110521,t,0,0,0
5:07.133   110568,),0,0,2
5:07.161   110578,(,0,0,0
5:07.206   110594,p,0,0,0
5:07.333   110640,),0,0,0
5:07.350   110646,(,0,0,1
5:07.378   110656,N,0,0,0
5:07.425   110673,),0,0,1
5:07.486   110695,(,0,0,2
5:07.589   110732,t,0,0,0
5:07.675   110763,),0,0,2
5:07.903   110845,(,0,0,1
5:07.922   110852,N,0,0,0
5:07.972   110870,),0,0,1
5:08.031   110891,(,0,0,2
5:08.125   110925,t,0,0,0
5:08.214   110957,),0,0,2
5:08.250   110970,(,0,0,0
5:08.303   110989,p,0,0,0
5:08.389   111020,),0,0,0
5:08.433   111036,(,0,0,1
5:08.456   111044,N,0,0,0
5:08.506   111062,),0,0,1
5:08.550   111078,(,0,0,2
5:08.658   111117,t,0,0,0
5:08.733   111144,),0,0,2
5:08.778   111160,(,0,0,0
5:08.783   111162,p,0,0,0
5:08.811   111172,),0,0,0
5:08.967   111228,(,0,0,1
5:08.986   111235,N,0,0,0
5:09.039   111254,),0,0,1
5:09.133   111288,(,0,0,2
5:09.194   111310,t,0,0,0
5:09.283   111342,),0,0,2
5:09.500   111420,(,0,0,1
5:09.519   111427,N,0,0,0
5:09.572   111446,),0,0,1
5:09.631   111467,(,0,0,2
5:09.711   111496,t,0,0,0
5:09.781   111521,),0,0,2
5:09.872   111554,(,0,0,0
5:09.889   111560,p,0,0,0
5:09.975   111591,),0,0,0
5:10.028   111610,(,0,0,1
5:10.053   111619,N,0,0,0
5:10.103   111637,),0,0,1
5:10.144   111652,(,0,0,2
5:10.250   111690,t,0,0,0
5:10.347   111725,),0,0,2
5:10.553   111799,(,0,0,1
5:10.572   111806,N,0,0,0
5:10.619   111823,),0,0,1
5:10.675   111843,(,0,0,2
5:10.767   111876,t,0,0,0
5:10.864   111911,),0,0,2
5:11.058   111981,(,0,0,1
5:11.081   111989,N,0,0,0
5:11.136   112009,),0,0,1
5:11.181   112025,(,0,0,2
5:11.286   112063,t,0,0,0
5:11.375   112095,),0,0,2
5:11.600   112176,(,0,0,1
5:11.625   112185,N,0,0,0
5:11.672   112202,),0,0,1
5:11.761   112234,(,0,0,2
5:11.819   112255,t,0,0,0
5:11.936   112297,),0,0,2
5:12.169   112381,(,0,0,1
5:12.192   112389,N,0,0,0
5:12.236   112405,),0,0,1
5:12.322   112436,(,0,0,2
5:12.397   112463,t,0,0,0
5:12.494   112498,),0,0,2
5:12.597   112535,(,0,0,1
5:12.614   112541,N,0,0,0
5:12.650   112554,),0,0,1
5:12.731   112583,(,0,0,2
5:12.822   112616,t,0,0,0
5:12.892   112641,),0,0,2
5:13.167   112740,(,0,0,1
5:13.189   112748,N,0,0,0
5:13.244   112768,),0,0,1
5:13.325   112797,(,0,0,2
5:13.414   112829,t,0,0,0
5:13.492   112857,),0,0,2
5:13.564   112883,(,0,0,0
5:13.597   112895,p,0,0,0
5:13.675   112923,),0,0,0
5:13.739   112946,(,0,0,1
5:13.761   112954,N,0,0,0
5:13.808   112971,),0,0,1
5:13.853   112987,(,0,0,2
5:13.964   113027,t,0,0,0
5:14.031   113051,),0,0,2
5:14.272   113138,(,0,0,1
5:14.303   113149,N,0,0,0
5:14.350   113166,),0,0,1
5:14.397   113183,(,0,0,2
5:14.511   113224,t,0,0,0
5:14.600   113256,),0,0,2
5:14.644   113272,(,0,0,0
5:14.703   113293,p,0,0,0
5:14.781   113321,),0,0,0
5:14.831   113339,(,0,0,1
5:14.853   113347,N,0,0,0
5:14.900   113364,),0,0,1
5:14.978   113392,(,0,0,2
5:15.053   113419,t,0,0,0
5:15.142   113451,),0,0,2
5:15.381   113537,(,0,0,1
5:15.400   113544,N,0,0,0
5:15.453   113563,),0,0,1
5:15.519   113587,(,0,0,2
5:15.606   113618,t,0,0,0
5:15.694   113650,),0,0,2
5:15.739   113666,(,0,0,0
5:15.783   113682,p,0,0,0
5:15.856   113708,),0,0,0
5:15.914   113729,(,0,0,1
5:15.933   113736,N,0,0,0
5:15.978   113752,),0,0,1
5:16.042   113775,(,0,0,2
5:16.122   113804,t,0,0,0
5:16.208   113835,),0,0,2
5:16.258   113853,(,0,0,0
5:16.322   113876,p,0,0,0
5:16.389   113900,),0,0,0
5:16.444   113920,(,0,0,1
5:16.467   113928,N,0,0,0
5:16.517   113946,),0,0,1
5:16.583   113970,(,0,0,2
5:16.667   114000,t,0,0,0
5:16.744   114028,),0,0,2
5:16.797   114047,(,0,0,0
5:16.844   114064,p,0,0,0
5:16.933   114096,),0,0,0
5:16.964   114107,(,0,0,1
5:16.978   114112,N,0,0,0
5:17.017   114126,),0,0,1
5:17.050   114138,(,0,0,2
5:17.156   114176,t,0,0,5
5:17.256   114212,t,0,0,5
5:17.319   114235,),0,0,2
5:17.472   114290,(,0,0,1
5:17.494   114298,N,0,0,0
5:17.542   114315,),0,0,1
5:17.614   114341,(,0,0,2
5:17.700   114372,t,0,0,0
5:17.783   114402,),0,0,2
5:18.017   114486,(,0,0,1
5:18.039   114494,N,0,0,0
5:18.086   114511,),0,0,1
5:18.144   114532,(,0,0,2
5:18.253   114571,t,0,0,0
5:18.339   114602,),0,0,2
5:18.586   114691,(,0,0,1
5:18.611   114700,N,0,0,0
5:18.661   114718,),0,0,1
5:18.739   114746,(,0,0,2
5:18.814   114773,t,0,0,0
5:18.900   114804,),0,0,2
5:19.069   114865,(,0,0,1
5:19.167   114900,N,0,0,0
5:19.217   114918,),0,0,1
5:19.319   114955,(,0,0,2
5:19.378   114976,t,0,0,0
5:19.497   115019,),0,0,2
5:19.717   115098,(,0,0,1
5:19.739   115106,N,0,0,0
5:19.786   115123,),0,0,1
5:19.892   115161,(,0,0,2
5:19.944   115180,t,0,0,5
5:20.053   115219,t,0,0,5
5:20.083   115230,),0,0,2
5:20.269   115297,(,0,0,1
5:20.292   115305,N,0,0,0
5:20.336   115321,),0,0,1
5:20.403   115345,(,0,0,2
5:20.506   115382,t,0,0,5
5:20.594   115414,t,0,0,5
5:20.611   115420,),0,0,2
5:20.831   115499,(,0,0,1
5:20.853   115507,N,0,0,0
5:20.897   115523,),0,0,1
5:20.964   115547,(,0,0,2
5:21.053   115579,t,0,0,0
5:21.128   115606,),0,0,2
5:21.381   115697,(,0,0,1
5:21.400   115704,N,0,0,0
5:21.442   115719,),0,0,1
5:21.525   115749,(,0,0,2
5:21.600   115776,t,0,0,0
5:21.683   115806,),0,0,2
5:21.925   115893,(,0,0,1
5:21.944   115900,N,0,0,0
5:21.986   115915,),0,0,1
5:22.044   115936,(,0,0,2
5:22.147   115973,t,0,0,0
5:22.206   115994,),0,0,2
5:22.264   116015,(,0,0,0
5:22.322   116036,p,0,0,0
5:22.422   116072,),0,0,0
5:22.450   116082,(,0,0,1
5:22.469   116089,N,0,0,0
5:22.517   116106,),0,0,1
5:22.594   116134,(,0,0,2
5:22.667   116160,t,0,0,0
5:22.758   116193,),0,0,2
5:22.989   116276,(,0,0,1
5:23.003   116281,N,0,0,0
5:23.047   116297,),0,0,1
5:23.117   116322,(,0,0,2
5:23.203   116353,t,0,0,0
5:23.286   116383,),0,0,2
5:23.514   116465,(,0,0,1
5:23.567   116484,N,0,0,0
5:23.617   116502,),0,0,1
5:23.706   116534,(,0,0,2
5:23.781   116561,t,0,0,0
5:23.872   116594,),0,0,2
5:24.117   116682,(,0,0,1
5:24.142   116691,N,0,0,0
5:24.192   116709,),0,0,1
5:24.281   116741,(,0,0,2
5:24.358   116769,t,0,0,0
5:24.442   116799,),0,0,2
5:24.697   116891,(,0,0,1
5:24.725   116901,N,0,0,0
5:24.775   116919,),0,0,1
5:24.858   116949,(,0,0,2
5:24.936   116977,t,0,0,0
5:25.033   117012,),0,0,2
5:25.269   117097,(,0,0,1
5:25.297   117107,N,0,0,0
5:25.342   117123,),0,0,1
5:25.417   117150,(,0,0,2
5:25.506   117182,t,0,0,0
5:25.583   117210,),0,0,2
5:25.675   117243,(,0,0,0
5:25.717   117258,p,0,0,0
5:25.806   117290,),0,0,0
5:25.858   117309,(,0,0,1
5:25.881   117317,N,0,0,0
5:25.928   117334,),0,0,1
5:25.997   117359,(,0,0,2
5:26.081   117389,t,0,0,0
5:26.164   117419,),0,0,2
5:26.239   117446,(,0,0,0
5:26.278   117460,p,0,0,0
5:26.361   117490,),0,0,0
5:26.411   117508,(,0,0,1
5:26.433   117516,N,0,0,0
5:26.481   117533,),0,0,1
5:26.550   117558,(,0,0,2
5:26.647   117593,t,0,0,0
5:26.725   117621,),0,0,2
5:26.808   117651,(,0,0,0
5:26.850   117666,p,0,0,0
5:26.939   117698,),0,0,0
5:26.986   117715,(,0,0,1
5:27.006   117722,N,0,0,0
5:27.050   117738,),0,0,1
5:27.111   117760,(,0,0,2
5:27.194   117790,t,0,0,0
5:27.283   117822,),0,0,2
5:27.536   117913,(,0,0,1
5:27.556   117920,N,0,0,0
5:27.600   117936,),0,0,1
5:27.681   117965,(,0,0,2
5:27.775   117999,t,0,0,0
5:27.842   118023,),0,0,2
5:28.011   118084,(,0,0,1
5:28.028   118090,N,0,0,0
5:28.069   118105,),0,0,1
5:28.136   118129,(,0,0,2
5:28.231   118163,t,0,0,0
5:28.300   118188,),0,0,2
5:28.472   118250,(,0,0,0
5:28.522   118268,p,0,0,0
5:28.608   118299,),0,0,0
5:28.619   118303,(,0,0,1
5:28.672   118322,N,0,0,0
5:28.719   118339,),0,0,1
5:28.800   118368,(,0,0,2
5:28.867   118392,t,0,0,5
5:28.969   118429,t,0,0,5
5:29.033   118452,),0,0,2
5:29.189   118508,(,0,0,1
5:29.208   118515,N,0,0,0
5:29.258   118533,),0,0,1
5:29.292   118545,(,0,0,2
5:29.406   118586,t,0,0,0
5:29.492   118617,),0,0,2
5:29.589   118652,(,0,0,0
5:29.603   118657,p,0,0,0
5:29.719   118699,),0,0,0
5:29.753   118711,(,0,0,1
5:29.772   118718,N,0,0,0
5:29.822   118736,),0,0,1
5:29.894   118762,(,0,0,2
5:29.983   118794,t,0,0,0
5:30.075   118827,),0,0,2
5:30.108   118839,(,0,0,0
5:30.186   118867,p,0,0,0
5:30.281   118901,),0,0,0
5:30.331   118919,(,0,0,1
5:30.353   118927,N,0,0,0
5:30.397   118943,),0,0,1
5:30.469   118969,(,0,0,2
5:30.561   119002,t,0,0,0
5:30.661   119038,),0,0,2
5:30.753   119071,(,0,0,0
5:30.769   119077,p,0,0,0
5:30.864   119111,),0,0,0
5:30.917   119130,(,0,0,1
5:30.939   119138,N,0,0,0
5:30.983   119154,),0,0,1
5:31.078   119188,(,0,0,2
5:31.158   119217,t,0,0,0
5:31.242   119247,),0,0,2
5:31.322   119276,(,0,0,0
5:31.367   119292,p,0,0,0
5:31.461   119326,),0,0,0
5:31.508   119343,(,0,0,1
5:31.531   119351,N,0,0,0
5:31.578   119368,),0,0,1
5:31.619   119383,(,0,0,2
5:31.747   119429,t,0,0,0
5:31.836   119461,),0,0,2
5:31.914   119489,(,0,0,0
5:31.956   119504,p,0,0,0
5:32.036   119533,),0,0,0
5:32.103   119557,(,0,0,1
5:32.122   119564,N,0,0,0
5:32.172   119582,),0,0,1
5:32.222   119600,(,0,0,2
5:32.342   119643,t,0,0,5
5:32.431   119675,t,0,0,5
5:32.469   119689,),0,0,2
5:32.508   119703,(,0,0,0
5:32.536   119713,p,0,0,0
5:32.617   119742,),0,0,0
5:32.672   119762,(,0,0,1
5:32.692   119769,N,0,0,0
5:32.742   119787,),0,0,1
5:32.794   119806,(,0,0,2
5:32.900   119844,t,0,0,0
5:32.989   119876,),0,0,2
5:33.242   119967,(,0,0,1
5:33.264   119975,N,0,0,0
5:33.311   119992,),0,0,1
5:33.392   120021,(,0,0,2
5:33.467   120048,t,0,0,0
5:33.542   120075,),0,0,2
5:33.756   120152,(,0,0,1
5:33.800   120168,N,0,0,0
5:33.847   120185,),0,0,1
5:33.919   120211,(,0,0,2
5:33.997   120239,t,0,0,0
5:34.081   120269,),0,0,2
5:34.322   120356,(,0,0,1
5:34.344   120364,N,0,0,0
5:34.392   120381,),0,0,1
5:34.453   120403,(,0,0,2
5:34.544   120436,t,0,0,5
5:34.642   120471,t,0,0,5
5:34.672   120482,),0,0,2
5:34.883   120558,(,0,0,1
5:34.903   120565,N,0,0,0
5:34.953   120583,),0,0,1
5:34.997   120599,(,0,0,2
5:35.081   120629,t,0,0,5
5:35.194   120670,t,0,0,5
5:35.225   120681,),0,0,2
5:35.422   120752,(,0,0,1
5:35.442   120759,N,0,0,0
5:35.489   120776,),0,0,1
5:35.569   120805,(,0,0,2
5:35.656   120836,t,0,0,0
5:35.706   120854,),0,0,2
5:35.803   120889,(,0,0,0
5:35.850   120906,p,0,0,0
5:35.939   120938,),0,0,0
5:35.975   120951,(,0,0,1
5:36.022   120968,N,0,0,0
5:36.069   120985,),0,0,1
5:36.178   121024,(,0,0,2
5:36.228   121042,t,0,0,0
5:36.339   121082,),0,0,2
5:36.425   121113,(,0,0,0
5:36.439   121118,p,0,0,0
5:36.525   121149,),0,0,0
5:36.583   121170,(,0,0,1
5:36.603   121177,N,0,0,0
5:36.650   121194,),0,0,1
5:36.742   121227,(,0,0,2
5:36.828   121258,t,0,0,0
5:36.919   121291,),0,0,2
5:36.986   121315,(,0,0,0
5:37.031   121331,p,0,0,0
5:37.150   121374,),0,0,0
5:37.172   121382,(,0,0,1
5:37.197   121391,N,0,0,0
5:37.250   121410,),0,0,1
5:37.319   121435,(,0,0,2
5:37.406   121466,t,0,0,0
5:37.478   121492,),0,0,2
5:37.539   121514,(,0,0,0
5:37.603   121537,p,0,0,0
5:37.689   121568,),0,0,0
5:37.744   121588,(,0,0,1
5:37.767   121596,N,0,0,0
5:37.817   121614,),0,0,1
5:37.886   121639,(,0,0,2
5:37.969   121669,t,0,0,0
5:38.056   121700,),0,0,2
5:38.300   121788,(,0,0,1
5:38.322   121796,N,0,0,0
5:38.372   121814,),0,0,1
5:38.444   121840,(,0,0,2
5:38.517   121866,t,0,0,0
5:38.611   121900,),0,0,2
5:38.844   121984,(,0,0,1
5:38.864   121991,N,0,0,0
5:38.914   122009,),0,0,1
5:38.981   122033,(,0,0,2
5:39.064   122063,t,0,0,0
5:39.136   122089,),0,0,2
5:39.181   122105,(,0,0,0
5:39.250   122130,p,0,0,0
5:39.328   122158,),0,0,0
5:39.386   122179,(,0,0,1
5:39.408   122187,N,0,0,0
5:39.458   122205,),0,0,1
5:39.789   122324,(,0,0,1
5:39.811   122332,N,0,0,0
5:39.850   122346,),0,0,1
5:39.919   122371,(,0,0,2
5:40.008   122403,t,0,0,0
5:40.078   122428,),0,0,2
5:40.250   122490,(,0,0,0
5:40.269   122497,p,0,0,0
5:40.297   122507,),0,0,0
5:40.444   122560,(,0,0,1
5:40.467   122568,N,0,0,0
5:40.517   122586,),0,0,1
5:40.581   122609,(,0,0,2
5:40.678   122644,t,0,0,0
5:40.744   122668,),0,0,2
5:40.986   122755,(,0,0,1
5:41.000   122760,N,0,0,0
5:41.042   122775,),0,0,1
5:41.089   122792,(,0,0,2
5:41.183   122826,t,0,0,5
5:41.294   122866,t,0,0,5
5:41.369   122893,),0,0,2
5:41.489   122936,(,0,0,1
5:41.536   122953,N,0,0,0
5:41.586   122971,),0,0,1
5:41.625   122985,(,0,0,2
5:41.739   123026,t,0,0,0
5:41.819   123055,),0,0,2
5:42.058   123141,(,0,0,1
5:42.081   123149,N,0,0,0
5:42.128   123166,),0,0,1
5:42.217   123198,(,0,0,2
5:42.275   123219,t,0,0,0
5:42.392   123261,),0,0,2
5:42.644   123352,(,0,0,1
5:42.669   123361,N,0,0,0
5:42.717   123378,),0,0,1
5:42.797   123407,(,0,0,2
5:42.875   123435,t,0,0,0
5:42.967   123468,),0,0,2
5:43.036   123493,(,0,0,0
5:43.078   123508,p,0,0,0
5:43.175   123543,),0,0,0
5:43.219   123559,(,0,0,1
5:43.244   123568,N,0,0,0
5:43.289   123584,),0,0,1
5:43.356   123608,(,0,0,2
5:43.461   123646,t,0,0,0
5:43.553   123679,),0,0,2
5:43.786   123763,(,0,0,1
5:43.833   123780,N,0,0,0
5:43.853   123787,),0,0,1
5:43.925   123813,(,0,0,2
5:44.003   123841,t,0,0,0
5:44.083   123870,),0,0,2
5:44.344   123964,(,0,0,1
5:44.367   123972,N,0,0,0
5:44.417   123990,),0,0,1
5:44.472   124010,(,0,0,2
5:44.578   124048,t,0,0,0
5:44.681   124085,),0,0,2
5:44.789   124124,(,0,0,1
5:44.806   124130,N,0,0,0
5:44.847   124145,),0,0,1
5:44.919   124171,(,0,0,2
5:45.011   124204,t,0,0,0
5:45.103   124237,),0,0,2
5:45.436   124357,(,0,0,1
5:45.458   124365,N,0,0,0
5:45.508   124383,),0,0,1
5:45.575   124407,(,0,0,2
5:45.658   124437,t,0,0,0
5:45.739   124466,),0,0,2
5:45.983   124554,(,0,0,1
5:46.000   124560,N,0,0,0
5:46.044   124576,),0,0,1
5:46.136   124609,(,0,0,2
5:46.186   124627,t,0,0,0
5:46.294   124666,),0,0,2
5:46.367   124692,(,0,0,0
5:46.378   124696,p,0,0,0
5:46.492   124737,),0,0,0
5:46.525   124749,(,0,0,1
5:46.544   124756,N,0,0,0
5:46.592   124773,),0,0,1
5:46.650   124794,(,0,0,2
5:46.747   124829,t,0,0,0
5:46.839   124862,),0,0,2
5:46.861   124870,(,0,0,0
5:46.922   124892,p,0,0,0
5:47.011   124924,),0,0,0
5:47.042   124935,(,0,0,1
5:47.058   124941,N,0,0,0
5:47.100   124956,),0,0,1
5:47.181   124985,(,0,0,0
5:47.247   125009,p,0,0,0
5:47.306   125030,),0,0,0
5:47.433   125076,(,0,0,1
5:47.461   125086,N,0,0,0
5:47.497   125099,),0,0,1
5:47.578   125128,(,0,0,2
5:47.667   125160,t,0,0,5
5:47.744   125188,t,0,0,5
5:47.789   125204,),0,0,2
5:48.014   125285,(,0,0,1
5:48.061   125302,N,0,0,0
5:48.114   125321,),0,0,1
5:48.147   125333,(,0,0,2
5:48.286   125383,t,0,0,0
5:48.364   125411,),0,0,2
5:48.614   125501,(,0,0,1
5:48.658   125517,N,0,0,0
5:48.719   125539,),0,0,1
5:48.786   125563,(,0,0,2
5:48.858   125589,t,0,0,5
5:48.958   125625,t,0,0,5
5:49.000   125640,),0,0,2
5:49.181   125705,(,0,0,1
5:49.228   125722,N,0,0,0
5:49.342   125763,),0,0,1
5:49.369   125773,(,0,0,2
5:49.428   125794,t,0,0,5
5:49.575   125847,t,0,0,5
5:49.611   125860,),0,0,2
5:49.772   125918,(,0,0,1
5:49.797   125927,N,0,0,0
5:49.844   125944,),0,0,1
5:49.908   125967,t,0,0,2
5:49.978   125992,),0,0,2
5:50.142   126051,(,0,0,1
5:50.211   126076,N,0,0,0
5:50.250   126090,),0,0,1
5:50.286   126103,(,0,0,2
5:50.383   126138,t,0,0,5
5:50.511   126184,t,0,0,5
5:50.547   126197,),0,0,2
5:50.711   126256,(,0,0,1
5:50.786   126283,N,0,0,0
5:50.825   126297,),0,0,1
5:50.928   126334,(,0,0,2
5:51.008   126363,t,0,0,0
5:51.072   126386,),0,0,2
5:51.144   126412,(,0,0,0
5:51.186   126427,p,0,0,0
5:51.267   126456,),0,0,0
5:51.283   126462,(,0,0,1
5:51.344   126484,N,0,0,0
5:51.386   126499,),0,0,1
5:51.417   126510,(,0,0,2
5:51.522   126548,t,0,0,5
5:51.644   126592,t,0,0,5
5:51.719   126619,),0,0,2
5:51.803   126649,(,0,0,1
5:51.897   126683,N,0,0,0
5:52.083   126750,),0,0,1
5:52.372   126854,(,0,0,1
5:52.425   126873,N,0,0,0
5:52.467   126888,),0,0,1
5:52.558   126921,(,0,0,2
5:52.614   126941,t,0,0,0
5:52.719   126979,),0,0,2
5:52.936   127057,(,0,0,1
5:52.964   127067,N,0,0,0
5:53.003   127081,),0,0,1
5:53.081   127109,(,0,0,2
5:53.153   127135,t,0,0,0
5:53.211   127156,),0,0,2
5:53.472   127250,(,0,0,1
5:53.497   127259,N,0,0,0
5:53.550   127278,),0,0,1
5:53.653   127315,(,0,0,2
5:53.686   127327,t,0,0,0
5:53.797   127367,),0,0,2
5:53.983   127434,(,0,0,1
5:54.072   127466,N,0,0,0
5:54.125   127485,),0,0,1
5:54.203   127513,(,0,0,2
5:54.275   127539,t,0,0,0
5:54.347   127565,),0,0,2
5:54.600   127656,(,0,0,1
5:54.639   127670,N,0,0,0
5:54.681   127685,),0,0,1
5:54.764   127715,(,0,0,2
5:54.847   127745,t,0,0,0
5:54.917   127770,),0,0,2
5:55.111   127840,(,0,0,1
5:55.125   127845,N,0,0,0
5:55.169   127861,),0,0,1
5:55.239   127886,(,0,0,2
5:55.303   127909,t,0,0,5
5:55.422   127952,t,0,0,5
5:55.467   127968,),0,0,2
5:55.689   128048,(,0,0,1
5:55.742   128067,N,0,0,0
5:55.797   128087,),0,0,1
5:55.861   128110,(,0,0,2
5:55.964   128147,t,0,0,0
5:56.044   128176,),0,0,2
5:56.275   128259,(,0,0,1
5:56.297   128267,N,0,0,0
5:56.353   128287,),0,0,1
5:56.461   128326,(,0,0,2
5:56.508   128343,t,0,0,0
5:56.600   128376,),0,0,2
5:56.839   128462,(,0,0,1
5:56.864   128471,N,0,0,0
5:56.911   128488,),0,0,1
5:56.994   128518,(,0,0,2
5:57.078   128548,t,0,0,0
5:57.167   128580,),0,0,2
5:57.394   128662,(,0,0,1
5:57.414   128669,N,0,0,0
5:57.458   128685,),0,0,1
5:57.539   128714,(,0,0,0
5:57.614   128741,p,0,0,0
5:57.697   128771,),0,0,0
5:57.772   128798,(,0,0,1
5:57.792   128805,N,0,0,0
5:57.833   128820,),0,0,1
5:57.894   128842,(,0,0,2
5:57.981   128873,t,0,0,0
5:58.050   128898,),0,0,2
5:58.403   129025,(,0,0,1
5:58.422   129032,N,0,0,0
5:58.467   129048,),0,0,1
5:58.533   129072,(,0,0,2
5:58.631   129107,t,0,0,0
5:58.689   129128,),0,0,2
5:58.867   129192,(,0,0,1
5:58.953   129223,N,0,0,0
5:58.992   129237,),0,0,1
5:59.053   129259,(,0,0,2
5:59.139   129290,t,0,0,0
5:59.194   129310,),0,0,2
5:59.442   129399,(,0,0,1
5:59.469   129409,N,0,0,0
5:59.514   129425,),0,0,1
5:59.606   129458,(,0,0,2
5:59.658   129477,t,0,0,0
5:59.778   129520,),0,0,2
5:59.975   129591,(,0,0,1
6:00.031   129611,N,0,0,0
6:00.089   129632,),0,0,1
6:00.164   129659,(,0,0,2
6:00.214   129677,t,0,0,5
6:00.336   129721,t,0,0,5
6:00.361   129730,),0,0,2
6:00.575   129807,(,0,0,1
6:00.594   129814,N,0,0,0
6:00.642   129831,),0,0,1
6:00.708   129855,(,0,0,2
6:00.792   129885,t,0,0,0
6:00.917   129930,),0,0,2
6:01.158   130017,(,0,0,1
6:01.183   130026,N,0,0,0
6:01.225   130041,),0,0,1
6:01.322   130076,(,0,0,2
6:01.369   130093,t,0,0,5
