Elapsedtime,sample,Type,Sub,Chan,Num
0:00.644,232,(,0,0,1
0:00.692,249,N,0,0,0
0:00.728,262,),0,0,1
0:00.869,313,t,0,0,2
0:00.953,343,),0,0,2
0:01.261,454,(,0,0,1
0:01.306,470,N,0,0,0
0:01.342,483,),0,0,1
0:01.347,485,(,0,0,2
0:01.433,516,t,0,0,1
0:01.578,568,),0,0,2
0:01.686,607,(,0,0,1
0:01.736,625,N,0,0,0
0:01.831,659,),0,0,1
0:01.856,668,(,0,0,2
0:01.964,707,t,0,0,0
0:02.075,747,),0,0,2
0:02.153,775,(,0,0,0
0:02.214,797,p,0,0,0
0:02.283,822,),0,0,0
0:02.331,839,(,0,0,1
0:02.403,865,N,0,0,0
0:02.439,878,),0,0,1
0:02.553,919,t,0,0,2
0:02.692,969,),0,0,2
0:02.950,1062,(,0,0,1
0:03.000,1080,N,0,0,0
0:03.036,1093,),0,0,1
0:03.164,1139,(,0,0,2
0:03.331,1199,t,0,0,0
0:03.372,1214,),0,0,2
0:03.544,1276,(,0,0,1
0:03.603,1297,N,0,0,0
0:03.639,1310,),0,0,1
0:03.806,1370,(,0,0,2
0:03.931,1415,t,0,0,0
0:04.006,1442,),0,0,2
0:04.128,1486,(,0,0,0
0:04.181,1505,p,0,0,0
0:04.225,1521,),0,0,0
0:04.322,1556,(,0,0,1
0:04.403,1585,N,0,0,0
0:04.442,1599,),0,0,1
0:04.556,1640,(,0,0,2
0:04.581,1649,t,0,0,4
0:04.708,1695,t,0,0,4
0:04.758,1713,),0,0,2
0:04.850,1746,(,0,0,0
0:04.897,1763,p,0,0,0
0:04.958,1785,),0,0,0
0:05.006,1802,(,0,0,1
0:05.047,1817,N,0,0,0
0:05.081,1829,),0,0,1
0:05.228,1882,(,0,0,2
0:05.319,1915,t,0,0,0
0:05.342,1923,),0,0,2
0:05.375,1935,(,0,0,0
0:05.422,1952,p,0,0,0
0:05.486,1975,),0,0,0
0:05.592,2013,(,0,0,1
0:05.631,2027,N,0,0,0
0:05.667,2040,),0,0,1
0:05.808,2091,(,0,0,2
0:05.939,2138,t,0,0,0
0:06.042,2175,),0,0,2
0:06.203,2233,(,0,0,1
0:06.244,2248,N,0,0,0
0:06.281,2261,),0,0,1
0:06.417,2310,(,0,0,2
0:06.531,2351,t,0,0,0
0:06.594,2374,),0,0,2
0:06.697,2411,(,0,0,0
0:06.778,2440,p,0,0,0
0:06.822,2456,),0,0,0
0:06.914,2489,(,0,0,1
0:06.964,2507,N,0,0,0
0:07.006,2522,),0,0,1
0:07.186,2587,(,0,0,2
0:07.275,2619,t,0,0,0
0:07.322,2636,),0,0,2
0:07.431,2675,(,0,0,0
0:07.500,2700,p,0,0,0
0:07.564,2723,),0,0,0
0:07.586,2731,(,0,0,1
0:07.633,2748,N,0,0,0
0:07.672,2762,),0,0,1
0:07.856,2828,(,0,0,2
0:07.922,2852,t,0,0,0
0:07.969,2869,),0,0,2
0:08.006,2882,(,0,0,0
0:08.050,2898,p,0,0,0
0:08.103,2917,),0,0,0
0:08.247,2969,(,0,0,1
0:08.294,2986,N,0,0,0
0:08.481,3053,),0,0,1
0:08.492,3057,(,0,0,2
0:08.633,3108,t,0,0,0
0:08.758,3153,),0,0,2
0:08.792,3165,(,0,0,0
0:08.842,3183,p,0,0,0
0:08.908,3207,),0,0,0
0:08.950,3222,(,0,0,1
0:09.014,3245,N,0,0,0
0:09.053,3259,),0,0,1
0:09.214,3317,(,0,0,2
0:09.306,3350,t,0,0,0
0:09.344,3364,),0,0,2
0:09.436,3397,(,0,0,0
0:09.514,3425,p,0,0,0
0:09.556,3440,),0,0,0
0:09.575,3447,(,0,0,1
0:09.619,3463,N,0,0,0
0:09.658,3477,),0,0,1
0:09.711,3496,(,0,0,2
0:09.761,3514,t,0,0,4
0:09.886,3559,t,0,0,4
0:09.936,3577,),0,0,2
0:09.958,3585,(,0,0,0
0:10.017,3606,p,0,0,0
0:10.069,3625,),0,0,0
0:10.131,3647,(,0,0,1
0:10.203,3673,N,0,0,0
0:10.239,3686,),0,0,1
0:10.314,3713,(,0,0,2
0:10.358,3729,t,0,0,1
0:10.456,3764,),0,0,2
0:10.469,3769,(,0,0,0
0:10.519,3787,p,0,0,0
0:10.583,3810,),0,0,0
0:10.608,3819,(,0,0,1
0:10.669,3841,N,0,0,0
0:10.739,3866,),0,0,1
0:10.775,3879,(,0,0,2
0:10.872,3914,t,0,0,0
0:10.983,3954,),0,0,2
0:11.322,4076,(,0,0,0
0:11.353,4087,p,0,0,0
0:11.389,4100,),0,0,0
0:11.464,4127,(,0,0,1
0:11.528,4150,N,0,0,0
0:11.564,4163,),0,0,1
0:11.639,4190,(,0,0,2
0:11.664,4199,t,0,0,4
0:11.822,4256,t,0,0,4
0:11.847,4265,),0,0,2
0:11.864,4271,(,0,0,0
0:11.925,4293,p,0,0,0
0:11.994,4318,),0,0,0
0:12.119,4363,(,0,0,1
0:12.167,4380,N,0,0,0
0:12.203,4393,),0,0,1
0:12.208,4395,(,0,0,2
0:12.297,4427,t,0,0,4
0:12.511,4504,t,0,0,4
0:12.556,4520,),0,0,2
0:12.711,4576,(,0,0,1
0:12.761,4594,N,0,0,0
0:12.800,4608,),0,0,1
0:12.956,4664,(,0,0,2
0:13.069,4705,t,0,0,0
0:13.100,4716,),0,0,2
0:13.333,4800,(,0,0,1
0:13.400,4824,N,0,0,0
0:13.442,4839,),0,0,1
0:13.522,4868,(,0,0,2
0:13.564,4883,t,0,0,4
0:13.742,4947,t,0,0,4
0:13.772,4958,),0,0,2
0:14.167,5100,(,0,0,1
0:14.231,5123,N,0,0,0
0:14.267,5136,),0,0,1
0:14.342,5163,(,0,0,2
0:14.372,5174,t,0,0,4
0:14.597,5255,t,0,0,4
0:14.633,5268,),0,0,2
0:14.844,5344,(,0,0,1
0:14.894,5362,N,0,0,0
0:14.933,5376,),0,0,1
0:15.111,5440,(,0,0,2
0:15.214,5477,t,0,0,0
0:15.256,5492,),0,0,2
0:15.583,5610,(,0,0,1
0:15.639,5630,N,0,0,0
0:15.675,5643,),0,0,1
0:15.825,5697,t,0,0,2
0:15.936,5737,),0,0,2
0:16.056,5780,(,0,0,0
0:16.089,5792,p,0,0,0
0:16.119,5803,),0,0,0
0:16.139,5810,(,0,0,1
0:16.186,5827,N,0,0,0
0:16.222,5840,),0,0,1
0:16.264,5855,(,0,0,2
0:16.331,5879,t,0,0,4
0:16.536,5953,t,0,0,4
0:16.561,5962,),0,0,2
0:16.628,5986,(,0,0,0
0:16.669,6001,p,0,0,0
0:16.725,6021,),0,0,0
0:16.875,6075,(,0,0,1
0:16.919,6091,N,0,0,0
0:17.097,6155,),0,0,1
0:17.125,6165,(,0,0,2
0:17.314,6233,t,0,0,0
0:17.467,6288,),0,0,2
0:17.619,6343,(,0,0,1
0:17.675,6363,N,0,0,0
0:17.711,6376,),0,0,1
0:17.853,6427,t,0,0,2
0:17.972,6470,),0,0,2
0:18.072,6506,(,0,0,1
0:18.136,6529,N,0,0,0
0:18.200,6552,),0,0,1
0:18.239,6566,(,0,0,2
0:18.314,6593,t,0,0,0
0:18.422,6632,),0,0,2
0:18.656,6716,(,0,0,1
0:18.719,6739,N,0,0,0
0:18.756,6752,),0,0,1
0:18.875,6795,(,0,0,2
0:18.908,6807,t,0,0,4
0:19.028,6850,t,0,0,4
0:19.061,6862,),0,0,2
0:19.086,6871,(,0,0,0
0:19.125,6885,p,0,0,0
0:19.172,6902,),0,0,0
0:19.236,6925,(,0,0,1
0:19.294,6946,N,0,0,0
0:19.333,6960,),0,0,1
0:19.408,6987,(,0,0,2
0:19.453,7003,t,0,0,4
0:19.575,7047,t,0,0,4
0:19.631,7067,),0,0,2
0:19.686,7087,(,0,0,0
0:19.725,7101,p,0,0,0
0:19.789,7124,),0,0,0
0:19.914,7169,(,0,0,1
0:19.961,7186,N,0,0,0
0:19.997,7199,),0,0,1
0:20.072,7226,(,0,0,2
0:20.125,7245,t,0,0,4
0:20.239,7286,t,0,0,4
0:20.269,7297,),0,0,2
0:20.444,7360,(,0,0,0
0:20.475,7371,p,0,0,0
0:20.522,7388,),0,0,0
0:20.547,7397,(,0,0,1
0:20.592,7413,N,0,0,0
0:20.628,7426,),0,0,1
0:20.769,7477,t,0,0,2
0:20.881,7517,),0,0,2
0:21.111,7600,(,0,0,1
0:21.156,7616,N,0,0,0
0:21.194,7630,),0,0,1
0:21.244,7648,(,0,0,2
0:21.314,7673,t,0,0,4
0:21.417,7710,t,0,0,4
0:21.450,7722,),0,0,2
0:21.547,7757,(,0,0,0
0:21.603,7777,p,0,0,0
0:21.650,7794,),0,0,0
0:21.733,7824,(,0,0,1
0:21.781,7841,N,0,0,0
0:21.819,7855,),0,0,1
0:21.961,7906,(,0,0,2
0:22.147,7973,t,0,0,0
0:22.197,7991,),0,0,2
0:22.297,8027,(,0,0,0
0:22.369,8053,p,0,0,0
0:22.425,8073,),0,0,0
0:22.486,8095,(,0,0,1
0:22.536,8113,N,0,0,0
0:22.569,8125,),0,0,1
0:22.661,8158,(,0,0,2
0:22.742,8187,t,0,0,0
0:22.819,8215,),0,0,2
0:23.017,8286,(,0,0,0
0:23.103,8317,p,0,0,0
0:23.144,8332,),0,0,0
0:23.258,8373,(,0,0,1
0:23.331,8399,N,0,0,0
0:23.364,8411,),0,0,1
0:23.419,8431,(,0,0,2
0:23.492,8457,t,0,0,4
0:23.600,8496,t,0,0,4
0:23.647,8513,),0,0,2
0:23.831,8579,(,0,0,0
0:23.864,8591,p,0,0,0
0:23.906,8606,),0,0,0
0:24.033,8652,(,0,0,1
0:24.078,8668,N,0,0,0
0:24.111,8680,),0,0,1
0:24.231,8723,t,0,0,2
0:24.322,8756,),0,0,2
0:24.444,8800,(,0,0,0
0:24.519,8827,p,0,0,0
0:24.586,8851,),0,0,0
0:24.611,8860,(,0,0,1
0:24.653,8875,N,0,0,0
0:24.689,8888,),0,0,1
0:24.756,8912,(,0,0,2
0:24.811,8932,t,0,0,4
0:24.931,8975,t,0,0,4
0:24.969,8989,),0,0,2
0:25.053,9019,(,0,0,0
0:25.133,9048,p,0,0,0
0:25.183,9066,),0,0,0
0:25.233,9084,(,0,0,1
0:25.283,9102,N,0,0,0
0:25.319,9115,),0,0,1
0:25.403,9145,(,0,0,2
0:25.422,9152,t,0,0,4
0:25.653,9235,t,0,0,4
0:25.717,9258,),0,0,2
0:25.944,9340,(,0,0,0
0:26.000,9360,p,0,0,0
0:26.083,9390,),0,0,0
0:26.103,9397,(,0,0,1
0:26.153,9415,N,0,0,0
0:26.189,9428,),0,0,1
0:26.256,9452,(,0,0,2
0:26.281,9461,t,0,0,4
0:26.553,9559,t,0,0,4
0:26.581,9569,),0,0,2
0:26.703,9613,(,0,0,0
0:26.739,9626,p,0,0,0
0:26.794,9646,),0,0,0
0:26.828,9658,(,0,0,1
0:26.881,9677,N,0,0,0
0:26.922,9692,),0,0,1
0:27.000,9720,(,0,0,2
0:27.031,9731,t,0,0,1
0:27.161,9778,),0,0,2
0:27.422,9872,(,0,0,1
0:27.494,9898,N,0,0,0
0:27.531,9911,),0,0,1
0:27.681,9965,(,0,0,2
0:27.775,9999,t,0,0,0
0:27.817,10014,),0,0,2
0:28.283,10182,(,0,0,0
0:28.339,10202,p,0,0,0
0:28.378,10216,),0,0,0
0:28.411,10228,(,0,0,1
0:28.464,10247,N,0,0,0
0:28.503,10261,),0,0,1
0:28.669,10321,(,0,0,2
0:28.789,10364,t,0,0,0
0:28.856,10388,),0,0,2
0:28.950,10422,(,0,0,0
0:28.997,10439,p,0,0,0
0:29.064,10463,),0,0,0
0:29.114,10481,(,0,0,1
0:29.158,10497,N,0,0,0
0:29.194,10510,),0,0,1
0:29.322,10556,(,0,0,2
0:29.511,10624,t,0,0,0
0:29.575,10647,),0,0,2
0:29.656,10676,(,0,0,0
0:29.706,10694,p,0,0,0
0:29.742,10707,),0,0,0
0:29.814,10733,(,0,0,1
0:29.858,10749,N,0,0,0
0:30.053,10819,),0,0,1
0:30.375,10935,(,0,0,1
0:30.419,10951,N,0,0,0
0:30.453,10963,),0,0,1
0:30.686,11047,(,0,0,1
0:30.758,11073,N,0,0,0
0:30.828,11098,),0,0,1
0:30.858,11109,(,0,0,2
0:30.969,11149,t,0,0,0
0:31.072,11186,),0,0,2
0:31.428,11314,(,0,0,0
0:31.475,11331,p,0,0,0
0:31.550,11358,),0,0,0
0:31.647,11393,(,0,0,1
0:31.739,11426,N,0,0,0
0:31.775,11439,),0,0,1
0:31.975,11511,(,0,0,2
0:32.058,11541,t,0,0,0
0:32.089,11552,),0,0,2
0:32.186,11587,(,0,0,0
0:32.247,11609,p,0,0,0
0:32.322,11636,),0,0,0
0:32.369,11653,(,0,0,1
0:32.414,11669,N,0,0,0
0:32.450,11682,),0,0,1
0:32.456,11684,(,0,0,2
0:32.553,11719,t,0,0,4
0:32.772,11798,t,0,0,4
0:32.831,11819,),0,0,2
0:33.056,11900,(,0,0,1
0:33.117,11922,N,0,0,0
0:33.153,11935,),0,0,1
0:33.228,11962,(,0,0,2
0:33.281,11981,t,0,0,4
0:33.506,12062,t,0,0,4
0:33.572,12086,),0,0,2
0:33.714,12137,(,0,0,1
0:33.794,12166,N,0,0,0
0:33.833,12180,),0,0,1
0:33.992,12237,(,0,0,2
0:34.103,12277,t,0,0,0
0:34.136,12289,),0,0,2
0:34.228,12322,(,0,0,0
0:34.253,12331,p,0,0,0
0:34.283,12342,),0,0,0
0:34.322,12356,(,0,0,1
0:34.375,12375,N,0,0,0
0:34.381,12377,(,0,0,0
0:34.414,12389,),0,0,1
0:34.486,12415,p,0,0,0
0:34.553,12439,),0,0,0
0:34.581,12449,(,0,0,1
0:34.739,12506,N,0,0,0
0:34.797,12527,),0,0,1
0:34.867,12552,(,0,0,2
0:34.956,12584,t,0,0,0
0:35.053,12619,),0,0,2
0:35.244,12688,(,0,0,0
0:35.297,12707,p,0,0,0
0:35.375,12735,),0,0,0
0:35.475,12771,(,0,0,1
0:35.522,12788,N,0,0,0
0:35.556,12800,),0,0,1
0:35.736,12865,(,0,0,2
0:35.867,12912,t,0,0,0
0:35.917,12930,),0,0,2
0:36.089,12992,(,0,0,1
0:36.153,13015,N,0,0,0
0:36.189,13028,),0,0,1
0:36.342,13083,(,0,0,2
0:36.422,13112,t,0,0,0
0:36.478,13132,),0,0,2
0:36.619,13183,(,0,0,1
0:36.667,13200,N,0,0,0
0:36.839,13262,),0,0,1
0:36.844,13264,(,0,0,2
0:36.964,13307,t,0,0,0
0:37.072,13346,),0,0,2
0:37.175,13383,(,0,0,0
0:37.231,13403,p,0,0,0
0:37.300,13428,),0,0,0
0:37.319,13435,(,0,0,1
0:37.364,13451,N,0,0,0
0:37.400,13464,),0,0,1
0:37.550,13518,(,0,0,2
0:37.650,13554,t,0,0,0
0:37.706,13574,),0,0,2
0:37.842,13623,(,0,0,0
0:37.878,13636,p,0,0,0
0:37.939,13658,),0,0,0
0:38.039,13694,(,0,0,1
0:38.117,13722,N,0,0,0
0:38.156,13736,),0,0,1
0:38.342,13803,(,0,0,2
0:38.422,13832,t,0,0,0
0:38.500,13860,),0,0,2
0:38.581,13889,(,0,0,0
0:38.653,13915,p,0,0,0
0:38.719,13939,),0,0,0
0:38.778,13960,(,0,0,1
0:38.825,13977,N,0,0,0
0:39.000,14040,),0,0,1
0:39.003,14041,t,0,0,2
0:39.111,14080,),0,0,2
0:39.383,14178,(,0,0,1
0:39.433,14196,N,0,0,0
0:39.619,14263,),0,0,1
0:39.631,14267,(,0,0,2
0:39.758,14313,t,0,0,0
0:39.819,14335,),0,0,2
0:39.914,14369,(,0,0,0
0:39.986,14395,p,0,0,0
0:40.036,14413,),0,0,0
0:40.089,14432,(,0,0,1
0:40.136,14449,N,0,0,0
0:40.169,14461,),0,0,1
0:40.175,14463,(,0,0,2
0:40.267,14496,t,0,0,1
0:40.400,14544,),0,0,2
0:40.508,14583,(,0,0,0
0:40.569,14605,p,0,0,0
0:40.622,14624,),0,0,0
0:40.697,14651,(,0,0,1
0:40.739,14666,N,0,0,0
0:40.772,14678,),0,0,1
0:40.939,14738,(,0,0,2
0:41.067,14784,t,0,0,0
0:41.097,14795,),0,0,2
0:41.225,14841,(,0,0,0
0:41.292,14865,p,0,0,0
0:41.358,14889,),0,0,0
0:41.444,14920,(,0,0,1
0:41.536,14953,N,0,0,0
0:41.572,14966,),0,0,1
0:41.739,15026,(,0,0,2
0:41.814,15053,t,0,0,0
0:41.878,15076,),0,0,2
0:41.961,15106,(,0,0,0
0:42.036,15133,p,0,0,0
0:42.092,15153,),0,0,0
0:42.136,15169,(,0,0,1
0:42.178,15184,N,0,0,0
0:42.211,15196,),0,0,1
0:42.286,15223,(,0,0,2
0:42.308,15231,t,0,0,4
0:42.517,15306,t,0,0,4
0:42.564,15323,),0,0,2
0:42.753,15391,(,0,0,1
0:42.814,15413,N,0,0,0
0:42.850,15426,),0,0,1
0:43.022,15488,(,0,0,2
0:43.094,15514,t,0,0,0
0:43.164,15539,),0,0,2
0:43.194,15550,(,0,0,0
0:43.236,15565,p,0,0,0
0:43.300,15588,),0,0,0
0:43.403,15625,(,0,0,1
0:43.447,15641,N,0,0,0
0:43.486,15655,),0,0,1
0:43.547,15677,(,0,0,2
0:43.586,15691,t,0,0,4
0:43.750,15750,t,0,0,4
0:43.786,15763,),0,0,2
0:43.864,15791,(,0,0,0
0:43.931,15815,p,0,0,0
0:44.008,15843,),0,0,0
0:44.044,15856,(,0,0,1
0:44.092,15873,N,0,0,0
0:44.131,15887,),0,0,1
0:44.217,15918,(,0,0,2
0:44.258,15933,t,0,0,1
0:44.372,15974,),0,0,2
0:44.622,16064,(,0,0,0
0:44.667,16080,p,0,0,0
0:44.717,16098,),0,0,0
0:44.739,16106,(,0,0,1
0:44.789,16124,N,0,0,0
0:44.828,16138,),0,0,1
0:45.000,16200,(,0,0,2
0:45.117,16242,t,0,0,0
0:45.189,16268,),0,0,2
0:45.228,16282,(,0,0,0
0:45.267,16296,p,0,0,0
0:45.306,16310,),0,0,0
0:45.350,16326,(,0,0,1
0:45.419,16351,N,0,0,0
0:45.458,16365,),0,0,1
0:45.639,16430,(,0,0,2
0:45.719,16459,t,0,0,0
0:45.789,16484,),0,0,2
0:46.078,16588,(,0,0,1
0:46.125,16605,N,0,0,0
0:46.161,16618,),0,0,1
0:46.269,16657,(,0,0,2
0:46.450,16722,t,0,0,0
0:46.517,16746,),0,0,2
0:46.547,16757,(,0,0,0
0:46.589,16772,p,0,0,0
0:46.653,16795,),0,0,0
0:46.744,16828,(,0,0,1
0:46.789,16844,N,0,0,0
0:46.825,16857,),0,0,1
0:46.889,16880,(,0,0,2
0:46.936,16897,t,0,0,1
0:47.067,16944,),0,0,2
0:47.106,16958,(,0,0,1
0:47.208,16995,N,0,0,0
0:47.261,17014,),0,0,1
0:47.317,17034,(,0,0,2
0:47.347,17045,t,0,0,1
0:47.458,17085,),0,0,2
0:47.742,17187,(,0,0,0
0:47.806,17210,p,0,0,0
0:47.861,17230,),0,0,0
0:47.894,17242,(,0,0,1
0:47.939,17258,N,0,0,0
0:47.972,17270,),0,0,1
0:48.122,17324,(,0,0,2
0:48.211,17356,t,0,0,0
0:48.250,17370,),0,0,2
0:48.467,17448,(,0,0,0
0:48.528,17470,p,0,0,0
0:48.603,17497,),0,0,0
0:48.625,17505,(,0,0,1
0:48.667,17520,N,0,0,0
0:48.706,17534,),0,0,1
0:48.764,17555,(,0,0,2
0:48.811,17572,t,0,0,4
0:48.947,17621,t,0,0,4
0:48.972,17630,),0,0,2
0:48.989,17636,(,0,0,0
0:49.047,17657,p,0,0,0
0:49.108,17679,),0,0,0
0:49.333,17760,(,0,0,1
0:49.406,17786,N,0,0,0
0:49.442,17799,),0,0,1
0:49.586,17851,(,0,0,2
0:49.703,17893,t,0,0,0
0:49.733,17904,),0,0,2
0:49.925,17973,(,0,0,0
0:49.956,17984,p,0,0,0
0:50.028,18010,),0,0,0
0:50.067,18024,(,0,0,1
0:50.147,18053,N,0,0,0
0:50.183,18066,),0,0,1
0:50.258,18093,(,0,0,2
0:50.325,18117,t,0,0,4
0:50.425,18153,t,0,0,4
0:50.483,18174,),0,0,2
0:50.664,18239,(,0,0,1
0:50.714,18257,N,0,0,0
0:50.747,18269,),0,0,1
0:50.917,18330,(,0,0,2
0:51.031,18371,t,0,0,0
0:51.064,18383,),0,0,2
0:51.208,18435,(,0,0,0
0:51.281,18461,p,0,0,0
0:51.350,18486,),0,0,0
0:51.381,18497,(,0,0,1
0:51.422,18512,N,0,0,0
0:51.458,18525,),0,0,1
0:51.547,18557,(,0,0,2
0:51.575,18567,t,0,0,4
0:51.800,18648,t,0,0,4
0:51.861,18670,),0,0,2
0:52.019,18727,(,0,0,1
0:52.072,18746,N,0,0,0
0:52.111,18760,),0,0,1
0:52.267,18816,(,0,0,2
0:52.381,18857,t,0,0,0
0:52.419,18871,),0,0,2
0:52.544,18916,(,0,0,0
0:52.583,18930,p,0,0,0
0:52.644,18952,),0,0,0
0:52.667,18960,(,0,0,1
0:52.711,18976,N,0,0,0
0:52.744,18988,),0,0,1
0:52.914,19049,(,0,0,0
0:52.972,19070,p,0,0,0
0:53.050,19098,),0,0,0
0:53.058,19101,(,0,0,1
0:53.250,19170,N,0,0,0
0:53.358,19209,),0,0,1
0:53.531,19271,(,0,0,0
0:53.603,19297,p,0,0,0
0:53.664,19319,),0,0,0
0:53.717,19338,(,0,0,1
0:53.761,19354,N,0,0,0
0:53.794,19366,),0,0,1
0:53.867,19392,(,0,0,2
0:53.889,19400,t,0,0,1
0:54.078,19468,),0,0,2
0:54.275,19539,(,0,0,1
0:54.317,19554,N,0,0,0
0:54.350,19566,),0,0,1
0:54.425,19593,(,0,0,2
0:54.458,19605,t,0,0,4
0:54.656,19676,t,0,0,4
0:54.692,19689,),0,0,2
0:54.858,19749,(,0,0,1
0:54.906,19766,N,0,0,0
0:54.944,19780,),0,0,1
0:54.950,19782,(,0,0,2
0:55.042,19815,t,0,0,1
0:55.186,19867,),0,0,2
0:55.597,20015,(,0,0,1
0:55.647,20033,N,0,0,0
0:55.683,20046,),0,0,1
0:55.800,20088,(,0,0,2
0:55.828,20098,t,0,0,4
0:55.939,20138,t,0,0,4
0:55.981,20153,),0,0,2
0:56.067,20184,(,0,0,0
0:56.131,20207,p,0,0,0
0:56.211,20236,),0,0,0
0:56.269,20257,(,0,0,1
0:56.314,20273,N,0,0,0
0:56.350,20286,),0,0,1
0:56.356,20288,(,0,0,2
0:56.447,20321,t,0,0,1
0:56.581,20369,),0,0,2
0:56.789,20444,(,0,0,0
0:56.819,20455,p,0,0,0
0:56.872,20474,),0,0,0
0:56.894,20482,(,0,0,1
0:56.969,20509,N,0,0,0
0:57.008,20523,),0,0,1
0:57.192,20589,(,0,0,0
0:57.264,20615,p,0,0,0
0:57.300,20628,),0,0,0
0:57.433,20676,(,0,0,1
0:57.475,20691,N,0,0,0
0:57.511,20704,),0,0,1
0:57.575,20727,(,0,0,2
0:57.639,20750,t,0,0,1
0:57.739,20786,),0,0,2
0:58.144,20932,(,0,0,0
0:58.183,20946,p,0,0,0
0:58.231,20963,),0,0,0
0:58.408,21027,(,0,0,1
0:58.461,21046,N,0,0,0
0:58.497,21059,),0,0,1
0:58.639,21110,t,0,0,2
0:58.758,21153,),0,0,2
0:58.972,21230,(,0,0,1
0:59.017,21246,N,0,0,0
0:59.050,21258,),0,0,1
0:59.139,21290,t,0,0,2
0:59.247,21329,),0,0,2
0:59.519,21427,(,0,0,1
0:59.564,21443,N,0,0,0
0:59.597,21455,),0,0,1
0:59.644,21472,(,0,0,2
0:59.700,21492,t,0,0,1
0:59.803,21529,),0,0,2
0:59.878,21556,(,0,0,0
0:59.911,21568,p,0,0,0
0:59.986,21595,),0,0,0
1:00.025,21609,(,0,0,1
1:00.103,21637,N,0,0,0
1:00.139,21650,),0,0,1
1:00.211,21676,(,0,0,2
1:00.261,21694,t,0,0,4
1:00.356,21728,t,0,0,4
1:00.397,21743,),0,0,2
1:00.506,21782,(,0,0,0
1:00.536,21793,p,0,0,0
1:00.589,21812,),0,0,0
1:00.619,21823,(,0,0,1
1:00.664,21839,N,0,0,0
1:00.697,21851,),0,0,1
1:00.844,21904,(,0,0,2
1:00.958,21945,t,0,0,0
1:00.981,21953,),0,0,2
1:01.292,22065,(,0,0,1
1:01.339,22082,N,0,0,0
1:01.375,22095,),0,0,1
1:01.550,22158,(,0,0,2
1:01.681,22205,t,0,0,0
1:01.764,22235,),0,0,2
1:02.053,22339,(,0,0,1
1:02.097,22355,N,0,0,0
1:02.133,22368,),0,0,1
1:02.214,22397,(,0,0,2
1:02.236,22405,t,0,0,4
1:02.372,22454,t,0,0,4
1:02.394,22462,),0,0,2
1:02.625,22545,(,0,0,0
1:02.689,22568,p,0,0,0
1:02.758,22593,),0,0,0
1:02.781,22601,(,0,0,1
1:02.825,22617,N,0,0,0
1:02.864,22631,),0,0,1
1:02.917,22650,(,0,0,2
1:03.000,22680,t,0,0,4
1:03.100,22716,t,0,0,4
1:03.158,22737,),0,0,2
1:03.311,22792,(,0,0,0
1:03.347,22805,p,0,0,0
1:03.414,22829,),0,0,0
1:03.469,22849,(,0,0,1
1:03.542,22875,N,0,0,0
1:03.578,22888,),0,0,1
1:03.642,22911,(,0,0,2
1:03.719,22939,t,0,0,4
1:03.819,22975,t,0,0,4
1:03.867,22992,),0,0,2
1:04.322,23156,(,0,0,1
1:04.400,23184,N,0,0,0
1:04.436,23197,),0,0,1
1:04.608,23259,(,0,0,2
1:04.703,23293,t,0,0,0
1:04.769,23317,),0,0,2
1:04.925,23373,(,0,0,0
1:04.975,23391,p,0,0,0
1:05.033,23412,),0,0,0
1:05.061,23422,(,0,0,1
1:05.103,23437,N,0,0,0
1:05.244,23488,),0,0,1
1:05.283,23502,(,0,0,2
1:05.300,23508,t,0,0,4
1:05.414,23549,t,0,0,4
1:05.431,23555,),0,0,2
1:05.594,23614,(,0,0,0
1:05.636,23629,p,0,0,0
1:05.681,23645,),0,0,0
1:05.764,23675,(,0,0,1
1:05.806,23690,N,0,0,0
1:05.964,23747,),0,0,1
1:05.997,23759,(,0,0,2
1:06.094,23794,t,0,0,0
1:06.208,23835,),0,0,2
1:06.442,23919,(,0,0,1
1:06.494,23938,N,0,0,0
1:06.531,23951,),0,0,1
1:06.711,24016,(,0,0,2
1:06.847,24065,t,0,0,0
1:06.872,24074,),0,0,2
1:06.997,24119,(,0,0,0
1:07.047,24137,p,0,0,0
1:07.125,24165,),0,0,0
1:07.158,24177,(,0,0,1
1:07.200,24192,N,0,0,0
1:07.236,24205,),0,0,1
1:07.342,24243,(,0,0,2
1:07.364,24251,t,0,0,1
1:07.481,24293,),0,0,2
1:07.817,24414,(,0,0,1
1:07.861,24430,N,0,0,0
1:07.897,24443,),0,0,1
1:08.075,24507,(,0,0,2
1:08.186,24547,t,0,0,0
1:08.283,24582,),0,0,2
1:08.394,24622,(,0,0,0
1:08.461,24646,p,0,0,0
1:08.542,24675,),0,0,0
1:08.564,24683,(,0,0,1
1:08.608,24699,N,0,0,0
1:08.644,24712,),0,0,1
1:08.708,24735,(,0,0,2
1:08.767,24756,t,0,0,4
1:08.889,24800,t,0,0,4
1:08.919,24811,),0,0,2
1:09.192,24909,(,0,0,0
1:09.228,24922,p,0,0,0
1:09.289,24944,),0,0,0
1:09.311,24952,(,0,0,1
1:09.353,24967,N,0,0,0
1:09.389,24980,),0,0,1
1:09.433,24996,(,0,0,2
1:09.517,25026,t,0,0,4
1:09.619,25063,t,0,0,4
1:09.656,25076,),0,0,2
1:09.742,25107,(,0,0,0
1:09.808,25131,p,0,0,0
1:09.872,25154,),0,0,0
1:09.933,25176,(,0,0,1
1:09.978,25192,N,0,0,0
1:10.011,25204,),0,0,1
1:10.097,25235,t,0,0,2
1:10.225,25281,),0,0,2
1:10.267,25296,(,0,0,0
1:10.319,25315,p,0,0,0
1:10.389,25340,),0,0,0
1:10.481,25373,(,0,0,1
1:10.525,25389,N,0,0,0
1:10.561,25402,),0,0,1
1:10.639,25430,(,0,0,2
1:10.692,25449,t,0,0,1
1:10.797,25487,),0,0,2
1:10.842,25503,(,0,0,1
1:10.911,25528,N,0,0,0
1:11.011,25564,),0,0,1
1:11.056,25580,(,0,0,2
1:11.117,25602,t,0,0,0
1:11.250,25650,),0,0,2
1:11.522,25748,(,0,0,0
1:11.564,25763,p,0,0,0
1:11.642,25791,),0,0,0
1:11.731,25823,(,0,0,1
1:11.792,25845,N,0,0,0
1:11.831,25859,),0,0,1
1:12.017,25926,(,0,0,2
1:12.092,25953,t,0,0,0
1:12.156,25976,),0,0,2
1:12.317,26034,(,0,0,0
1:12.347,26045,p,0,0,0
1:12.403,26065,),0,0,0
1:12.442,26079,(,0,0,1
1:12.506,26102,N,0,0,0
1:12.542,26115,),0,0,1
1:12.631,26147,(,0,0,2
1:12.675,26163,t,0,0,1
1:12.781,26201,),0,0,2
1:13.019,26287,(,0,0,1
1:13.075,26307,N,0,0,0
1:13.114,26321,),0,0,1
1:13.286,26383,(,0,0,2
1:13.361,26410,t,0,0,0
1:13.394,26422,),0,0,2
1:13.600,26496,(,0,0,1
1:13.650,26514,N,0,0,0
1:13.686,26527,),0,0,1
1:13.819,26575,(,0,0,2
1:13.981,26633,t,0,0,0
1:14.039,26654,),0,0,2
1:14.144,26692,(,0,0,0
1:14.219,26719,p,0,0,0
1:14.292,26745,),0,0,0
1:14.339,26762,(,0,0,1
1:14.386,26779,N,0,0,0
1:14.422,26792,),0,0,1
1:14.494,26818,(,0,0,2
1:14.542,26835,t,0,0,4
1:14.761,26914,t,0,0,4
1:14.828,26938,),0,0,2
1:15.089,27032,(,0,0,0
1:15.150,27054,p,0,0,0
1:15.222,27080,),0,0,0
1:15.261,27094,(,0,0,1
1:15.306,27110,N,0,0,0
1:15.342,27123,),0,0,1
1:15.417,27150,(,0,0,2
1:15.453,27163,t,0,0,4
1:15.681,27245,t,0,0,4
1:15.742,27267,),0,0,2
1:15.764,27275,(,0,0,0
1:15.814,27293,p,0,0,0
1:15.883,27318,),0,0,0
1:15.967,27348,(,0,0,1
1:16.011,27364,N,0,0,0
1:16.047,27377,),0,0,1
1:16.114,27401,(,0,0,2
1:16.156,27416,t,0,0,4
1:16.283,27462,t,0,0,4
1:16.342,27483,),0,0,2
1:16.561,27562,(,0,0,1
1:16.606,27578,N,0,0,0
1:16.642,27591,),0,0,1
1:16.789,27644,(,0,0,2
1:16.872,27674,t,0,0,0
1:16.914,27689,),0,0,2
1:17.236,27805,(,0,0,1
1:17.292,27825,N,0,0,0
1:17.328,27838,),0,0,1
1:17.500,27900,(,0,0,2
1:17.569,27925,t,0,0,0
1:17.636,27949,),0,0,2
1:17.731,27983,(,0,0,0
1:17.806,28010,p,0,0,0
1:17.861,28030,),0,0,0
1:17.989,28076,(,0,0,1
1:18.050,28098,N,0,0,0
1:18.086,28111,),0,0,1
1:18.156,28136,(,0,0,2
1:18.214,28157,t,0,0,4
1:18.422,28232,t,0,0,4
1:18.472,28250,),0,0,2
1:18.653,28315,(,0,0,1
1:18.697,28331,N,0,0,0
1:18.736,28345,),0,0,1
1:18.903,28405,(,0,0,2
1:19.011,28444,t,0,0,0
1:19.069,28465,),0,0,2
1:19.225,28521,(,0,0,0
1:19.286,28543,p,0,0,0
1:19.350,28566,),0,0,0
1:19.442,28599,(,0,0,1
1:19.494,28618,N,0,0,0
1:19.533,28632,),0,0,1
1:19.719,28699,(,0,0,2
1:19.781,28721,t,0,0,0
1:19.858,28749,),0,0,2
1:19.964,28787,(,0,0,0
1:20.019,28807,p,0,0,0
1:20.078,28828,),0,0,0
1:20.172,28862,(,0,0,1
1:20.236,28885,N,0,0,0
1:20.275,28899,),0,0,1
1:20.456,28964,(,0,0,2
1:20.542,28995,t,0,0,0
1:20.581,29009,),0,0,2
1:20.878,29116,(,0,0,1
1:20.928,29134,N,0,0,0
1:20.967,29148,),0,0,1
1:21.047,29177,(,0,0,2
1:21.089,29192,t,0,0,4
1:21.306,29270,t,0,0,4
1:21.375,29295,),0,0,2
1:21.636,29389,(,0,0,1
1:21.700,29412,N,0,0,0
1:21.736,29425,),0,0,1
1:21.828,29458,(,0,0,2
1:21.856,29468,t,0,0,4
1:22.053,29539,t,0,0,4
1:22.083,29550,),0,0,2
1:22.142,29571,(,0,0,0
1:22.200,29592,p,0,0,0
1:22.233,29604,),0,0,0
1:22.319,29635,(,0,0,1
1:22.389,29660,N,0,0,0
1:22.425,29673,),0,0,1
1:22.578,29728,(,0,0,2
1:22.656,29756,t,0,0,0
1:22.711,29776,),0,0,2
1:22.828,29818,(,0,0,0
1:22.864,29831,p,0,0,0
1:22.919,29851,),0,0,0
1:23.031,29891,(,0,0,1
1:23.078,29908,N,0,0,0
1:23.114,29921,),0,0,1
1:23.275,29979,(,0,0,2
1:23.414,30029,t,0,0,0
1:23.503,30061,),0,0,2
1:23.639,30110,(,0,0,0
1:23.669,30121,p,0,0,0
1:23.769,30157,),0,0,0
1:23.822,30176,(,0,0,1
1:23.900,30204,N,0,0,0
1:23.936,30217,),0,0,1
1:24.111,30280,(,0,0,2
1:24.208,30315,t,0,0,0
1:24.258,30333,),0,0,2
1:24.503,30421,(,0,0,1
1:24.575,30447,N,0,0,0
1:24.611,30460,),0,0,1
1:24.747,30509,(,0,0,2
1:24.897,30563,t,0,0,0
1:25.003,30601,),0,0,2
1:25.178,30664,(,0,0,1
1:25.228,30682,N,0,0,0
1:25.267,30696,),0,0,1
1:25.444,30760,(,0,0,2
1:25.567,30804,t,0,0,0
1:25.628,30826,),0,0,2
1:25.936,30937,(,0,0,1
1:25.983,30954,N,0,0,0
1:26.022,30968,),0,0,1
1:26.183,31026,t,0,0,2
1:26.281,31061,),0,0,2
1:26.481,31133,(,0,0,1
1:26.525,31149,N,0,0,0
1:26.561,31162,),0,0,1
1:26.656,31196,(,0,0,2
1:26.689,31208,t,0,0,1
1:26.794,31246,),0,0,2
1:27.083,31350,(,0,0,0
1:27.158,31377,p,0,0,0
1:27.214,31397,),0,0,0
1:27.244,31408,(,0,0,1
1:27.283,31422,N,0,0,0
1:27.319,31435,),0,0,1
1:27.383,31458,(,0,0,2
1:27.422,31472,t,0,0,1
1:27.547,31517,),0,0,2
1:27.667,31560,(,0,0,0
1:27.725,31581,p,0,0,0
1:27.800,31608,),0,0,0
1:27.833,31620,(,0,0,1
1:27.875,31635,N,0,0,0
1:27.908,31647,),0,0,1
1:27.944,31660,(,0,0,2
1:28.039,31694,t,0,0,4
1:28.150,31734,t,0,0,4
1:28.192,31749,),0,0,2
1:28.456,31844,(,0,0,0
1:28.483,31854,p,0,0,0
1:28.550,31878,),0,0,0
1:28.608,31899,(,0,0,1
1:28.653,31915,N,0,0,0
1:28.689,31928,),0,0,1
1:28.803,31969,(,0,0,2
1:28.997,32039,t,0,0,0
1:29.069,32065,),0,0,2
1:29.225,32121,(,0,0,1
1:29.306,32150,N,0,0,0
1:29.342,32163,),0,0,1
1:29.411,32188,(,0,0,2
1:29.444,32200,t,0,0,4
1:29.567,32244,t,0,0,4
1:29.589,32252,),0,0,2
1:29.644,32272,(,0,0,0
1:29.700,32292,p,0,0,0
1:29.736,32305,),0,0,0
1:29.783,32322,(,0,0,1
1:29.831,32339,N,0,0,0
1:29.867,32352,),0,0,1
1:30.008,32403,(,0,0,2
1:30.111,32440,t,0,0,0
1:30.144,32452,),0,0,2
1:30.350,32526,(,0,0,1
1:30.419,32551,N,0,0,0
1:30.456,32564,),0,0,1
1:30.528,32590,(,0,0,2
1:30.569,32605,t,0,0,4
1:30.711,32656,t,0,0,4
1:30.764,32675,),0,0,2
1:31.075,32787,(,0,0,1
1:31.122,32804,N,0,0,0
1:31.161,32818,),0,0,1
1:31.222,32840,(,0,0,2
1:31.272,32858,t,0,0,1
1:31.411,32908,),0,0,2
1:31.689,33008,(,0,0,0
1:31.722,33020,p,0,0,0
1:31.794,33046,),0,0,0
1:31.844,33064,(,0,0,1
1:31.894,33082,N,0,0,0
1:31.931,33095,),0,0,1
1:32.006,33122,(,0,0,2
1:32.056,33140,t,0,0,4
1:32.283,33222,t,0,0,4
1:32.344,33244,),0,0,2
1:32.422,33272,(,0,0,0
1:32.475,33291,p,0,0,0
1:32.536,33313,),0,0,0
1:32.561,33322,(,0,0,1
1:32.603,33337,N,0,0,0
1:32.636,33349,),0,0,1
1:32.706,33374,(,0,0,2
1:32.758,33393,t,0,0,1
1:32.872,33434,),0,0,2
1:33.169,33541,(,0,0,0
1:33.222,33560,p,0,0,0
1:33.281,33581,),0,0,0
1:33.300,33588,(,0,0,1
1:33.347,33605,N,0,0,0
1:33.381,33617,),0,0,1
1:33.444,33640,(,0,0,2
1:33.519,33667,t,0,0,4
1:33.744,33748,t,0,0,4
1:33.797,33767,),0,0,2
1:33.897,33803,(,0,0,0
1:33.947,33821,p,0,0,0
1:34.014,33845,),0,0,0
1:34.039,33854,(,0,0,1
1:34.081,33869,N,0,0,0
1:34.114,33881,),0,0,1
1:34.178,33904,(,0,0,2
1:34.247,33929,t,0,0,4
1:34.353,33967,t,0,0,4
1:34.397,33983,),0,0,2
1:34.500,34020,(,0,0,0
1:34.561,34042,p,0,0,0
1:34.606,34058,),0,0,0
1:34.717,34098,(,0,0,1
1:34.803,34129,N,0,0,0
1:34.839,34142,),0,0,1
1:35.014,34205,(,0,0,2
1:35.144,34252,t,0,0,0
1:35.278,34300,),0,0,2
1:35.433,34356,(,0,0,1
1:35.494,34378,N,0,0,0
1:35.531,34391,),0,0,1
1:35.692,34449,(,0,0,2
1:35.775,34479,t,0,0,0
1:35.814,34493,),0,0,2
1:35.922,34532,(,0,0,0
1:35.978,34552,p,0,0,0
1:36.044,34576,),0,0,0
1:36.083,34590,(,0,0,1
1:36.125,34605,N,0,0,0
1:36.158,34617,),0,0,1
1:36.219,34639,(,0,0,2
1:36.272,34658,t,0,0,4
1:36.361,34690,t,0,0,4
1:36.386,34699,),0,0,2
1:36.442,34719,(,0,0,0
1:36.469,34729,p,0,0,0
1:36.500,34740,),0,0,0
1:36.625,34785,(,0,0,1
1:36.664,34799,N,0,0,0
1:36.700,34812,),0,0,1
1:36.739,34826,(,0,0,2
1:36.808,34851,t,0,0,4
1:37.042,34935,t,0,0,4
1:37.103,34957,),0,0,2
1:37.208,34995,(,0,0,0
1:37.283,35022,p,0,0,0
1:37.350,35046,),0,0,0
1:37.367,35052,(,0,0,1
1:37.417,35070,N,0,0,0
1:37.453,35083,),0,0,1
1:37.636,35149,(,0,0,2
1:37.731,35183,t,0,0,0
1:37.836,35221,),0,0,2
1:38.208,35355,(,0,0,1
1:38.250,35370,N,0,0,0
1:38.350,35406,),0,0,1
1:38.381,35417,(,0,0,2
1:38.458,35445,t,0,0,0
1:38.567,35484,),0,0,2
1:38.939,35618,(,0,0,0
1:38.972,35630,p,0,0,0
1:39.019,35647,),0,0,0
1:39.106,35678,(,0,0,1
1:39.150,35694,N,0,0,0
1:39.319,35755,),0,0,1
1:39.331,35759,t,0,0,2
1:39.486,35815,),0,0,2
1:39.511,35824,(,0,0,0
1:39.575,35847,p,0,0,0
1:39.614,35861,),0,0,0
1:39.711,35896,(,0,0,1
1:39.758,35913,N,0,0,0
1:39.794,35926,),0,0,1
1:39.967,35988,(,0,0,2
1:40.089,36032,t,0,0,0
1:40.156,36056,),0,0,2
1:40.261,36094,(,0,0,0
1:40.294,36106,p,0,0,0
1:40.394,36142,),0,0,0
1:40.417,36150,(,0,0,1
1:40.458,36165,N,0,0,0
1:40.494,36178,),0,0,1
1:40.628,36226,(,0,0,2
1:40.764,36275,t,0,0,0
1:40.897,36323,),0,0,2
1:41.086,36391,(,0,0,1
1:41.161,36418,N,0,0,0
1:41.200,36432,),0,0,1
1:41.358,36489,(,0,0,2
1:41.444,36520,t,0,0,0
1:41.478,36532,),0,0,2
1:41.561,36562,(,0,0,0
1:41.625,36585,p,0,0,0
1:41.692,36609,),0,0,0
1:41.742,36627,(,0,0,1
1:41.786,36643,N,0,0,0
1:41.822,36656,),0,0,1
1:41.892,36681,(,0,0,2
1:41.931,36695,t,0,0,4
1:42.150,36774,t,0,0,4
1:42.203,36793,),0,0,2
1:42.275,36819,(,0,0,0
1:42.319,36835,p,0,0,0
1:42.369,36853,),0,0,0
1:42.422,36872,(,0,0,1
1:42.464,36887,N,0,0,0
1:42.503,36901,),0,0,1
1:42.628,36946,(,0,0,2
1:42.739,36986,t,0,0,0
1:42.764,36995,),0,0,2
1:43.064,37103,(,0,0,1
1:43.108,37119,N,0,0,0
1:43.144,37132,),0,0,1
1:43.314,37193,(,0,0,2
1:43.431,37235,t,0,0,0
1:43.461,37246,),0,0,2
1:43.622,37304,(,0,0,1
1:43.689,37328,N,0,0,0
1:43.725,37341,),0,0,1
1:43.731,37343,(,0,0,2
1:43.819,37375,t,0,0,4
1:44.053,37459,t,0,0,4
1:44.128,37486,),0,0,2
1:44.219,37519,(,0,0,0
1:44.278,37540,p,0,0,0
1:44.342,37563,),0,0,0
1:44.425,37593,(,0,0,1
1:44.472,37610,N,0,0,0
1:44.658,37677,),0,0,1
1:44.700,37692,(,0,0,2
1:44.844,37744,t,0,0,0
1:44.911,37768,),0,0,2
1:45.003,37801,(,0,0,0
1:45.044,37816,p,0,0,0
1:45.131,37847,),0,0,0
1:45.164,37859,(,0,0,1
1:45.206,37874,N,0,0,0
1:45.239,37886,),0,0,1
1:45.300,37908,(,0,0,2
1:45.336,37921,t,0,0,4
1:45.597,38015,t,0,0,4
1:45.658,38037,),0,0,2
1:45.856,38108,(,0,0,1
1:45.922,38132,N,0,0,0
1:45.958,38145,),0,0,1
1:46.008,38163,(,0,0,2
1:46.086,38191,t,0,0,4
1:46.206,38234,t,0,0,4
1:46.244,38248,),0,0,2
1:46.367,38292,(,0,0,0
1:46.403,38305,p,0,0,0
1:46.442,38319,),0,0,0
1:46.533,38352,(,0,0,1
1:46.578,38368,N,0,0,0
1:46.614,38381,),0,0,1
1:46.778,38440,(,0,0,2
1:46.883,38478,t,0,0,0
1:46.956,38504,),0,0,2
1:46.981,38513,(,0,0,0
1:47.036,38533,p,0,0,0
1:47.064,38543,),0,0,0
1:47.158,38577,(,0,0,1
1:47.225,38601,N,0,0,0
1:47.258,38613,),0,0,1
1:47.314,38633,(,0,0,2
1:47.364,38651,t,0,0,4
1:47.600,38736,t,0,0,4
1:47.636,38749,),0,0,2
1:47.858,38829,(,0,0,1
1:47.917,38850,N,0,0,0
1:47.953,38863,),0,0,1
1:48.036,38893,(,0,0,2
1:48.069,38905,t,0,0,4
1:48.186,38947,t,0,0,4
1:48.231,38963,),0,0,2
1:48.325,38997,(,0,0,0
1:48.375,39015,p,0,0,0
1:48.450,39042,),0,0,0
1:48.472,39050,(,0,0,1
1:48.514,39065,N,0,0,0
1:48.550,39078,),0,0,1
1:48.625,39105,(,0,0,2
1:48.686,39127,t,0,0,4
1:48.797,39167,t,0,0,4
1:48.842,39183,),0,0,2
1:49.003,39241,(,0,0,0
1:49.058,39261,p,0,0,0
1:49.125,39285,),0,0,0
1:49.236,39325,(,0,0,1
1:49.278,39340,N,0,0,0
1:49.314,39353,),0,0,1
1:49.369,39373,(,0,0,2
1:49.439,39398,t,0,0,4
1:49.569,39445,t,0,0,4
1:49.611,39460,),0,0,2
1:49.803,39529,(,0,0,1
1:49.875,39555,N,0,0,0
1:49.911,39568,),0,0,1
1:49.967,39588,(,0,0,2
1:50.028,39610,t,0,0,1
1:50.131,39647,),0,0,2
1:50.436,39757,(,0,0,0
1:50.522,39788,p,0,0,0
1:50.578,39808,),0,0,0
1:50.611,39820,(,0,0,1
1:50.653,39835,N,0,0,0
1:50.692,39849,),0,0,1
1:50.744,39868,(,0,0,2
1:50.794,39886,t,0,0,1
1:50.922,39932,),0,0,2
1:51.019,39967,(,0,0,0
1:51.064,39983,p,0,0,0
1:51.103,39997,),0,0,0
1:51.353,40087,(,0,0,1
1:51.417,40110,N,0,0,0
1:51.456,40124,),0,0,1
1:51.622,40184,(,0,0,2
1:51.697,40211,t,0,0,0
1:51.761,40234,),0,0,2
1:51.944,40300,(,0,0,1
1:52.019,40327,N,0,0,0
1:52.056,40340,),0,0,1
1:52.142,40371,(,0,0,2
1:52.200,40392,t,0,0,4
1:52.308,40431,t,0,0,4
1:52.356,40448,),0,0,2
1:52.558,40521,(,0,0,1
1:52.600,40536,N,0,0,0
1:52.636,40549,),0,0,1
1:52.792,40605,(,0,0,2
1:52.881,40637,t,0,0,0
1:52.925,40653,),0,0,2
1:53.019,40687,(,0,0,0
1:53.078,40708,p,0,0,0
1:53.133,40728,),0,0,0
1:53.211,40756,(,0,0,1
1:53.267,40776,N,0,0,0
1:53.303,40789,),0,0,1
1:53.478,40852,(,0,0,2
1:53.558,40881,t,0,0,0
1:53.600,40896,),0,0,2
1:53.656,40916,(,0,0,0
1:53.694,40930,p,0,0,0
1:53.739,40946,),0,0,0
1:53.967,41028,(,0,0,1
1:54.014,41045,N,0,0,0
1:54.122,41084,),0,0,1
1:54.217,41118,(,0,0,2
1:54.283,41142,t,0,0,0
1:54.331,41159,),0,0,2
1:54.439,41198,(,0,0,0
1:54.483,41214,p,0,0,0
1:54.542,41235,),0,0,0
1:54.636,41269,(,0,0,1
1:54.719,41299,N,0,0,0
1:54.756,41312,),0,0,1
1:54.844,41344,(,0,0,2
1:54.872,41354,t,0,0,4
1:55.017,41406,t,0,0,4
1:55.089,41432,),0,0,2
1:55.200,41472,(,0,0,0
1:55.256,41492,p,0,0,0
1:55.311,41512,),0,0,0
1:55.406,41546,(,0,0,1
1:55.456,41564,N,0,0,0
1:55.494,41578,),0,0,1
1:55.672,41642,(,0,0,2
1:55.783,41682,t,0,0,0
1:55.864,41711,),0,0,2
1:55.944,41740,(,0,0,0
1:56.017,41766,p,0,0,0
1:56.083,41790,),0,0,0
1:56.106,41798,(,0,0,1
1:56.153,41815,N,0,0,0
1:56.192,41829,),0,0,1
1:56.264,41855,(,0,0,2
1:56.336,41881,t,0,0,4
1:56.436,41917,t,0,0,4
1:56.481,41933,),0,0,2
1:56.567,41964,(,0,0,0
1:56.628,41986,p,0,0,0
1:56.692,42009,),0,0,0
1:56.756,42032,(,0,0,1
1:56.797,42047,N,0,0,0
1:56.833,42060,),0,0,1
1:56.939,42098,(,0,0,2
1:57.100,42156,t,0,0,0
1:57.211,42196,),0,0,2
1:57.231,42203,(,0,0,0
1:57.297,42227,p,0,0,0
1:57.356,42248,),0,0,0
1:57.394,42262,(,0,0,1
1:57.464,42287,N,0,0,0
1:57.503,42301,),0,0,1
1:57.617,42342,),0,0,2
1:57.647,42353,t,0,0,0
1:57.678,42364,(,0,0,2
1:57.686,42367,(,0,0,0
1:57.756,42392,p,0,0,0
1:57.833,42420,),0,0,0
1:57.950,42462,(,0,0,1
1:58.019,42487,N,0,0,0
1:58.056,42500,),0,0,1
1:58.139,42530,(,0,0,2
1:58.156,42536,t,0,0,1
1:58.281,42581,),0,0,2
1:58.478,42652,(,0,0,1
1:58.553,42679,N,0,0,0
1:58.589,42692,),0,0,1
1:58.747,42749,(,0,0,2
1:58.853,42787,t,0,0,0
1:58.878,42796,),0,0,2
1:59.100,42876,(,0,0,0
1:59.125,42885,p,0,0,0
1:59.150,42894,),0,0,0
1:59.172,42902,(,0,0,1
1:59.214,42917,N,0,0,0
1:59.250,42930,),0,0,1
1:59.411,42988,(,0,0,2
1:59.506,43022,t,0,0,0
1:59.558,43041,),0,0,2
1:59.583,43050,(,0,0,0
1:59.644,43072,p,0,0,0
1:59.683,43086,),0,0,0
1:59.717,43098,(,0,0,1
1:59.761,43114,N,0,0,0
1:59.794,43126,),0,0,1
1:59.917,43170,(,0,0,2
2:00.075,43227,t,0,0,0
2:00.106,43238,),0,0,2
2:00.342,43323,(,0,0,1
2:00.400,43344,N,0,0,0
2:00.436,43357,),0,0,1
2:00.514,43385,(,0,0,2
2:00.558,43401,t,0,0,4
2:00.656,43436,t,0,0,4
2:00.711,43456,),0,0,2
2:00.758,43473,(,0,0,0
2:00.794,43486,p,0,0,0
2:00.836,43501,),0,0,0
2:00.911,43528,(,0,0,1
2:00.969,43549,N,0,0,0
2:01.006,43562,),0,0,1
2:01.081,43589,(,0,0,2
2:01.108,43599,t,0,0,4
2:01.258,43653,t,0,0,4
2:01.328,43678,),0,0,2
2:01.358,43689,(,0,0,0
2:01.408,43707,p,0,0,0
2:01.467,43728,),0,0,0
2:01.608,43779,(,0,0,1
2:01.661,43798,N,0,0,0
2:01.700,43812,),0,0,1
2:01.772,43838,(,0,0,2
2:01.817,43854,t,0,0,1
2:01.947,43901,),0,0,2
2:02.408,44067,(,0,0,0
2:02.447,44081,p,0,0,0
2:02.522,44108,),0,0,0
2:02.544,44116,(,0,0,1
2:02.586,44131,N,0,0,0
2:02.622,44144,),0,0,1
2:02.769,44197,(,0,0,2
2:02.933,44256,t,0,0,0
2:03.044,44296,),0,0,2
2:03.203,44353,(,0,0,1
2:03.250,44370,N,0,0,0
2:03.283,44382,),0,0,1
2:03.447,44441,(,0,0,2
2:03.583,44490,t,0,0,0
2:03.628,44506,),0,0,2
2:03.819,44575,(,0,0,1
2:03.903,44605,N,0,0,0
2:03.978,44632,),0,0,1
2:03.992,44637,t,0,0,2
2:04.111,44680,),0,0,2
2:04.247,44729,(,0,0,1
2:04.292,44745,N,0,0,0
2:04.369,44773,),0,0,1
2:04.411,44788,(,0,0,2
2:04.503,44821,t,0,0,0
2:04.606,44858,),0,0,2
2:04.928,44974,(,0,0,0
2:04.992,44997,p,0,0,0
2:05.031,45011,),0,0,0
2:05.094,45034,(,0,0,1
2:05.139,45050,N,0,0,0
2:05.175,45063,),0,0,1
2:05.264,45095,(,0,0,2
2:05.286,45103,t,0,0,1
2:05.417,45150,),0,0,2
2:05.483,45174,(,0,0,1
2:05.578,45208,N,0,0,0
2:05.622,45224,),0,0,1
2:05.675,45243,(,0,0,2
2:05.767,45276,t,0,0,0
2:05.881,45317,),0,0,2
2:06.378,45496,(,0,0,1
2:06.422,45512,N,0,0,0
2:06.589,45572,),0,0,1
2:06.789,45644,(,0,0,1
2:06.861,45670,N,0,0,0
2:06.961,45706,),0,0,1
2:06.972,45710,(,0,0,2
2:07.078,45748,t,0,0,0
2:07.211,45796,),0,0,2
2:07.547,45917,(,0,0,0
2:07.586,45931,p,0,0,0
2:07.647,45953,),0,0,0
2:07.667,45960,(,0,0,1
2:07.722,45980,N,0,0,0
2:07.761,45994,),0,0,1
2:07.958,46065,(,0,0,2
2:08.044,46096,t,0,0,0
2:08.078,46108,),0,0,2
2:08.192,46149,(,0,0,0
2:08.244,46168,p,0,0,0
2:08.292,46185,),0,0,0
2:08.383,46218,(,0,0,1
2:08.431,46235,N,0,0,0
2:08.467,46248,),0,0,1
2:08.528,46270,(,0,0,2
2:08.572,46286,t,0,0,1
2:08.711,46336,),0,0,2
2:08.744,46348,(,0,0,0
2:08.817,46374,p,0,0,0
2:08.867,46392,),0,0,0
2:08.903,46405,(,0,0,1
2:09.003,46441,N,0,0,0
2:09.053,46459,),0,0,1
2:09.069,46465,(,0,0,2
2:09.206,46514,t,0,0,0
2:09.319,46555,),0,0,2
2:09.439,46598,(,0,0,0
2:09.481,46613,p,0,0,0
2:09.539,46634,),0,0,0
2:09.556,46640,(,0,0,1
2:09.625,46665,N,0,0,0
2:09.664,46679,),0,0,1
2:09.733,46704,(,0,0,2
2:09.781,46721,t,0,0,4
2:09.894,46762,t,0,0,4
2:09.925,46773,),0,0,2
2:09.956,46784,(,0,0,0
2:10.019,46807,p,0,0,0
2:10.064,46823,),0,0,0
2:10.083,46830,(,0,0,1
2:10.167,46860,N,0,0,0
2:10.214,46877,),0,0,1
2:10.267,46896,(,0,0,2
2:10.353,46927,t,0,0,0
2:10.489,46976,),0,0,2
2:10.806,47090,(,0,0,1
2:10.861,47110,N,0,0,0
2:10.897,47123,),0,0,1
2:11.019,47167,(,0,0,2
2:11.181,47225,t,0,0,0
2:11.256,47252,),0,0,2
2:11.319,47275,(,0,0,0
2:11.356,47288,p,0,0,0
2:11.400,47304,),0,0,0
2:11.478,47332,(,0,0,1
2:11.542,47355,N,0,0,0
2:11.578,47368,),0,0,1
2:11.733,47424,(,0,0,2
2:11.803,47449,t,0,0,0
2:11.858,47469,),0,0,2
2:11.889,47480,(,0,0,0
2:11.928,47494,p,0,0,0
2:11.975,47511,),0,0,0
2:12.089,47552,(,0,0,1
2:12.175,47583,N,0,0,0
2:12.208,47595,),0,0,1
2:12.278,47620,(,0,0,2
2:12.364,47651,t,0,0,0
2:12.428,47674,),0,0,2
2:12.642,47751,(,0,0,0
2:12.706,47774,p,0,0,0
2:12.783,47802,),0,0,0
2:12.806,47810,(,0,0,1
2:12.850,47826,N,0,0,0
2:12.886,47839,),0,0,1
2:12.956,47864,(,0,0,2
2:13.019,47887,t,0,0,4
2:13.150,47934,t,0,0,4
2:13.194,47950,),0,0,2
2:13.531,48071,(,0,0,1
2:13.608,48099,N,0,0,0
2:13.647,48113,),0,0,1
2:13.722,48140,(,0,0,2
2:13.758,48153,t,0,0,4
2:13.908,48207,t,0,0,4
2:13.964,48227,),0,0,2
2:13.983,48234,(,0,0,0
2:14.044,48256,p,0,0,0
2:14.072,48266,),0,0,0
2:14.086,48271,(,0,0,1
2:14.167,48300,N,0,0,0
2:14.219,48319,),0,0,1
2:14.281,48341,(,0,0,2
2:14.361,48370,t,0,0,0
2:14.458,48405,),0,0,2
2:14.572,48446,(,0,0,0
2:14.603,48457,p,0,0,0
2:14.697,48491,),0,0,0
2:14.714,48497,(,0,0,1
2:14.772,48518,N,0,0,0
2:14.858,48549,),0,0,1
2:14.875,48555,(,0,0,2
2:14.986,48595,t,0,0,0
2:15.100,48636,),0,0,2
2:15.397,48743,(,0,0,0
2:15.447,48761,p,0,0,0
2:15.519,48787,),0,0,0
2:15.608,48819,(,0,0,1
2:15.653,48835,N,0,0,0
2:15.689,48848,),0,0,1
2:15.742,48867,(,0,0,2
2:15.811,48892,t,0,0,4
2:15.931,48935,t,0,0,4
2:15.969,48949,),0,0,2
2:16.300,49068,(,0,0,1
2:16.353,49087,N,0,0,0
2:16.389,49100,),0,0,1
2:16.464,49127,(,0,0,2
2:16.492,49137,t,0,0,4
2:16.614,49181,t,0,0,4
2:16.650,49194,),0,0,2
2:16.933,49296,(,0,0,1
2:16.983,49314,N,0,0,0
2:17.019,49327,),0,0,1
2:17.103,49357,(,0,0,2
2:17.122,49364,t,0,0,1
2:17.244,49408,),0,0,2
2:17.317,49434,(,0,0,0
2:17.339,49442,p,0,0,0
2:17.361,49450,),0,0,0
2:17.500,49500,(,0,0,1
2:17.544,49516,N,0,0,0
2:17.581,49529,),0,0,1
2:17.656,49556,(,0,0,2
2:17.708,49575,t,0,0,1
2:17.800,49608,),0,0,2
2:17.872,49634,(,0,0,1
2:17.983,49674,N,0,0,0
2:18.036,49693,),0,0,1
2:18.100,49716,(,0,0,2
2:18.122,49724,t,0,0,4
2:18.247,49769,t,0,0,4
2:18.308,49791,),0,0,2
2:18.667,49920,(,0,0,0
2:18.736,49945,p,0,0,0
2:18.808,49971,),0,0,0
2:18.831,49979,(,0,0,1
2:18.875,49995,N,0,0,0
2:18.911,50008,),0,0,1
2:18.964,50027,(,0,0,2
2:19.014,50045,t,0,0,4
2:19.178,50104,t,0,0,4
2:19.200,50112,),0,0,2
2:19.417,50190,(,0,0,0
2:19.486,50215,p,0,0,0
2:19.550,50238,),0,0,0
2:19.639,50270,(,0,0,1
2:19.686,50287,N,0,0,0
2:19.722,50300,),0,0,1
2:19.908,50367,(,0,0,2
2:20.033,50412,t,0,0,0
2:20.089,50432,),0,0,2
2:20.372,50534,(,0,0,1
2:20.439,50558,N,0,0,0
2:20.475,50571,),0,0,1
2:20.672,50642,(,0,0,2
2:20.794,50686,t,0,0,0
2:20.844,50704,),0,0,2
2:20.956,50744,(,0,0,0
2:21.003,50761,p,0,0,0
2:21.069,50785,),0,0,0
2:21.094,50794,(,0,0,1
2:21.139,50810,N,0,0,0
2:21.178,50824,),0,0,1
2:21.253,50851,(,0,0,2
2:21.314,50873,t,0,0,4
2:21.419,50911,t,0,0,4
2:21.475,50931,),0,0,2
2:21.628,50986,(,0,0,0
2:21.689,51008,p,0,0,0
2:21.733,51024,),0,0,0
2:21.778,51040,(,0,0,1
2:21.825,51057,N,0,0,0
2:21.864,51071,),0,0,1
2:22.044,51136,(,0,0,2
2:22.158,51177,t,0,0,0
2:22.203,51193,),0,0,2
2:22.497,51299,(,0,0,1
2:22.561,51322,N,0,0,0
2:22.594,51334,),0,0,1
2:22.728,51382,t,0,0,2
2:22.864,51431,),0,0,2
2:23.069,51505,(,0,0,1
2:23.111,51520,N,0,0,0
2:23.308,51591,),0,0,1
2:23.714,51737,(,0,0,0
2:23.747,51749,p,0,0,0
2:23.789,51764,),0,0,0
2:23.850,51786,(,0,0,1
2:23.922,51812,N,0,0,0
2:23.958,51825,),0,0,1
2:24.117,51882,(,0,0,2
2:24.219,51919,t,0,0,0
2:24.253,51931,),0,0,2
2:24.411,51988,(,0,0,0
2:24.447,52001,p,0,0,0
2:24.481,52013,),0,0,0
2:24.631,52067,(,0,0,1
2:24.678,52084,N,0,0,0
2:24.714,52097,),0,0,1
2:24.789,52124,(,0,0,2
2:24.817,52134,t,0,0,4
2:25.078,52228,t,0,0,4
2:25.117,52242,),0,0,2
2:25.236,52285,(,0,0,0
2:25.283,52302,p,0,0,0
2:25.344,52324,),0,0,0
2:25.419,52351,(,0,0,1
2:25.464,52367,N,0,0,0
2:25.503,52381,),0,0,1
2:25.556,52400,(,0,0,2
2:25.625,52425,t,0,0,4
2:25.872,52514,t,0,0,4
2:25.917,52530,),0,0,2
2:26.067,52584,(,0,0,1
2:26.142,52611,N,0,0,0
2:26.181,52625,),0,0,1
2:26.369,52693,(,0,0,2
2:26.481,52733,t,0,0,0
2:26.525,52749,),0,0,2
2:26.783,52842,(,0,0,0
2:26.842,52863,p,0,0,0
2:26.919,52891,),0,0,0
2:26.953,52903,(,0,0,1
2:26.994,52918,N,0,0,0
2:27.033,52932,),0,0,1
2:27.094,52954,(,0,0,2
2:27.150,52974,t,0,0,4
2:27.383,53058,t,0,0,4
2:27.431,53075,),0,0,2
2:27.533,53112,(,0,0,0
2:27.575,53127,p,0,0,0
2:27.622,53144,),0,0,0
2:27.642,53151,(,0,0,1
2:27.686,53167,N,0,0,0
2:27.722,53180,),0,0,1
2:27.906,53246,(,0,0,2
2:27.978,53272,t,0,0,0
2:28.039,53294,),0,0,2
2:28.342,53403,(,0,0,1
2:28.386,53419,N,0,0,0
2:28.425,53433,),0,0,1
2:28.594,53494,(,0,0,2
2:28.714,53537,t,0,0,0
2:28.747,53549,),0,0,2
2:28.869,53593,(,0,0,0
2:28.933,53616,p,0,0,0
2:28.989,53636,),0,0,0
2:29.028,53650,(,0,0,1
2:29.067,53664,N,0,0,0
2:29.103,53677,),0,0,1
2:29.192,53709,(,0,0,2
2:29.217,53718,t,0,0,4
2:29.425,53793,t,0,0,4
2:29.469,53809,),0,0,2
2:29.836,53941,(,0,0,1
2:29.897,53963,N,0,0,0
2:29.933,53976,),0,0,1
2:30.003,54001,(,0,0,2
2:30.044,54016,t,0,0,4
2:30.269,54097,t,0,0,4
2:30.328,54118,),0,0,2
2:30.628,54226,(,0,0,1
2:30.678,54244,N,0,0,0
2:30.714,54257,),0,0,1
2:30.922,54332,(,0,0,2
2:31.014,54365,t,0,0,0
2:31.047,54377,),0,0,2
2:31.172,54422,(,0,0,0
2:31.261,54454,p,0,0,0
2:31.325,54477,),0,0,0
2:31.450,54522,(,0,0,1
2:31.531,54551,N,0,0,0
2:31.569,54565,),0,0,1
2:31.758,54633,(,0,0,2
2:31.825,54657,t,0,0,0
2:31.889,54680,),0,0,2
2:31.908,54687,(,0,0,0
2:31.967,54708,p,0,0,0
2:32.022,54728,),0,0,0
2:32.122,54764,(,0,0,1
2:32.169,54781,N,0,0,0
2:32.206,54794,),0,0,1
2:32.378,54856,(,0,0,2
2:32.472,54890,t,0,0,0
2:32.517,54906,),0,0,2
2:32.533,54912,(,0,0,0
2:32.589,54932,p,0,0,0
2:32.658,54957,),0,0,0
2:32.697,54971,(,0,0,1
2:32.769,54997,N,0,0,0
2:32.806,55010,),0,0,1
2:32.869,55033,(,0,0,2
2:32.917,55050,t,0,0,1
2:33.036,55093,),0,0,2
2:33.264,55175,(,0,0,0
2:33.322,55196,p,0,0,0
2:33.358,55209,),0,0,0
2:33.381,55217,(,0,0,1
2:33.422,55232,N,0,0,0
2:33.456,55244,),0,0,1
2:33.633,55308,(,0,0,2
2:33.756,55352,t,0,0,0
2:33.794,55366,),0,0,2
2:34.078,55468,(,0,0,0
2:34.114,55481,p,0,0,0
2:34.167,55500,),0,0,0
2:34.239,55526,(,0,0,1
2:34.283,55542,N,0,0,0
2:34.319,55555,),0,0,1
2:34.422,55592,(,0,0,2
2:34.644,55672,t,0,0,0
2:34.686,55687,),0,0,2
2:34.803,55729,(,0,0,0
2:34.853,55747,p,0,0,0
2:34.889,55760,),0,0,0
2:34.942,55779,(,0,0,1
2:34.983,55794,N,0,0,0
2:35.019,55807,),0,0,1
2:35.086,55831,(,0,0,2
2:35.133,55848,t,0,0,4
2:35.383,55938,t,0,0,4
2:35.444,55960,),0,0,2
2:35.486,55975,(,0,0,0
2:35.544,55996,p,0,0,0
2:35.614,56021,),0,0,0
2:35.650,56034,(,0,0,1
2:35.717,56058,N,0,0,0
2:35.753,56071,),0,0,1
2:35.908,56127,(,0,0,2
2:36.033,56172,t,0,0,0
2:36.139,56210,),0,0,2
2:36.347,56285,(,0,0,1
2:36.414,56309,N,0,0,0
2:36.447,56321,),0,0,1
2:36.517,56346,(,0,0,2
2:36.556,56360,t,0,0,4
2:36.794,56446,t,0,0,4
2:36.842,56463,),0,0,2
2:36.953,56503,(,0,0,0
2:37.011,56524,p,0,0,0
2:37.083,56550,),0,0,0
2:37.169,56581,(,0,0,1
2:37.214,56597,N,0,0,0
2:37.250,56610,),0,0,1
2:37.450,56682,(,0,0,2
2:37.567,56724,t,0,0,0
2:37.642,56751,),0,0,2
2:37.783,56802,(,0,0,0
2:37.819,56815,p,0,0,0
2:37.886,56839,),0,0,0
2:37.894,56842,(,0,0,1
2:37.972,56870,N,0,0,0
2:38.011,56884,),0,0,1
2:38.072,56906,(,0,0,2
2:38.142,56931,t,0,0,4
2:38.392,57021,t,0,0,4
2:38.475,57051,),0,0,2
2:38.514,57065,(,0,0,0
2:38.553,57079,p,0,0,0
2:38.617,57102,),0,0,0
2:38.633,57108,(,0,0,1
2:38.686,57127,N,0,0,0
2:38.722,57140,),0,0,1
2:38.828,57178,(,0,0,2
2:39.056,57260,t,0,0,0
2:39.103,57277,),0,0,2
2:39.289,57344,(,0,0,1
2:39.361,57370,N,0,0,0
2:39.394,57382,),0,0,1
2:39.536,57433,(,0,0,2
2:39.667,57480,t,0,0,0
2:39.786,57523,),0,0,2
2:39.947,57581,(,0,0,1
2:39.994,57598,N,0,0,0
2:40.136,57649,),0,0,1
2:40.200,57672,(,0,0,2
2:40.319,57715,t,0,0,0
2:40.364,57731,),0,0,2
2:40.478,57772,(,0,0,0
2:40.533,57792,p,0,0,0
2:40.606,57818,),0,0,0
2:40.650,57834,(,0,0,1
2:40.697,57851,N,0,0,0
2:40.731,57863,),0,0,1
2:40.842,57903,(,0,0,2
2:41.036,57973,t,0,0,0
2:41.114,58001,),0,0,2
2:41.308,58071,(,0,0,1
2:41.367,58092,N,0,0,0
2:41.475,58131,),0,0,1
2:41.567,58164,(,0,0,2
2:41.639,58190,t,0,0,0
2:41.692,58209,),0,0,2
2:41.864,58271,(,0,0,0
2:41.914,58289,p,0,0,0
2:41.989,58316,),0,0,0
2:42.033,58332,(,0,0,1
2:42.114,58361,N,0,0,0
2:42.147,58373,),0,0,1
2:42.211,58396,(,0,0,2
2:42.272,58418,t,0,0,4
2:42.375,58455,t,0,0,4
2:42.403,58465,),0,0,2
2:42.503,58501,(,0,0,0
2:42.547,58517,p,0,0,0
2:42.606,58538,),0,0,0
2:42.656,58556,(,0,0,1
2:42.697,58571,N,0,0,0
2:42.736,58585,),0,0,1
2:42.817,58614,(,0,0,2
2:42.853,58627,t,0,0,4
2:42.986,58675,t,0,0,4
2:43.011,58684,),0,0,2
2:43.247,58769,(,0,0,0
2:43.314,58793,p,0,0,0
2:43.369,58813,),0,0,0
2:43.394,58822,(,0,0,1
2:43.436,58837,N,0,0,0
2:43.475,58851,),0,0,1
2:43.533,58872,(,0,0,2
2:43.594,58894,t,0,0,4
2:43.719,58939,t,0,0,4
2:43.750,58950,),0,0,2
2:43.844,58984,(,0,0,0
2:43.911,59008,p,0,0,0
2:43.994,59038,),0,0,0
2:44.025,59049,(,0,0,1
2:44.069,59065,N,0,0,0
2:44.106,59078,),0,0,1
2:44.178,59104,(,0,0,2
2:44.231,59123,t,0,0,4
2:44.367,59172,t,0,0,4
2:44.386,59179,),0,0,2
2:44.925,59373,(,0,0,1
2:45.000,59400,N,0,0,0
2:45.036,59413,),0,0,1
2:45.089,59432,(,0,0,2
2:45.144,59452,t,0,0,4
2:45.269,59497,t,0,0,4
2:45.303,59509,),0,0,2
2:45.339,59522,(,0,0,0
2:45.400,59544,p,0,0,0
2:45.431,59555,),0,0,0
2:45.519,59587,(,0,0,1
2:45.581,59609,N,0,0,0
2:45.617,59622,),0,0,1
2:45.789,59684,(,0,0,2
2:45.858,59709,t,0,0,0
2:45.919,59731,),0,0,2
2:46.097,59795,(,0,0,0
2:46.131,59807,p,0,0,0
2:46.164,59819,),0,0,0
2:46.281,59861,(,0,0,1
2:46.328,59878,N,0,0,0
2:46.364,59891,),0,0,1
2:46.425,59913,(,0,0,2
2:46.469,59929,t,0,0,4
2:46.708,60015,t,0,0,4
2:46.750,60030,),0,0,2
2:46.925,60093,(,0,0,1
2:46.992,60117,N,0,0,0
2:47.031,60131,),0,0,1
2:47.172,60182,(,0,0,2
2:47.194,60190,t,0,0,4
2:47.292,60225,t,0,0,4
2:47.342,60243,),0,0,2
2:47.453,60283,(,0,0,0
2:47.489,60296,p,0,0,0
2:47.572,60326,),0,0,0
2:47.614,60341,(,0,0,1
2:47.664,60359,N,0,0,0
2:47.792,60405,),0,0,1
2:47.794,60406,t,0,0,2
2:48.003,60481,),0,0,2
2:48.192,60549,(,0,0,1
2:48.233,60564,N,0,0,0
2:48.400,60624,),0,0,1
2:48.711,60736,(,0,0,1
2:48.783,60762,N,0,0,0
2:48.822,60776,),0,0,1
2:48.886,60799,(,0,0,2
2:48.925,60813,t,0,0,4
2:49.097,60875,t,0,0,4
2:49.128,60886,),0,0,2
2:49.325,60957,(,0,0,0
2:49.358,60969,p,0,0,0
2:49.389,60980,),0,0,0
2:49.436,60997,(,0,0,1
2:49.489,61016,N,0,0,0
2:49.528,61030,),0,0,1
2:49.708,61095,(,0,0,2
2:49.819,61135,t,0,0,0
2:49.864,61151,),0,0,2
2:50.017,61206,(,0,0,0
2:50.072,61226,p,0,0,0
2:50.125,61245,),0,0,0
2:50.158,61257,(,0,0,1
2:50.197,61271,N,0,0,0
2:50.350,61326,),0,0,1
2:50.403,61345,(,0,0,2
2:50.542,61395,t,0,0,0
2:50.647,61433,),0,0,2
2:50.733,61464,(,0,0,0
2:50.769,61477,p,0,0,0
2:50.806,61490,),0,0,0
2:50.847,61505,(,0,0,1
2:50.903,61525,N,0,0,0
2:50.944,61540,),0,0,1
2:51.044,61576,(,0,0,2
2:51.081,61589,t,0,0,4
2:51.222,61640,t,0,0,4
2:51.247,61649,),0,0,2
2:51.325,61677,(,0,0,0
2:51.378,61696,p,0,0,0
2:51.406,61706,),0,0,0
2:51.567,61764,(,0,0,1
2:51.639,61790,N,0,0,0
2:51.772,61838,),0,0,1
2:51.850,61866,(,0,0,2
2:51.944,61900,t,0,0,0
2:52.053,61939,),0,0,2
2:52.067,61944,(,0,0,0
2:52.122,61964,p,0,0,0
2:52.156,61976,),0,0,0
2:52.208,61995,(,0,0,1
2:52.272,62018,N,0,0,0
2:52.308,62031,),0,0,1
2:52.497,62099,(,0,0,2
2:52.583,62130,t,0,0,0
2:52.633,62148,),0,0,2
2:52.656,62156,(,0,0,0
2:52.714,62177,p,0,0,0
2:52.772,62198,),0,0,0
2:52.875,62235,(,0,0,1
2:52.917,62250,N,0,0,0
2:52.950,62262,),0,0,1
2:53.044,62296,(,0,0,2
2:53.072,62306,t,0,0,4
2:53.194,62350,t,0,0,4
2:53.225,62361,),0,0,2
2:53.494,62458,(,0,0,1
2:53.536,62473,N,0,0,0
2:53.572,62486,),0,0,1
2:53.739,62546,(,0,0,2
2:53.864,62591,t,0,0,0
2:53.931,62615,),0,0,2
2:53.961,62626,(,0,0,0
2:54.014,62645,p,0,0,0
2:54.069,62665,),0,0,0
2:54.153,62695,(,0,0,1
2:54.192,62709,N,0,0,0
2:54.225,62721,),0,0,1
2:54.353,62767,(,0,0,2
2:54.500,62820,t,0,0,0
2:54.611,62860,),0,0,2
2:54.722,62900,(,0,0,0
2:54.764,62915,p,0,0,0
2:54.869,62953,),0,0,0
2:54.892,62961,(,0,0,1
2:54.936,62977,N,0,0,0
2:54.972,62990,),0,0,1
2:55.019,63007,(,0,0,2
2:55.097,63035,t,0,0,4
2:55.239,63086,t,0,0,4
2:55.264,63095,),0,0,2
2:55.322,63116,(,0,0,0
2:55.350,63126,p,0,0,0
2:55.419,63151,),0,0,0
2:55.533,63192,(,0,0,1
2:55.578,63208,N,0,0,0
2:55.617,63222,),0,0,1
2:55.797,63287,(,0,0,2
2:55.889,63320,t,0,0,0
2:55.922,63332,),0,0,2
2:56.000,63360,(,0,0,0
2:56.069,63385,p,0,0,0
2:56.131,63407,),0,0,0
2:56.264,63455,(,0,0,1
2:56.322,63476,N,0,0,0
2:56.358,63489,),0,0,1
2:56.444,63520,(,0,0,2
2:56.486,63535,t,0,0,4
2:56.611,63580,t,0,0,4
2:56.717,63618,),0,0,2
2:56.797,63647,(,0,0,0
2:56.825,63657,p,0,0,0
2:56.881,63677,),0,0,0
2:56.942,63699,(,0,0,1
2:56.986,63715,N,0,0,0
2:57.167,63780,),0,0,1
2:57.192,63789,(,0,0,2
2:57.286,63823,t,0,0,0
2:57.353,63847,),0,0,2
2:57.489,63896,(,0,0,0
2:57.528,63910,p,0,0,0
2:57.542,63915,),0,0,0
2:57.575,63927,(,0,0,1
2:57.625,63945,N,0,0,0
2:57.739,63986,),0,0,1
2:57.878,64036,(,0,0,2
2:57.950,64062,t,0,0,0
2:58.000,64080,),0,0,2
2:58.217,64158,(,0,0,0
2:58.247,64169,p,0,0,0
2:58.322,64196,),0,0,0
2:58.347,64205,(,0,0,1
2:58.381,64217,N,0,0,0
2:58.444,64240,),0,0,1
2:58.597,64295,(,0,0,2
2:58.703,64333,t,0,0,0
2:58.761,64354,),0,0,2
2:58.808,64371,(,0,0,0
2:58.867,64392,p,0,0,0
2:58.925,64413,),0,0,0
2:59.028,64450,(,0,0,1
2:59.075,64467,N,0,0,0
2:59.142,64491,),0,0,1
2:59.228,64522,(,0,0,2
2:59.394,64582,t,0,0,0
2:59.453,64603,),0,0,2
2:59.719,64699,(,0,0,0
2:59.778,64720,p,0,0,0
2:59.836,64741,),0,0,0
2:59.856,64748,(,0,0,1
2:59.911,64768,N,0,0,0
2:59.944,64780,),0,0,1
3:00.003,64801,(,0,0,2
3:00.044,64816,t,0,0,4
3:00.278,64900,t,0,0,4
3:00.308,64911,),0,0,2
3:00.422,64952,(,0,0,0
3:00.444,64960,p,0,0,0
3:00.467,64968,),0,0,0
3:00.486,64975,(,0,0,1
3:00.528,64990,N,0,0,0
3:00.597,65015,),0,0,1
3:00.742,65067,(,0,0,2
3:00.853,65107,t,0,0,0
3:00.889,65120,),0,0,2
3:00.992,65157,(,0,0,0
3:01.064,65183,p,0,0,0
3:01.131,65207,),0,0,0
3:01.169,65221,(,0,0,1
3:01.214,65237,N,0,0,0
3:01.286,65263,),0,0,1
3:01.406,65306,(,0,0,2
3:01.522,65348,t,0,0,0
3:01.553,65359,),0,0,2
3:01.783,65442,(,0,0,0
3:01.839,65462,p,0,0,0
3:01.892,65481,),0,0,0
3:01.958,65505,(,0,0,1
3:01.997,65519,N,0,0,0
3:02.094,65554,),0,0,1
3:02.167,65580,(,0,0,2
3:02.189,65588,t,0,0,4
3:02.303,65629,t,0,0,4
3:02.361,65650,),0,0,2
3:02.558,65721,(,0,0,0
3:02.597,65735,p,0,0,0
3:02.625,65745,),0,0,0
3:02.725,65781,(,0,0,1
3:02.797,65807,N,0,0,0
3:02.867,65832,),0,0,1
3:02.869,65833,(,0,0,2
3:02.950,65862,t,0,0,4
3:03.186,65947,t,0,0,4
3:03.236,65965,),0,0,2
3:03.397,66023,(,0,0,1
3:03.439,66038,N,0,0,0
3:03.511,66064,),0,0,1
3:03.625,66105,(,0,0,2
3:03.733,66144,t,0,0,0
3:03.783,66162,),0,0,2
3:03.944,66220,(,0,0,0
3:03.989,66236,p,0,0,0
3:04.042,66255,),0,0,0
3:04.131,66287,(,0,0,1
3:04.172,66302,N,0,0,0
3:04.228,66322,),0,0,1
3:04.839,66542,(,0,0,0
3:04.900,66564,p,0,0,0
3:04.939,66578,),0,0,0
3:04.978,66592,(,0,0,1
3:05.064,66623,N,0,0,0
3:05.136,66649,),0,0,1
3:05.272,66698,(,0,0,2
3:05.344,66724,t,0,0,0
3:05.364,66731,),0,0,2
3:05.417,66750,(,0,0,0
3:05.442,66759,p,0,0,0
3:05.472,66770,),0,0,0
3:05.550,66798,(,0,0,1
3:05.617,66822,N,0,0,0
3:05.650,66834,),0,0,1
3:06.211,67036,(,0,0,0
3:06.236,67045,p,0,0,0
3:06.261,67054,),0,0,0
3:06.297,67067,(,0,0,1
3:06.328,67078,N,0,0,0
3:06.358,67089,),0,0,1
3:06.461,67126,(,0,0,2
3:06.483,67134,t,0,0,4
3:06.725,67221,t,0,0,4
3:06.756,67232,),0,0,2
3:06.886,67279,(,0,0,0
3:06.914,67289,p,0,0,0
3:06.947,67301,),0,0,0
3:06.983,67314,(,0,0,1
3:07.028,67330,N,0,0,0
3:07.161,67378,),0,0,1
3:07.314,67433,(,0,0,2
3:07.342,67443,t,0,0,1
3:07.383,67458,),0,0,2
3:07.511,67504,(,0,0,0
3:07.547,67517,p,0,0,0
3:07.572,67526,),0,0,0
3:07.614,67541,(,0,0,1
3:07.700,67572,N,0,0,0
3:07.731,67583,),0,0,1
3:07.808,67611,(,0,0,2
3:07.836,67621,t,0,0,4
3:08.006,67682,t,0,0,4
3:08.058,67701,),0,0,2
3:08.214,67757,(,0,0,0
3:08.256,67772,p,0,0,0
3:08.281,67781,),0,0,0
3:08.353,67807,(,0,0,1
3:08.433,67836,N,0,0,0
3:08.492,67857,),0,0,1
3:08.947,68021,(,0,0,0
3:09.003,68041,p,0,0,0
3:09.097,68075,),0,0,0
3:09.125,68085,(,0,0,1
3:09.214,68117,N,0,0,0
3:09.361,68170,),0,0,1
3:09.639,68270,(,0,0,0
3:09.681,68285,p,0,0,0
3:09.717,68298,),0,0,0
3:09.817,68334,(,0,0,1
3:09.889,68360,N,0,0,0
3:10.022,68408,),0,0,1
3:10.075,68427,(,0,0,2
3:10.169,68461,t,0,0,0
3:10.200,68472,),0,0,2
3:10.275,68499,(,0,0,0
3:10.322,68516,p,0,0,0
3:10.344,68524,),0,0,0
3:10.414,68549,(,0,0,1
3:10.456,68564,N,0,0,0
3:10.492,68577,),0,0,1
3:10.614,68621,(,0,0,2
3:10.636,68629,t,0,0,4
3:10.731,68663,t,0,0,4
3:10.758,68673,),0,0,2
3:10.906,68726,(,0,0,0
3:10.933,68736,p,0,0,0
3:10.967,68748,),0,0,0
3:11.114,68801,(,0,0,1
3:11.167,68820,N,0,0,0
3:11.300,68868,),0,0,1
3:11.375,68895,(,0,0,2
3:11.481,68933,t,0,0,0
3:11.544,68956,),0,0,2
3:11.636,68989,(,0,0,0
3:11.683,69006,p,0,0,0
3:11.736,69025,),0,0,0
3:11.836,69061,(,0,0,1
3:11.883,69078,N,0,0,0
3:12.031,69131,),0,0,1
3:12.067,69144,(,0,0,2
3:12.097,69155,t,0,0,5
3:12.200,69192,t,0,0,5
3:12.231,69203,),0,0,2
3:12.342,69243,(,0,0,0
3:12.364,69251,p,0,0,0
3:12.397,69263,),0,0,0
3:12.464,69287,(,0,0,1
3:12.506,69302,N,0,0,0
3:12.583,69330,),0,0,1
3:12.681,69365,t,0,0,2
3:12.739,69386,),0,0,2
3:12.856,69428,(,0,0,0
3:12.903,69445,p,0,0,0
3:12.925,69453,),0,0,0
3:13.053,69499,(,0,0,1
3:13.122,69524,N,0,0,0
3:13.189,69548,),0,0,1
3:13.383,69618,(,0,0,2
3:13.447,69641,t,0,0,1
3:13.467,69648,),0,0,2
3:13.581,69689,(,0,0,0
3:13.603,69697,p,0,0,0
3:13.631,69707,),0,0,0
3:13.661,69718,(,0,0,1
3:13.747,69749,N,0,0,0
3:13.783,69762,),0,0,1
3:13.969,69829,(,0,0,2
3:14.128,69886,t,0,0,0
3:14.153,69895,),0,0,2
3:14.300,69948,(,0,0,0
3:14.361,69970,p,0,0,0
3:14.389,69980,),0,0,0
3:14.447,70001,(,0,0,1
3:14.486,70015,N,0,0,0
3:14.542,70035,),0,0,1
3:14.661,70078,(,0,0,2
3:14.814,70133,t,0,0,0
3:14.897,70163,),0,0,2
3:14.967,70188,(,0,0,0
3:15.011,70204,p,0,0,0
3:15.036,70213,),0,0,0
3:15.208,70275,(,0,0,1
3:15.247,70289,N,0,0,0
3:15.381,70337,),0,0,1
3:15.717,70458,(,0,0,0
3:15.742,70467,p,0,0,0
3:15.769,70477,),0,0,0
3:15.833,70500,(,0,0,1
3:15.928,70534,N,0,0,0
3:16.019,70567,),0,0,1
3:16.061,70582,(,0,0,2
3:16.092,70593,t,0,0,4
3:16.206,70634,t,0,0,4
3:16.247,70649,),0,0,2
3:16.458,70725,(,0,0,0
3:16.500,70740,p,0,0,0
3:16.539,70754,),0,0,0
3:16.578,70768,(,0,0,1
3:16.642,70791,N,0,0,0
3:16.681,70805,),0,0,1
3:16.797,70847,(,0,0,2
3:16.817,70854,t,0,0,4
3:16.922,70892,t,0,0,4
3:16.956,70904,),0,0,2
3:17.086,70951,(,0,0,0
3:17.125,70965,p,0,0,0
3:17.203,70993,),0,0,0
3:17.250,71010,(,0,0,1
3:17.292,71025,N,0,0,0
3:17.325,71037,),0,0,1
3:17.369,71053,(,0,0,2
3:17.425,71073,t,0,0,4
3:17.650,71154,t,0,0,4
3:17.714,71177,),0,0,2
3:17.750,71190,(,0,0,0
3:17.783,71202,p,0,0,0
3:17.839,71222,),0,0,0
3:17.958,71265,(,0,0,1
3:18.003,71281,N,0,0,0
3:18.039,71294,),0,0,1
3:18.106,71318,(,0,0,2
3:18.153,71335,t,0,0,4
3:18.281,71381,t,0,0,4
3:18.300,71388,),0,0,2
3:18.478,71452,(,0,0,0
3:18.511,71464,p,0,0,0
3:18.556,71480,),0,0,0
3:18.583,71490,(,0,0,1
3:18.628,71506,N,0,0,0
3:18.661,71518,),0,0,1
3:18.750,71550,(,0,0,2
3:18.972,71630,t,0,0,0
3:18.997,71639,),0,0,2
3:19.192,71709,(,0,0,1
3:19.242,71727,N,0,0,0
3:19.278,71740,),0,0,1
3:19.347,71765,(,0,0,2
3:19.372,71774,t,0,0,1
3:19.575,71847,),0,0,2
3:19.772,71918,(,0,0,1
3:19.817,71934,N,0,0,0
3:19.853,71947,),0,0,1
3:20.111,72040,(,0,0,1
3:20.175,72063,N,0,0,0
3:20.250,72090,),0,0,1
3:20.289,72104,(,0,0,2
3:20.375,72135,t,0,0,0
3:20.481,72173,),0,0,2
3:20.558,72201,(,0,0,1
3:20.647,72233,N,0,0,0
3:20.675,72243,),0,0,1
3:20.750,72270,(,0,0,2
3:20.828,72298,t,0,0,0
3:20.922,72332,),0,0,2
3:21.519,72547,(,0,0,1
3:21.572,72566,N,0,0,0
3:21.608,72579,),0,0,1
3:21.806,72650,(,0,0,2
3:21.881,72677,t,0,0,0
3:21.950,72702,),0,0,2
3:21.975,72711,(,0,0,0
3:22.011,72724,p,0,0,0
3:22.069,72745,),0,0,0
3:22.153,72775,(,0,0,1
3:22.197,72791,N,0,0,0
3:22.233,72804,),0,0,1
3:22.414,72869,(,0,0,2
3:22.478,72892,t,0,0,0
3:22.519,72907,),0,0,2
3:22.622,72944,(,0,0,0
3:22.697,72971,p,0,0,0
3:22.756,72992,),0,0,0
3:22.778,73000,(,0,0,1
3:22.819,73015,N,0,0,0
3:22.856,73028,),0,0,1
3:22.994,73078,(,0,0,2
3:23.092,73113,t,0,0,0
3:23.111,73120,),0,0,2
3:23.128,73126,(,0,0,0
3:23.192,73149,p,0,0,0
3:23.253,73171,),0,0,0
3:23.356,73208,(,0,0,1
3:23.397,73223,N,0,0,0
3:23.433,73236,),0,0,1
3:23.483,73254,(,0,0,2
3:23.544,73276,t,0,0,1
3:23.650,73314,),0,0,2
3:23.700,73332,(,0,0,0
3:23.758,73353,p,0,0,0
3:23.800,73368,),0,0,0
3:24.011,73444,(,0,0,1
3:24.061,73462,N,0,0,0
3:24.097,73475,),0,0,1
3:24.258,73533,(,0,0,2
3:24.325,73557,t,0,0,0
3:24.350,73566,),0,0,2
3:24.692,73689,(,0,0,1
3:24.753,73711,N,0,0,0
3:24.792,73725,),0,0,1
3:25.006,73802,(,0,0,2
3:25.097,73835,t,0,0,0
3:25.161,73858,),0,0,2
3:25.211,73876,(,0,0,0
3:25.244,73888,p,0,0,0
3:25.286,73903,),0,0,0
3:25.478,73972,(,0,0,1
3:25.533,73992,N,0,0,0
3:25.572,74006,),0,0,1
3:25.714,74057,(,0,0,2
3:25.742,74067,t,0,0,1
3:25.861,74110,),0,0,2
3:26.203,74233,(,0,0,1
3:26.247,74249,N,0,0,0
3:26.283,74262,),0,0,1
3:26.356,74288,(,0,0,2
3:26.394,74302,t,0,0,4
3:26.528,74350,t,0,0,4
3:26.564,74363,),0,0,2
3:26.808,74451,(,0,0,1
3:26.856,74468,N,0,0,0
3:26.892,74481,),0,0,1
3:27.153,74575,(,0,0,2
3:27.194,74590,t,0,0,1
3:27.383,74658,),0,0,2
3:27.806,74810,(,0,0,1
3:27.856,74828,N,0,0,0
3:27.892,74841,),0,0,1
3:28.031,74891,t,0,0,2
3:28.125,74925,),0,0,2
3:28.453,75043,(,0,0,1
3:28.525,75069,N,0,0,0
3:28.564,75083,),0,0,1
3:28.733,75144,(,0,0,2
3:28.842,75183,t,0,0,0
3:28.878,75196,),0,0,2
3:29.025,75249,(,0,0,1
3:29.094,75274,N,0,0,0
3:29.133,75288,),0,0,1
3:29.208,75315,(,0,0,2
3:29.231,75323,t,0,0,1
3:29.417,75390,),0,0,2
3:29.600,75456,(,0,0,1
3:29.658,75477,N,0,0,0
3:29.858,75549,),0,0,1
3:29.861,75550,t,0,0,2
3:29.983,75594,),0,0,2
3:29.986,75595,(,0,0,0
3:30.000,75600,p,0,0,0
3:30.031,75611,),0,0,0
3:30.103,75637,(,0,0,1
3:30.164,75659,N,0,0,0
3:30.286,75703,),0,0,1
3:30.314,75713,(,0,0,2
3:30.358,75729,t,0,0,0
3:30.433,75756,),0,0,2
3:30.917,75930,(,0,0,1
3:30.983,75954,N,0,0,0
3:31.019,75967,),0,0,1
3:31.231,76043,(,0,0,2
3:31.314,76073,t,0,0,0
3:31.386,76099,),0,0,2
3:31.428,76114,(,0,0,0
3:31.469,76129,p,0,0,0
3:31.544,76156,),0,0,0
3:31.681,76205,(,0,0,1
3:31.728,76222,N,0,0,0
3:31.767,76236,),0,0,1
3:31.825,76257,(,0,0,2
3:31.867,76272,t,0,0,1
3:32.019,76327,),0,0,2
3:32.119,76363,(,0,0,0
3:32.194,76390,p,0,0,0
3:32.256,76412,),0,0,0
3:32.308,76431,(,0,0,1
3:32.353,76447,N,0,0,0
3:32.389,76460,),0,0,1
3:32.475,76491,(,0,0,2
3:32.506,76502,t,0,0,4
3:32.736,76585,t,0,0,4
3:32.786,76603,),0,0,2
3:32.811,76612,(,0,0,0
3:32.875,76635,p,0,0,0
3:32.919,76651,),0,0,0
3:32.953,76663,(,0,0,1
3:33.014,76685,N,0,0,0
3:33.050,76698,),0,0,1
3:33.225,76761,(,0,0,2
3:33.322,76796,t,0,0,0
3:33.375,76815,),0,0,2
3:33.539,76874,(,0,0,1
3:33.603,76897,N,0,0,0
3:33.639,76910,),0,0,1
3:33.808,76971,(,0,0,2
3:33.900,77004,t,0,0,0
3:33.953,77023,),0,0,2
3:34.261,77134,(,0,0,1
3:34.306,77150,N,0,0,0
3:34.342,77163,),0,0,1
3:34.464,77207,t,0,0,2
3:34.594,77254,),0,0,2
3:34.642,77271,(,0,0,0
3:34.706,77294,p,0,0,0
3:34.767,77316,),0,0,0
3:34.814,77333,(,0,0,1
3:34.856,77348,N,0,0,0
3:34.889,77360,),0,0,1
3:34.947,77381,(,0,0,2
3:35.011,77404,t,0,0,4
3:35.133,77448,t,0,0,4
3:35.158,77457,),0,0,2
3:35.331,77519,(,0,0,1
3:35.386,77539,N,0,0,0
3:35.419,77551,),0,0,1
3:35.586,77611,(,0,0,2
3:35.669,77641,t,0,0,0
3:35.736,77665,),0,0,2
3:35.897,77723,(,0,0,0
3:35.950,77742,p,0,0,0
3:36.008,77763,),0,0,0
3:36.039,77774,(,0,0,1
3:36.100,77796,N,0,0,0
3:36.133,77808,),0,0,1
3:36.303,77869,(,0,0,2
3:36.369,77893,t,0,0,0
3:36.419,77911,),0,0,2
3:36.719,78019,(,0,0,1
3:36.761,78034,N,0,0,0
3:36.797,78047,),0,0,1
3:36.867,78072,(,0,0,2
3:36.894,78082,t,0,0,4
3:37.100,78156,t,0,0,4
3:37.169,78181,),0,0,2
3:37.375,78255,(,0,0,1
3:37.433,78276,N,0,0,0
3:37.469,78289,),0,0,1
3:37.542,78315,(,0,0,2
3:37.575,78327,t,0,0,4
3:37.728,78382,t,0,0,4
3:37.781,78401,),0,0,2
3:37.872,78434,(,0,0,0
3:37.936,78457,p,0,0,0
3:38.006,78482,),0,0,0
3:38.064,78503,(,0,0,1
3:38.111,78520,N,0,0,0
3:38.147,78533,),0,0,1
3:38.225,78561,(,0,0,2
3:38.261,78574,t,0,0,1
3:38.406,78626,),0,0,2
3:38.747,78749,(,0,0,1
3:38.792,78765,N,0,0,0
3:38.828,78778,),0,0,1
3:38.942,78819,(,0,0,2
3:39.125,78885,t,0,0,0
3:39.197,78911,),0,0,2
3:39.356,78968,(,0,0,1
3:39.408,78987,N,0,0,0
3:39.575,79047,),0,0,1
3:39.578,79048,t,0,0,2
3:39.719,79099,),0,0,2
3:39.858,79149,(,0,0,1
3:39.903,79165,N,0,0,0
3:39.936,79177,),0,0,1
3:40.011,79204,(,0,0,2
3:40.075,79227,t,0,0,4
3:40.169,79261,t,0,0,4
3:40.217,79278,),0,0,2
3:40.706,79454,(,0,0,1
3:40.764,79475,N,0,0,0
3:40.800,79488,),0,0,1
3:40.900,79524,(,0,0,2
3:40.947,79541,t,0,0,4
3:41.050,79578,t,0,0,4
3:41.103,79597,),0,0,2
3:41.181,79625,(,0,0,0
3:41.247,79649,p,0,0,0
3:41.297,79667,),0,0,0
3:41.392,79701,(,0,0,1
3:41.436,79717,N,0,0,0
3:41.469,79729,),0,0,1
3:41.664,79799,(,0,0,2
3:41.753,79831,t,0,0,0
3:41.814,79853,),0,0,2
3:41.903,79885,(,0,0,0
3:41.953,79903,p,0,0,0
3:42.039,79934,),0,0,0
3:42.061,79942,(,0,0,1
3:42.103,79957,N,0,0,0
3:42.136,79969,),0,0,1
3:42.222,80000,(,0,0,2
3:42.256,80012,t,0,0,4
3:42.472,80090,t,0,0,4
3:42.550,80118,),0,0,2
3:42.572,80126,(,0,0,0
3:42.628,80146,p,0,0,0
3:42.694,80170,),0,0,0
3:42.739,80186,(,0,0,1
3:42.808,80211,N,0,0,0
3:42.844,80224,),0,0,1
3:42.925,80253,(,0,0,2
3:42.972,80270,t,0,0,4
3:43.083,80310,t,0,0,4
3:43.136,80329,),0,0,2
3:43.456,80444,(,0,0,1
3:43.500,80460,N,0,0,0
3:43.536,80473,),0,0,1
3:43.772,80558,(,0,0,1
3:43.850,80586,N,0,0,0
3:43.911,80608,),0,0,1
3:43.942,80619,(,0,0,2
3:44.053,80659,t,0,0,0
3:44.219,80719,),0,0,2
3:44.503,80821,(,0,0,0
3:44.536,80833,p,0,0,0
3:44.592,80853,),0,0,0
3:44.681,80885,(,0,0,1
3:44.725,80901,N,0,0,0
3:44.761,80914,),0,0,1
3:44.972,80990,(,0,0,2
3:45.103,81037,t,0,0,0
3:45.139,81050,),0,0,2
3:45.269,81097,(,0,0,0
3:45.322,81116,p,0,0,0
3:45.389,81140,),0,0,0
3:45.467,81168,(,0,0,1
3:45.511,81184,N,0,0,0
3:45.592,81213,),0,0,1
3:45.800,81288,(,0,0,2
3:45.828,81298,t,0,0,0
3:45.861,81310,),0,0,2
3:45.897,81323,(,0,0,0
3:45.922,81332,p,0,0,0
3:45.956,81344,),0,0,0
3:45.969,81349,(,0,0,1
3:46.069,81385,N,0,0,0
3:46.178,81424,),0,0,1
3:46.275,81459,(,0,0,2
3:46.317,81474,t,0,0,0
3:46.347,81485,),0,0,2
3:46.653,81595,(,0,0,0
3:46.678,81604,p,0,0,0
3:46.717,81618,),0,0,0
3:46.750,81630,(,0,0,1
3:46.786,81643,N,0,0,0
3:46.872,81674,),0,0,1
3:46.969,81709,(,0,0,2
3:47.053,81739,t,0,0,0
3:47.081,81749,),0,0,2
3:47.219,81799,(,0,0,0
3:47.247,81809,p,0,0,0
3:47.300,81828,),0,0,0
3:47.375,81855,(,0,0,1
3:47.428,81874,N,0,0,0
3:47.464,81887,),0,0,1
3:47.578,81928,(,0,0,2
3:47.742,81987,t,0,0,0
3:47.783,82002,),0,0,2
3:47.839,82022,(,0,0,0
3:47.864,82031,p,0,0,0
3:47.886,82039,),0,0,0
3:48.006,82082,(,0,0,1
3:48.047,82097,N,0,0,0
3:48.122,82124,),0,0,1
3:48.597,82295,(,0,0,0
3:48.636,82309,p,0,0,0
3:48.678,82324,),0,0,0
3:48.772,82358,(,0,0,1
3:48.858,82389,N,0,0,0
3:48.925,82413,),0,0,1
3:49.156,82496,(,0,0,2
3:49.189,82508,t,0,0,0
3:49.222,82520,),0,0,2
3:49.336,82561,(,0,0,0
3:49.361,82570,p,0,0,0
3:49.392,82581,),0,0,0
3:49.517,82626,(,0,0,1
3:49.619,82663,N,0,0,0
3:49.764,82715,),0,0,1
3:49.869,82753,(,0,0,2
3:49.908,82767,t,0,0,5
3:49.947,82781,t,0,0,5
3:50.056,82820,),0,0,2
3:50.069,82825,(,0,0,0
3:50.097,82835,p,0,0,0
3:50.122,82844,),0,0,0
3:50.256,82892,(,0,0,1
3:50.328,82918,N,0,0,0
3:50.369,82933,),0,0,1
3:50.444,82960,(,0,0,2
3:50.481,82973,t,0,0,1
3:50.561,83002,),0,0,2
3:50.747,83069,(,0,0,0
3:50.772,83078,p,0,0,0
3:50.806,83090,),0,0,0
3:50.875,83115,(,0,0,1
3:50.919,83131,N,0,0,0
3:50.969,83149,),0,0,1
3:51.056,83180,(,0,0,2
3:51.167,83220,t,0,0,1
3:51.308,83271,),0,0,2
3:51.447,83321,(,0,0,0
3:51.469,83329,p,0,0,0
3:51.494,83338,),0,0,0
3:51.561,83362,(,0,0,1
3:51.647,83393,N,0,0,0
3:51.786,83443,),0,0,1
3:51.814,83453,(,0,0,2
3:51.967,83508,t,0,0,0
3:52.122,83564,),0,0,2
3:52.136,83569,(,0,0,0
3:52.161,83578,p,0,0,0
3:52.186,83587,),0,0,0
3:52.289,83624,(,0,0,1
3:52.403,83665,N,0,0,0
3:52.519,83707,),0,0,1
3:52.647,83753,(,0,0,2
3:52.681,83765,t,0,0,5
3:52.758,83793,t,0,0,5
3:52.778,83800,),0,0,2
3:52.867,83832,(,0,0,0
3:52.892,83841,p,0,0,0
3:52.917,83850,),0,0,0
3:52.967,83868,(,0,0,1
3:53.094,83914,N,0,0,0
3:53.206,83954,),0,0,1
3:53.214,83957,(,0,0,2
3:53.261,83974,t,0,0,0
3:53.281,83981,),0,0,2
3:53.292,83985,(,0,0,0
3:53.333,84000,p,0,0,0
3:53.358,84009,),0,0,0
3:53.386,84019,(,0,0,1
3:53.453,84043,N,0,0,0
3:53.519,84067,),0,0,1
3:53.539,84074,(,0,0,2
3:53.653,84115,t,0,0,0
3:53.775,84159,),0,0,2
3:53.972,84230,(,0,0,0
3:53.997,84239,p,0,0,0
3:54.022,84248,),0,0,0
3:54.136,84289,(,0,0,1
3:54.219,84319,N,0,0,0
3:54.353,84367,),0,0,1
3:54.464,84407,(,0,0,2
3:54.533,84432,t,0,0,0
3:54.558,84441,),0,0,2
3:54.603,84457,(,0,0,0
3:54.656,84476,p,0,0,0
3:54.683,84486,),0,0,0
3:54.750,84510,(,0,0,1
3:54.783,84522,N,0,0,0
3:54.872,84554,),0,0,1
3:54.983,84594,(,0,0,2
3:55.003,84601,t,0,0,1
3:55.061,84622,),0,0,2
3:55.347,84725,(,0,0,0
3:55.378,84736,p,0,0,0
3:55.406,84746,),0,0,0
3:55.428,84754,(,0,0,1
3:55.517,84786,N,0,0,0
3:55.594,84814,),0,0,1
3:55.619,84823,(,0,0,2
3:55.653,84835,t,0,0,4
3:55.819,84895,t,0,0,4
3:55.856,84908,),0,0,2
3:56.011,84964,(,0,0,0
3:56.083,84990,p,0,0,0
3:56.147,85013,),0,0,0
3:56.158,85017,(,0,0,1
3:56.275,85059,N,0,0,0
3:56.367,85092,),0,0,1
3:56.503,85141,(,0,0,2
3:56.572,85166,t,0,0,0
3:56.642,85191,),0,0,2
3:56.775,85239,(,0,0,0
3:56.797,85247,p,0,0,0
3:56.822,85256,),0,0,0
3:56.936,85297,(,0,0,1
3:57.006,85322,N,0,0,0
3:57.094,85354,),0,0,1
3:57.197,85391,(,0,0,2
3:57.228,85402,t,0,0,1
3:57.306,85430,),0,0,2
3:57.472,85490,(,0,0,0
3:57.494,85498,p,0,0,0
3:57.517,85506,),0,0,0
3:57.628,85546,(,0,0,1
3:57.708,85575,N,0,0,0
3:57.806,85610,),0,0,1
3:58.156,85736,(,0,0,0
3:58.178,85744,p,0,0,0
3:58.200,85752,),0,0,0
3:58.294,85786,(,0,0,1
3:58.372,85814,N,0,0,0
3:58.503,85861,),0,0,1
3:58.731,85943,(,0,0,2
3:58.764,85955,t,0,0,0
3:58.803,85969,),0,0,2
3:58.892,86001,(,0,0,0
3:58.919,86011,p,0,0,0
3:58.953,86023,),0,0,0
3:59.003,86041,(,0,0,1
3:59.100,86076,N,0,0,0
3:59.211,86116,),0,0,1
3:59.344,86164,(,0,0,2
3:59.419,86191,t,0,0,0
3:59.486,86215,),0,0,2
3:59.522,86228,(,0,0,0
3:59.547,86237,p,0,0,0
3:59.569,86245,),0,0,0
3:59.681,86285,(,0,0,1
3:59.756,86312,N,0,0,0
3:59.819,86335,),0,0,1
3:59.897,86363,(,0,0,2
4:00.014,86405,t,0,0,0
4:00.044,86416,),0,0,2
4:00.086,86431,(,0,0,0
4:00.114,86441,p,0,0,0
4:00.142,86451,),0,0,0
4:00.300,86508,(,0,0,1
4:00.378,86536,N,0,0,0
4:00.458,86565,),0,0,1
4:00.503,86581,(,0,0,2
4:00.608,86619,t,0,0,0
4:00.708,86655,),0,0,2
4:00.722,86660,(,0,0,0
4:00.742,86667,p,0,0,0
4:00.764,86675,),0,0,0
4:00.836,86701,(,0,0,1
4:00.947,86741,N,0,0,0
4:01.036,86773,),0,0,1
4:01.117,86802,(,0,0,2
4:01.183,86826,t,0,0,5
4:01.331,86879,t,0,0,5
4:01.361,86890,),0,0,2
4:01.814,87053,(,0,0,0
4:01.858,87069,p,0,0,0
4:01.883,87078,),0,0,0
4:01.975,87111,(,0,0,1
4:02.019,87127,N,0,0,0
4:02.083,87150,),0,0,1
4:02.267,87216,(,0,0,2
4:02.306,87230,t,0,0,1
4:02.358,87249,),0,0,2
4:02.414,87269,(,0,0,0
4:02.475,87291,p,0,0,0
4:02.531,87311,),0,0,0
4:02.719,87379,(,0,0,1
4:02.778,87400,N,0,0,0
4:02.889,87440,),0,0,1
4:02.994,87478,(,0,0,2
4:03.086,87511,t,0,0,0
4:03.122,87524,),0,0,2
4:03.333,87600,(,0,0,0
4:03.356,87608,p,0,0,0
4:03.425,87633,),0,0,0
4:03.458,87645,(,0,0,1
4:03.544,87676,N,0,0,0
4:03.619,87703,),0,0,1
4:03.747,87749,(,0,0,2
4:03.819,87775,t,0,0,0
4:03.892,87801,),0,0,2
4:03.903,87805,(,0,0,0
4:03.953,87823,p,0,0,0
4:03.997,87839,),0,0,0
4:04.086,87871,(,0,0,1
4:04.128,87886,N,0,0,0
4:04.281,87941,),0,0,1
4:04.317,87954,(,0,0,2
4:04.375,87975,t,0,0,5
4:04.481,88013,t,0,0,5
4:04.511,88024,),0,0,2
4:04.597,88055,(,0,0,0
4:04.622,88064,p,0,0,0
4:04.647,88073,),0,0,0
4:04.808,88131,(,0,0,1
4:04.853,88147,N,0,0,0
4:04.903,88165,),0,0,1
4:04.992,88197,(,0,0,2
4:05.022,88208,t,0,0,4
4:05.131,88247,t,0,0,4
4:05.192,88269,),0,0,2
4:05.303,88309,(,0,0,0
4:05.350,88326,p,0,0,0
4:05.389,88340,),0,0,0
4:05.489,88376,(,0,0,1
4:05.533,88392,N,0,0,0
4:05.569,88405,),0,0,1
4:05.731,88463,(,0,0,2
4:05.839,88502,t,0,0,0
4:05.903,88525,),0,0,2
4:05.931,88535,(,0,0,0
4:05.981,88553,p,0,0,0
4:06.033,88572,),0,0,0
4:06.161,88618,(,0,0,1
4:06.203,88633,N,0,0,0
4:06.239,88646,),0,0,1
4:06.286,88663,(,0,0,2
4:06.342,88683,t,0,0,4
4:06.539,88754,t,0,0,4
4:06.603,88777,),0,0,2
4:06.647,88793,(,0,0,0
4:06.686,88807,p,0,0,0
4:06.717,88818,),0,0,0
4:06.753,88831,(,0,0,1
4:06.819,88855,N,0,0,0
4:06.858,88869,),0,0,1
4:07.056,88940,(,0,0,2
4:07.144,88972,t,0,0,0
4:07.217,88998,),0,0,2
4:07.233,89004,(,0,0,0
4:07.292,89025,p,0,0,0
4:07.353,89047,),0,0,0
4:07.372,89054,(,0,0,1
4:07.422,89072,N,0,0,0
4:07.611,89140,),0,0,1
4:07.631,89147,(,0,0,2
4:07.786,89203,t,0,0,0
4:07.842,89223,),0,0,2
4:08.047,89297,(,0,0,1
4:08.092,89313,N,0,0,0
4:08.125,89325,),0,0,1
4:08.214,89357,(,0,0,2
4:08.253,89371,t,0,0,4
4:08.372,89414,t,0,0,4
4:08.425,89433,),0,0,2
4:08.822,89576,(,0,0,1
4:08.881,89597,N,0,0,0
4:08.917,89610,),0,0,1
4:08.994,89638,(,0,0,2
4:09.028,89650,t,0,0,4
4:09.167,89700,t,0,0,4
4:09.203,89713,),0,0,2
4:09.506,89822,(,0,0,0
4:09.561,89842,p,0,0,0
4:09.642,89871,),0,0,0
4:09.647,89873,(,0,0,1
4:09.711,89896,N,0,0,0
4:09.747,89909,),0,0,1
4:09.794,89926,(,0,0,2
4:09.842,89943,t,0,0,4
4:10.083,90030,t,0,0,4
4:10.111,90040,),0,0,2
4:10.122,90044,(,0,0,0
4:10.200,90072,p,0,0,0
4:10.272,90098,),0,0,0
4:10.403,90145,(,0,0,1
4:10.447,90161,N,0,0,0
4:10.481,90173,),0,0,1
4:10.628,90226,(,0,0,2
4:10.714,90257,t,0,0,0
4:10.753,90271,),0,0,2
4:10.867,90312,(,0,0,0
4:10.917,90330,p,0,0,0
4:10.953,90343,),0,0,0
4:10.975,90351,(,0,0,1
4:11.017,90366,N,0,0,0
4:11.050,90378,),0,0,1
4:11.167,90420,t,0,0,2
4:11.267,90456,),0,0,2
4:11.583,90570,(,0,0,1
4:11.633,90588,N,0,0,0
4:11.667,90600,),0,0,1
4:11.672,90602,(,0,0,2
4:11.789,90644,t,0,0,4
4:12.000,90720,t,0,0,4
4:12.067,90744,),0,0,2
4:12.114,90761,(,0,0,0
4:12.150,90774,p,0,0,0
4:12.217,90798,),0,0,0
4:12.339,90842,(,0,0,1
4:12.375,90855,N,0,0,0
4:12.558,90921,),0,0,1
4:12.597,90935,(,0,0,2
4:12.678,90964,t,0,0,0
4:12.792,91005,),0,0,2
4:12.886,91039,(,0,0,0
4:12.956,91064,p,0,0,0
4:13.031,91091,),0,0,0
4:13.064,91103,(,0,0,1
4:13.108,91119,N,0,0,0
4:13.142,91131,),0,0,1
4:13.286,91183,(,0,0,2
4:13.436,91237,t,0,0,0
4:13.564,91283,),0,0,2
4:13.731,91343,(,0,0,1
4:13.778,91360,N,0,0,0
4:13.814,91373,),0,0,1
4:13.994,91438,(,0,0,2
4:14.108,91479,t,0,0,0
4:14.150,91494,),0,0,2
4:14.353,91567,(,0,0,1
4:14.403,91585,N,0,0,0
4:14.439,91598,),0,0,1
4:14.614,91661,(,0,0,2
4:14.744,91708,t,0,0,0
4:14.811,91732,),0,0,2
4:14.936,91777,(,0,0,0
4:14.967,91788,p,0,0,0
4:15.033,91812,),0,0,0
4:15.056,91820,(,0,0,1
4:15.100,91836,N,0,0,0
4:15.133,91848,),0,0,1
4:15.192,91869,(,0,0,2
4:15.275,91899,t,0,0,4
4:15.392,91941,t,0,0,4
4:15.433,91956,),0,0,2
4:15.661,92038,(,0,0,0
4:15.733,92064,p,0,0,0
4:15.806,92090,),0,0,0
4:15.861,92110,(,0,0,1
4:15.936,92137,N,0,0,0
4:15.972,92150,),0,0,1
4:16.156,92216,(,0,0,2
4:16.278,92260,t,0,0,0
4:16.344,92284,),0,0,2
4:16.439,92318,(,0,0,0
4:16.489,92336,p,0,0,0
4:16.514,92345,),0,0,0
4:16.625,92385,(,0,0,1
4:16.672,92402,N,0,0,0
4:16.706,92414,),0,0,1
4:17.036,92533,(,0,0,1
4:17.100,92556,N,0,0,0
4:17.156,92576,),0,0,1
4:17.239,92606,(,0,0,2
4:17.336,92641,t,0,0,0
4:17.383,92658,),0,0,2
4:17.572,92726,(,0,0,0
4:17.639,92750,p,0,0,0
4:17.700,92772,),0,0,0
4:17.761,92794,(,0,0,1
4:17.811,92812,N,0,0,0
4:17.967,92868,),0,0,1
4:17.978,92872,t,0,0,2
4:18.133,92928,),0,0,2
4:18.322,92996,(,0,0,1
4:18.361,93010,N,0,0,0
4:18.392,93021,),0,0,1
4:18.478,93052,(,0,0,2
4:18.519,93067,t,0,0,1
4:18.642,93111,),0,0,2
4:18.989,93236,(,0,0,1
4:19.047,93257,N,0,0,0
4:19.083,93270,),0,0,1
4:19.233,93324,(,0,0,0
4:19.250,93330,p,0,0,0
4:19.342,93363,),0,0,0
4:19.344,93364,(,0,0,1
4:19.403,93385,N,0,0,0
4:19.472,93410,),0,0,1
4:19.500,93420,(,0,0,2
4:19.628,93466,t,0,0,0
4:19.769,93517,),0,0,2
4:20.125,93645,(,0,0,1
4:20.181,93665,N,0,0,0
4:20.217,93678,),0,0,1
4:20.325,93717,(,0,0,2
4:20.375,93735,t,0,0,4
4:20.481,93773,t,0,0,4
4:20.508,93783,),0,0,2
4:20.586,93811,(,0,0,0
4:20.617,93822,p,0,0,0
4:20.650,93834,),0,0,0
4:20.844,93904,(,0,0,1
4:20.889,93920,N,0,0,0
4:20.925,93933,),0,0,1
4:21.108,93999,(,0,0,2
4:21.231,94043,t,0,0,0
4:21.297,94067,),0,0,2
4:21.461,94126,(,0,0,0
4:21.517,94146,p,0,0,0
4:21.556,94160,),0,0,0
4:21.581,94169,(,0,0,1
4:21.622,94184,N,0,0,0
4:21.656,94196,),0,0,1
4:21.842,94263,(,0,0,2
4:21.967,94308,t,0,0,0
4:22.014,94325,),0,0,2
4:22.278,94420,(,0,0,0
4:22.331,94439,p,0,0,0
4:22.369,94453,),0,0,0
4:22.389,94460,(,0,0,1
4:22.436,94477,N,0,0,0
4:22.469,94489,),0,0,1
4:22.581,94529,(,0,0,2
4:22.619,94543,t,0,0,4
4:22.731,94583,t,0,0,4
4:22.778,94600,),0,0,2
4:22.800,94608,(,0,0,0
4:22.867,94632,p,0,0,0
4:22.939,94658,),0,0,0
4:23.033,94692,(,0,0,1
4:23.072,94706,N,0,0,0
4:23.106,94718,),0,0,1
4:23.256,94772,(,0,0,2
4:23.389,94820,t,0,0,0
4:23.503,94861,),0,0,2
4:23.953,95023,(,0,0,1
4:24.019,95047,N,0,0,0
4:24.053,95059,),0,0,1
4:24.228,95122,(,0,0,2
4:24.292,95145,t,0,0,0
4:24.347,95165,),0,0,2
4:24.622,95264,(,0,0,1
4:24.664,95279,N,0,0,0
4:24.700,95292,),0,0,1
4:24.894,95362,(,0,0,2
4:25.025,95409,t,0,0,0
4:25.056,95420,),0,0,2
4:25.236,95485,(,0,0,0
4:25.275,95499,p,0,0,0
4:25.342,95523,),0,0,0
4:25.436,95557,(,0,0,1
4:25.483,95574,N,0,0,0
4:25.519,95587,),0,0,1
4:25.714,95657,(,0,0,2
4:25.833,95700,t,0,0,0
4:25.875,95715,),0,0,2
4:26.008,95763,(,0,0,0
4:26.075,95787,p,0,0,0
4:26.150,95814,),0,0,0
4:26.172,95822,(,0,0,1
4:26.217,95838,N,0,0,0
4:26.253,95851,),0,0,1
4:26.331,95879,(,0,0,2
4:26.400,95904,t,0,0,4
4:26.636,95989,t,0,0,4
4:26.700,96012,),0,0,2
4:26.717,96018,(,0,0,0
4:26.778,96040,p,0,0,0
4:26.842,96063,),0,0,0
4:26.856,96068,(,0,0,1
4:26.933,96096,N,0,0,0
4:26.969,96109,),0,0,1
4:27.078,96148,(,0,0,2
4:27.106,96158,t,0,0,4
4:27.233,96204,t,0,0,4
4:27.267,96216,),0,0,2
4:27.714,96377,(,0,0,1
4:27.764,96395,N,0,0,0
4:27.797,96407,),0,0,1
4:27.875,96435,(,0,0,2
4:27.906,96446,t,0,0,4
4:28.122,96524,t,0,0,4
4:28.156,96536,),0,0,2
4:28.344,96604,(,0,0,1
4:28.389,96620,N,0,0,0
4:28.422,96632,),0,0,1
4:28.606,96698,(,0,0,0
4:28.708,96735,p,0,0,0
4:28.764,96755,),0,0,0
4:28.767,96756,(,0,0,1
4:28.831,96779,N,0,0,0
4:29.017,96846,),0,0,1
4:29.458,97005,(,0,0,0
4:29.525,97029,p,0,0,0
4:29.600,97056,),0,0,0
4:29.653,97075,(,0,0,1
4:29.697,97091,N,0,0,0
4:29.731,97103,),0,0,1
4:29.914,97169,(,0,0,2
4:30.019,97207,t,0,0,0
4:30.058,97221,),0,0,2
4:30.161,97258,(,0,0,0
4:30.217,97278,p,0,0,0
4:30.311,97312,),0,0,0
4:30.344,97324,(,0,0,1
4:30.381,97337,N,0,0,0
4:30.414,97349,),0,0,1
4:30.558,97401,t,0,0,2
4:30.647,97433,),0,0,2
4:30.858,97509,(,0,0,0
4:30.889,97520,p,0,0,0
4:30.953,97543,),0,0,0
4:30.989,97556,(,0,0,1
4:31.044,97576,N,0,0,0
4:31.081,97589,),0,0,1
4:31.258,97653,(,0,0,2
4:31.342,97683,t,0,0,0
4:31.408,97707,),0,0,2
4:31.503,97741,(,0,0,0
4:31.575,97767,p,0,0,0
4:31.622,97784,),0,0,0
4:31.706,97814,(,0,0,1
4:31.753,97831,N,0,0,0
4:31.789,97844,),0,0,1
4:31.858,97869,(,0,0,2
4:31.908,97887,t,0,0,4
4:32.156,97976,t,0,0,4
4:32.183,97986,),0,0,2
4:32.392,98061,(,0,0,1
4:32.436,98077,N,0,0,0
4:32.472,98090,),0,0,1
4:32.544,98116,(,0,0,2
4:32.572,98126,t,0,0,4
4:32.789,98204,t,0,0,4
4:32.822,98216,),0,0,2
4:33.058,98301,(,0,0,0
4:33.097,98315,p,0,0,0
4:33.147,98333,),0,0,0
4:33.219,98359,(,0,0,1
4:33.289,98384,N,0,0,0
4:33.328,98398,),0,0,1
4:33.439,98438,(,0,0,2
4:33.472,98450,t,0,0,4
4:33.564,98483,t,0,0,4
4:33.586,98491,),0,0,2
4:33.742,98547,(,0,0,1
4:33.783,98562,N,0,0,0
4:33.817,98574,),0,0,1
4:33.958,98625,(,0,0,2
4:34.133,98688,t,0,0,0
4:34.158,98697,),0,0,2
4:34.367,98772,(,0,0,1
4:34.411,98788,N,0,0,0
4:34.561,98842,),0,0,1
4:34.636,98869,(,0,0,2
4:34.794,98926,t,0,0,0
4:34.925,98973,),0,0,2
4:35.028,99010,(,0,0,0
4:35.072,99026,p,0,0,0
4:35.111,99040,),0,0,0
4:35.144,99052,(,0,0,1
4:35.189,99068,N,0,0,0
4:35.225,99081,),0,0,1
4:35.386,99139,(,0,0,2
4:35.533,99192,t,0,0,0
4:35.650,99234,),0,0,2
4:35.847,99305,(,0,0,0
4:35.878,99316,p,0,0,0
4:35.911,99328,),0,0,0
4:36.017,99366,(,0,0,1
4:36.061,99382,N,0,0,0
4:36.186,99427,),0,0,1
4:36.550,99558,(,0,0,0
4:36.581,99569,p,0,0,0
4:36.614,99581,),0,0,0
4:36.708,99615,(,0,0,1
4:36.761,99634,N,0,0,0
4:36.925,99693,),0,0,1
4:37.272,99818,(,0,0,0
4:37.303,99829,p,0,0,0
4:37.336,99841,),0,0,0
4:37.408,99867,(,0,0,1
4:37.519,99907,N,0,0,0
4:37.731,99983,),0,0,1
4:37.833   100020,(,0,0,2
4:37.869   100033,t,0,0,0
4:37.917   100050,),0,0,2
4:37.975   100071,(,0,0,0
4:38.039   100094,p,0,0,0
4:38.133   100128,),0,0,0
4:38.217   100158,(,0,0,1
4:38.267   100176,N,0,0,0
4:38.311   100192,),0,0,1
4:38.481   100253,(,0,0,2
4:38.517   100266,t,0,0,0
4:38.567   100284,),0,0,2
4:39.092   100473,(,0,0,0
4:39.161   100498,p,0,0,0
4:39.231   100523,),0,0,0
4:39.283   100542,(,0,0,1
4:39.431   100595,N,0,0,0
4:39.433   100596,),0,0,1
4:39.758   100713,(,0,0,2
4:39.792   100725,t,0,0,0
4:39.839   100742,),0,0,2
4:39.942   100779,(,0,0,0
4:39.944   100780,p,0,0,0
4:40.014   100805,),0,0,0
4:40.039   100814,(,0,0,1
4:40.056   100820,N,0,0,0
4:40.183   100866,),0,0,1
4:40.450   100962,(,0,0,0
4:40.481   100973,p,0,0,0
4:40.514   100985,),0,0,0
4:40.614   101021,(,0,0,1
4:40.647   101033,N,0,0,0
4:40.806   101090,),0,0,1
4:40.997   101159,(,0,0,2
4:41.028   101170,t,0,0,1
4:41.061   101182,),0,0,2
4:41.183   101226,(,0,0,1
4:41.325   101277,N,0,0,0
4:41.328   101278,),0,0,1
4:41.367   101292,(,0,0,2
4:41.539   101354,t,0,0,0
4:41.619   101383,),0,0,2
4:41.792   101445,(,0,0,0
4:41.819   101455,p,0,0,0
4:41.853   101467,),0,0,0
4:41.922   101492,(,0,0,1
4:42.000   101520,N,0,0,0
4:42.189   101588,),0,0,1
4:42.225   101601,(,0,0,2
4:42.261   101614,t,0,0,0
4:42.269   101617,),0,0,2
4:42.278   101620,(,0,0,0
4:42.292   101625,p,0,0,0
4:42.325   101637,),0,0,0
4:42.344   101644,(,0,0,1
4:42.525   101709,N,0,0,0
4:42.686   101767,),0,0,1
4:42.733   101784,(,0,0,2
4:42.797   101807,t,0,0,1
4:42.833   101820,),0,0,2
4:43.039   101894,(,0,0,0
4:43.072   101906,p,0,0,0
4:43.108   101919,),0,0,0
4:43.150   101934,(,0,0,1
4:43.269   101977,N,0,0,0
4:43.397   102023,),0,0,1
4:43.633   102108,t,0,0,2
4:43.714   102137,),0,0,2
4:43.903   102205,(,0,0,1
4:43.922   102212,N,0,0,0
4:44.044   102256,),0,0,1
4:44.142   102291,(,0,0,2
4:44.203   102313,t,0,0,1
4:44.286   102343,),0,0,2
4:44.356   102368,(,0,0,1
4:44.522   102428,N,0,0,0
4:44.700   102492,),0,0,1
4:46.769   103237,N,0,0,0
4:46.778   103240,(,0,0,1
4:46.878   103276,),0,0,1
4:47.886   103639,(,0,0,0
4:47.917   103650,p,0,0,0
4:47.950   103662,),0,0,0
4:48.050   103698,(,0,0,1
4:48.072   103706,N,0,0,0
4:48.261   103774,),0,0,1
4:48.497   103859,t,0,0,2
4:48.567   103884,),0,0,2
4:48.700   103932,(,0,0,1
4:48.769   103957,N,0,0,0
4:48.919   104011,),0,0,1
4:50.864   104711,(,0,0,0
4:50.894   104722,p,0,0,0
4:50.931   104735,),0,0,0
4:51.042   104775,(,0,0,1
4:51.106   104798,N,0,0,0
4:51.250   104850,),0,0,1
4:51.511   104944,(,0,0,0
4:51.539   104954,p,0,0,0
4:51.572   104966,),0,0,0
4:51.639   104990,(,0,0,1
4:51.725   105021,N,0,0,0
4:51.919   105091,),0,0,1
4:52.144   105172,(,0,0,2
4:52.181   105185,t,0,0,0
4:52.233   105204,),0,0,2
4:52.811   105412,(,0,0,0
4:52.842   105423,p,0,0,0
4:52.875   105435,),0,0,0
4:52.903   105445,(,0,0,1
4:53.003   105481,N,0,0,0
4:53.144   105532,),0,0,1
4:53.589   105692,(,0,0,0
4:53.617   105702,p,0,0,0
4:53.650   105714,),0,0,0
4:53.733   105744,(,0,0,1
4:53.836   105781,N,0,0,0
4:54.019   105847,),0,0,1
4:54.267   105936,(,0,0,0
4:54.297   105947,p,0,0,0
4:54.331   105959,),0,0,0
4:54.408   105987,(,0,0,1
4:54.450   106002,N,0,0,0
4:54.544   106036,),0,0,1
4:54.836   106141,(,0,0,2
4:54.875   106155,t,0,0,0
4:54.925   106173,),0,0,2
4:55.697   106451,(,0,0,0
4:55.722   106460,p,0,0,0
4:55.800   106488,),0,0,0
4:55.850   106506,(,0,0,1
4:55.914   106529,N,0,0,0
4:55.917   106530,),0,0,1
4:56.042   106575,(,0,0,2
4:56.133   106608,t,0,0,0
4:56.239   106646,),0,0,2
5:00.497   108179,(,0,0,0
5:00.528   108190,p,0,0,0
5:00.561   108202,),0,0,0
5:00.786   108283,(,0,0,1
5:00.858   108309,N,0,0,0
5:00.861   108310,),0,0,1
5:00.961   108346,(,0,0,2
5:01.056   108380,t,0,0,0
5:01.161   108418,),0,0,2
5:21.769   115837,(,0,0,0
5:21.789   115844,p,0,0,0
5:21.936   115897,),0,0,0
5:21.969   115909,(,0,0,1
5:22.014   115925,N,0,0,0
5:22.017   115926,),0,0,1
5:22.097   115955,(,0,0,2
5:22.206   115994,t,0,0,0
5:22.339   116042,),0,0,2
5:58.311   128992,(,0,0,1
5:58.358   129009,N,0,0,0
5:58.361   129010,),0,0,1
5:58.364   129011,(,0,0,2
5:58.556   129080,t,0,0,0
5:58.700   129132,),0,0,2
6:26.636   139189,(,0,0,0
6:26.700   139212,p,0,0,0
6:26.808   139251,),0,0,0
6:26.864   139271,(,0,0,1
6:26.897   139283,N,0,0,0
6:26.983   139314,),0,0,1
6:27.144   139372,t,0,0,2
6:27.228   139402,),0,0,2
6:27.289   139424,(,0,0,0
6:27.308   139431,p,0,0,0
6:27.339   139442,),0,0,0
6:27.536   139513,(,0,0,1
6:27.572   139526,N,0,0,0
6:27.664   139559,),0,0,1
6:27.767   139596,(,0,0,2
6:27.783   139602,t,0,0,4
6:27.908   139647,t,0,0,4
6:27.947   139661,),0,0,2
6:28.072   139706,(,0,0,0
6:28.106   139718,p,0,0,0
6:28.203   139753,),0,0,0
6:28.239   139766,(,0,0,1
6:28.267   139776,N,0,0,0
6:28.331   139799,),0,0,1
6:28.456   139844,(,0,0,2
6:28.586   139891,t,0,0,0
6:28.664   139919,),0,0,2
6:28.731   139943,(,0,0,0
6:28.772   139958,p,0,0,0
6:28.806   139970,),0,0,0
6:28.936   140017,(,0,0,1
6:28.969   140029,N,0,0,0
6:29.031   140051,),0,0,1
6:29.064   140063,(,0,0,2
6:29.103   140077,t,0,0,4
6:29.222   140120,t,0,0,4
6:29.239   140126,),0,0,2
6:29.364   140171,(,0,0,0
6:29.397   140183,p,0,0,0
6:29.436   140197,),0,0,0
6:29.550   140238,(,0,0,1
6:29.578   140248,N,0,0,0
6:29.631   140267,),0,0,1
6:29.669   140281,(,0,0,2
6:29.714   140297,t,0,0,4
6:29.925   140373,t,0,0,4
6:29.992   140397,),0,0,2
6:30.222   140480,(,0,0,0
6:30.286   140503,p,0,0,0
6:30.322   140516,),0,0,0
6:30.367   140532,(,0,0,1
6:30.400   140544,N,0,0,0
6:30.433   140556,),0,0,1
6:30.494   140578,(,0,0,2
6:30.544   140596,t,0,0,4
6:30.792   140685,t,0,0,4
6:30.847   140705,),0,0,2
6:30.972   140750,(,0,0,0
6:31.028   140770,p,0,0,0
6:31.119   140803,),0,0,0
6:31.153   140815,(,0,0,1
6:31.189   140828,N,0,0,0
6:31.253   140851,),0,0,1
6:31.303   140869,(,0,0,2
6:31.342   140883,t,0,0,1
6:31.475   140931,),0,0,2
6:31.711   141016,(,0,0,0
6:31.764   141035,p,0,0,0
6:31.811   141052,),0,0,0
6:31.917   141090,(,0,0,1
6:31.956   141104,N,0,0,0
6:32.017   141126,),0,0,1
6:32.183   141186,(,0,0,2
6:32.256   141212,t,0,0,0
6:32.294   141226,),0,0,2
6:32.417   141270,(,0,0,0
6:32.475   141291,p,0,0,0
6:32.542   141315,),0,0,0
6:32.631   141347,(,0,0,1
6:32.661   141358,N,0,0,0
6:32.733   141384,),0,0,1
6:32.881   141437,(,0,0,2
6:33.017   141486,t,0,0,0
6:33.081   141509,),0,0,2
6:33.183   141546,(,0,0,0
6:33.253   141571,p,0,0,0
6:33.317   141594,),0,0,0
6:33.433   141636,(,0,0,1
6:33.469   141649,N,0,0,0
6:33.547   141677,),0,0,1
6:33.717   141738,(,0,0,2
6:33.797   141767,t,0,0,0
6:33.836   141781,),0,0,2
6:34.014   141845,(,0,0,0
6:34.072   141866,p,0,0,0
6:34.122   141884,),0,0,0
6:34.186   141907,(,0,0,1
6:34.217   141918,N,0,0,0
6:34.250   141930,),0,0,1
6:34.322   141956,(,0,0,2
6:34.347   141965,t,0,0,4
6:34.561   142042,t,0,0,4
6:34.633   142068,),0,0,2
6:34.944   142180,(,0,0,1
6:34.981   142193,N,0,0,0
6:35.017   142206,),0,0,1
6:35.194   142270,(,0,0,2
6:35.272   142298,t,0,0,0
6:35.331   142319,),0,0,2
6:35.356   142328,(,0,0,0
6:35.408   142347,p,0,0,0
6:35.442   142359,),0,0,0
6:35.481   142373,(,0,0,1
6:35.511   142384,N,0,0,0
6:35.581   142409,),0,0,1
6:35.700   142452,(,0,0,2
6:35.864   142511,t,0,0,0
6:35.908   142527,),0,0,2
6:36.108   142599,(,0,0,1
6:36.147   142613,N,0,0,0
6:36.200   142632,),0,0,1
6:36.353   142687,(,0,0,2
6:36.481   142733,t,0,0,0
6:36.589   142772,),0,0,2
6:36.781   142841,(,0,0,1
6:36.844   142864,N,0,0,0
6:36.947   142901,),0,0,1
6:37.089   142952,(,0,0,2
6:37.169   142981,t,0,0,0
6:37.250   143010,),0,0,2
6:37.447   143081,(,0,0,1
6:37.508   143103,N,0,0,0
6:37.567   143124,),0,0,1
6:37.628   143146,(,0,0,2
6:37.708   143175,t,0,0,4
6:37.811   143212,t,0,0,4
6:37.878   143236,),0,0,2
6:37.978   143272,(,0,0,0
6:38.047   143297,p,0,0,0
6:38.122   143324,),0,0,0
6:38.264   143375,(,0,0,1
6:38.303   143389,N,0,0,0
6:38.367   143412,),0,0,1
6:38.517   143466,(,0,0,2
6:38.608   143499,t,0,0,0
6:38.667   143520,),0,0,2
6:38.858   143589,(,0,0,0
6:38.903   143605,p,0,0,0
6:38.969   143629,),0,0,0
6:39.031   143651,(,0,0,1
6:39.072   143666,N,0,0,0
6:39.167   143700,),0,0,1
6:39.286   143743,(,0,0,2
6:39.425   143793,t,0,0,0
6:39.553   143839,),0,0,2
6:39.689   143888,(,0,0,0
6:39.719   143899,p,0,0,0
6:39.753   143911,),0,0,0
6:39.786   143923,(,0,0,1
6:39.822   143936,N,0,0,0
6:39.861   143950,),0,0,1
6:40.047   144017,(,0,0,2
6:40.119   144043,t,0,0,0
6:40.169   144061,),0,0,2
6:40.292   144105,(,0,0,0
6:40.331   144119,p,0,0,0
6:40.383   144138,),0,0,0
6:40.519   144187,(,0,0,1
6:40.553   144199,N,0,0,0
6:40.617   144222,),0,0,1
6:40.767   144276,(,0,0,2
6:40.839   144302,t,0,0,0
6:40.897   144323,),0,0,2
6:41.200   144432,(,0,0,1
6:41.239   144446,N,0,0,0
6:41.317   144474,),0,0,1
6:41.356   144488,(,0,0,2
6:41.581   144569,t,0,0,0
6:41.644   144592,),0,0,2
6:41.825   144657,(,0,0,1
6:41.861   144670,N,0,0,0
6:41.933   144696,),0,0,1
6:42.064   144743,(,0,0,2
6:42.133   144768,t,0,0,0
6:42.178   144784,),0,0,2
6:42.289   144824,(,0,0,0
6:42.367   144852,p,0,0,0
6:42.408   144867,),0,0,0
6:42.517   144906,(,0,0,1
6:42.547   144917,N,0,0,0
6:42.617   144942,),0,0,1
6:42.775   144999,(,0,0,2
6:42.853   145027,t,0,0,0
6:42.917   145050,),0,0,2
6:42.944   145060,(,0,0,0
6:43.000   145080,p,0,0,0
6:43.069   145105,),0,0,0
6:43.092   145113,(,0,0,1
6:43.133   145128,N,0,0,0
6:43.217   145158,),0,0,1
6:43.325   145197,(,0,0,2
6:43.467   145248,t,0,0,0
6:43.558   145281,),0,0,2
6:43.647   145313,(,0,0,0
6:43.719   145339,p,0,0,0
6:43.811   145372,),0,0,0
6:43.889   145400,(,0,0,1
6:43.928   145414,N,0,0,0
6:44.019   145447,),0,0,1
6:44.081   145469,(,0,0,2
6:44.292   145545,t,0,0,0
6:44.331   145559,),0,0,2
6:45.083   145830,(,0,0,0
6:45.125   145845,p,0,0,0
6:45.183   145866,),0,0,0
6:45.342   145923,(,0,0,1
6:45.381   145937,N,0,0,0
6:45.436   145957,),0,0,1
6:45.597   146015,(,0,0,2
6:45.694   146050,t,0,0,0
6:45.747   146069,),0,0,2
6:45.897   146123,(,0,0,0
6:45.944   146140,p,0,0,0
6:46.017   146166,),0,0,0
6:46.067   146184,(,0,0,1
6:46.092   146193,N,0,0,0
6:46.128   146206,),0,0,1
6:46.197   146231,(,0,0,2
6:46.239   146246,t,0,0,1
6:46.356   146288,),0,0,2
6:46.636   146389,(,0,0,1
6:46.675   146403,N,0,0,0
6:46.769   146437,),0,0,1
6:46.858   146469,(,0,0,2
6:46.942   146499,t,0,0,0
6:46.978   146512,),0,0,2
6:47.242   146607,(,0,0,1
6:47.281   146621,N,0,0,0
6:47.317   146634,),0,0,1
6:47.403   146665,(,0,0,2
6:47.433   146676,t,0,0,4
6:47.639   146750,t,0,0,4
6:47.669   146761,),0,0,2
6:47.842   146823,(,0,0,1
6:47.875   146835,N,0,0,0
6:47.939   146858,),0,0,1
6:48.056   146900,(,0,0,2
6:48.142   146931,t,0,0,0
6:48.161   146938,),0,0,2
6:48.208   146955,(,0,0,0
6:48.256   146972,p,0,0,0
6:48.311   146992,),0,0,0
6:48.406   147026,(,0,0,1
6:48.433   147036,N,0,0,0
6:48.486   147055,),0,0,1
6:48.617   147102,(,0,0,2
6:48.683   147126,t,0,0,0
6:48.728   147142,),0,0,2
6:48.767   147156,(,0,0,0
6:48.806   147170,p,0,0,0
6:48.867   147192,),0,0,0
6:48.969   147229,(,0,0,1
6:49.011   147244,N,0,0,0
6:49.069   147265,),0,0,1
6:49.106   147278,(,0,0,2
6:49.183   147306,t,0,0,4
6:49.294   147346,t,0,0,4
6:49.344   147364,),0,0,2
6:50.400   147744,(,0,0,0
6:50.439   147758,p,0,0,0
6:50.506   147782,),0,0,0
6:50.603   147817,(,0,0,1
6:50.642   147831,N,0,0,0
6:50.706   147854,),0,0,1
6:50.753   147871,(,0,0,2
6:50.794   147886,t,0,0,1
6:50.922   147932,),0,0,2
6:51.161   148018,(,0,0,0
6:51.231   148043,p,0,0,0
6:51.314   148073,),0,0,0
6:51.356   148088,(,0,0,1
6:51.389   148100,N,0,0,0
6:51.425   148113,),0,0,1
6:51.489   148136,(,0,0,2
6:51.553   148159,t,0,0,4
6:51.689   148208,t,0,0,4
6:51.719   148219,),0,0,2
6:52.006   148322,(,0,0,1
6:52.039   148334,N,0,0,0
6:52.119   148363,),0,0,1
6:52.206   148394,(,0,0,2
6:52.300   148428,t,0,0,0
6:52.333   148440,),0,0,2
6:52.592   148533,(,0,0,1
6:52.628   148546,N,0,0,0
6:52.669   148561,),0,0,1
6:52.789   148604,(,0,0,2
6:52.922   148652,t,0,0,0
6:53.025   148689,),0,0,2
6:53.106   148718,(,0,0,0
6:53.144   148732,p,0,0,0
6:53.214   148757,),0,0,0
6:53.247   148769,(,0,0,1
6:53.278   148780,N,0,0,0
6:53.336   148801,),0,0,1
6:53.389   148820,(,0,0,2
6:53.408   148827,t,0,0,4
6:53.553   148879,t,0,0,4
6:53.608   148899,),0,0,2
6:53.706   148934,(,0,0,0
6:53.753   148951,p,0,0,0
6:53.781   148961,),0,0,0
6:53.889   149000,(,0,0,1
6:53.928   149014,N,0,0,0
6:54.014   149045,),0,0,1
6:54.119   149083,t,0,0,2
6:54.206   149114,),0,0,2
6:54.322   149156,(,0,0,0
6:54.389   149180,p,0,0,0
6:54.436   149197,),0,0,0
6:54.506   149222,(,0,0,1
6:54.539   149234,N,0,0,0
6:54.633   149268,),0,0,1
6:54.758   149313,(,0,0,2
6:54.897   149363,t,0,0,0
6:54.928   149374,),0,0,2
6:55.225   149481,(,0,0,0
6:55.261   149494,p,0,0,0
6:55.361   149530,),0,0,0
6:55.383   149538,(,0,0,1
6:55.436   149557,N,0,0,0
6:55.486   149575,),0,0,1
6:55.600   149616,(,0,0,2
6:55.769   149677,t,0,0,0
6:55.842   149703,),0,0,2
6:56.028   149770,(,0,0,0
6:56.056   149780,p,0,0,0
6:56.103   149797,),0,0,0
6:56.153   149815,(,0,0,1
6:56.183   149826,N,0,0,0
6:56.250   149850,),0,0,1
6:56.281   149861,(,0,0,2
6:56.353   149887,t,0,0,4
6:56.492   149937,t,0,0,4
6:56.533   149952,),0,0,2
6:56.761   150034,(,0,0,1
6:56.800   150048,N,0,0,0
6:56.853   150067,),0,0,1
6:56.925   150093,(,0,0,2
6:56.953   150103,t,0,0,4
6:57.075   150147,t,0,0,4
6:57.136   150169,),0,0,2
6:57.500   150300,(,0,0,1
6:57.539   150314,N,0,0,0
6:57.619   150343,),0,0,1
6:57.744   150388,(,0,0,2
6:57.864   150431,t,0,0,0
6:57.914   150449,),0,0,2
6:58.000   150480,(,0,0,0
6:58.078   150508,p,0,0,0
6:58.136   150529,),0,0,0
6:58.219   150559,(,0,0,1
6:58.253   150571,N,0,0,0
6:58.322   150596,),0,0,1
6:58.369   150613,(,0,0,2
6:58.392   150621,t,0,0,1
6:58.528   150670,),0,0,2
6:58.756   150752,(,0,0,0
6:58.819   150775,p,0,0,0
6:58.878   150796,),0,0,0
6:58.908   150807,(,0,0,1
6:58.942   150819,N,0,0,0
6:58.975   150831,),0,0,1
6:59.133   150888,(,0,0,2
6:59.211   150916,t,0,0,0
6:59.258   150933,),0,0,2
6:59.278   150940,(,0,0,0
6:59.325   150957,p,0,0,0
6:59.394   150982,),0,0,0
6:59.500   151020,(,0,0,1
6:59.528   151030,N,0,0,0
6:59.586   151051,),0,0,1
6:59.611   151060,(,0,0,2
6:59.664   151079,t,0,0,4
6:59.789   151124,t,0,0,4
6:59.808   151131,),0,0,2
7:00.094   151234,(,0,0,1
7:00.125   151245,N,0,0,0
7:00.186   151267,),0,0,1
7:00.231   151283,(,0,0,2
7:00.256   151292,t,0,0,1
7:00.408   151347,),0,0,2
7:00.517   151386,(,0,0,0
7:00.558   151401,p,0,0,0
7:00.625   151425,),0,0,0
7:00.672   151442,(,0,0,1
7:00.708   151455,N,0,0,0
7:00.750   151470,),0,0,1
7:00.925   151533,(,0,0,2
7:01.047   151577,t,0,0,0
7:01.153   151615,),0,0,2
7:03.839   152582,(,0,0,1
7:03.894   152602,N,0,0,0
7:03.936   152617,),0,0,1
7:04.200   152712,(,0,0,2
7:04.231   152723,t,0,0,0
7:04.278   152740,),0,0,2
7:04.994   152998,(,0,0,0
7:05.050   153018,p,0,0,0
7:05.100   153036,),0,0,0
7:05.128   153046,(,0,0,1
7:05.167   153060,N,0,0,0
7:05.239   153086,),0,0,1
7:05.389   153140,(,0,0,2
7:05.453   153163,t,0,0,0
7:05.497   153179,),0,0,2
7:05.581   153209,(,0,0,0
7:05.639   153230,p,0,0,0
7:05.700   153252,),0,0,0
7:05.783   153282,(,0,0,1
7:05.811   153292,N,0,0,0
7:05.889   153320,),0,0,1
7:05.983   153354,t,0,0,2
7:06.125   153405,),0,0,2
7:06.150   153414,(,0,0,0
7:06.222   153440,p,0,0,0
7:06.278   153460,),0,0,0
7:06.356   153488,(,0,0,1
7:06.378   153496,N,0,0,0
7:06.439   153518,),0,0,1
7:06.522   153548,(,0,0,2
7:06.711   153616,t,0,0,0
7:06.769   153637,),0,0,2
7:06.872   153674,(,0,0,0
7:06.936   153697,p,0,0,0
7:07.014   153725,),0,0,0
7:07.058   153741,(,0,0,1
7:07.094   153754,N,0,0,0
7:07.133   153768,),0,0,1
7:07.181   153785,(,0,0,2
7:07.275   153819,t,0,0,4
7:07.414   153869,t,0,0,4
7:07.444   153880,),0,0,2
7:07.758   153993,(,0,0,0
7:07.786   154003,p,0,0,0
7:07.825   154017,),0,0,0
7:07.858   154029,(,0,0,1
7:07.900   154044,N,0,0,0
7:07.969   154069,),0,0,1
7:08.119   154123,(,0,0,2
7:08.219   154159,t,0,0,0
7:08.272   154178,),0,0,2
7:08.358   154209,(,0,0,0
7:08.425   154233,p,0,0,0
7:08.494   154258,),0,0,0
7:08.606   154298,(,0,0,1
7:08.639   154310,N,0,0,0
7:08.736   154345,),0,0,1
7:08.869   154393,(,0,0,2
7:08.983   154434,t,0,0,0
7:09.058   154461,),0,0,2
7:09.075   154467,(,0,0,0
7:09.128   154486,p,0,0,0
7:09.189   154508,),0,0,0
7:09.269   154537,(,0,0,1
7:09.308   154551,N,0,0,0
7:09.369   154573,),0,0,1
7:09.528   154630,(,0,0,2
7:09.597   154655,t,0,0,0
7:09.656   154676,),0,0,2
7:09.739   154706,(,0,0,0
7:09.786   154723,p,0,0,0
7:09.861   154750,),0,0,0
7:09.892   154761,(,0,0,1
7:09.928   154774,N,0,0,0
7:09.989   154796,),0,0,1
7:10.014   154805,(,0,0,2
7:10.086   154831,t,0,0,4
7:10.206   154874,t,0,0,4
7:10.247   154889,),0,0,2
7:10.583   155010,(,0,0,1
7:10.619   155023,N,0,0,0
7:10.675   155043,),0,0,1
7:10.825   155097,(,0,0,2
7:10.897   155123,t,0,0,0
7:10.931   155135,),0,0,2
7:12.153   155575,(,0,0,0
7:12.208   155595,p,0,0,0
7:12.244   155608,),0,0,0
7:12.292   155625,(,0,0,1
7:12.322   155636,N,0,0,0
7:12.389   155660,),0,0,1
7:12.517   155706,(,0,0,2
7:12.661   155758,t,0,0,0
7:12.722   155780,),0,0,2
7:12.806   155810,(,0,0,0
7:12.861   155830,p,0,0,0
7:12.908   155847,),0,0,0
7:13.006   155882,(,0,0,1
7:13.067   155904,N,0,0,0
7:13.189   155948,),0,0,1
7:13.283   155982,(,0,0,2
7:13.411   156028,t,0,0,0
7:13.481   156053,),0,0,2
7:13.567   156084,(,0,0,0
7:13.644   156112,p,0,0,0
7:13.703   156133,),0,0,0
7:13.728   156142,(,0,0,1
7:13.769   156157,N,0,0,0
7:13.836   156181,),0,0,1
7:13.894   156202,(,0,0,2
7:13.944   156220,t,0,0,4
7:14.072   156266,t,0,0,4
7:14.139   156290,),0,0,2
7:14.236   156325,(,0,0,0
7:14.336   156361,p,0,0,0
7:14.372   156374,),0,0,0
7:14.525   156429,(,0,0,1
7:14.564   156443,N,0,0,0
7:14.608   156459,),0,0,1
7:14.747   156509,(,0,0,2
7:14.769   156517,t,0,0,4
7:14.897   156563,t,0,0,4
7:14.936   156577,),0,0,2
7:15.061   156622,(,0,0,0
7:15.103   156637,p,0,0,0
7:15.194   156670,),0,0,0
7:15.242   156687,(,0,0,1
7:15.272   156698,N,0,0,0
7:15.353   156727,),0,0,1
7:15.358   156729,(,0,0,2
7:15.414   156749,t,0,0,4
7:15.667   156840,t,0,0,4
7:15.719   156859,),0,0,2
7:15.753   156871,(,0,0,0
7:15.814   156893,p,0,0,0
7:15.856   156908,),0,0,0
7:15.894   156922,(,0,0,1
7:15.931   156935,N,0,0,0
7:16.006   156962,),0,0,1
7:16.136   157009,(,0,0,2
7:16.253   157051,t,0,0,0
7:16.314   157073,),0,0,2
7:16.411   157108,(,0,0,0
7:16.461   157126,p,0,0,0
7:16.536   157153,),0,0,0
7:16.572   157166,(,0,0,1
7:16.597   157175,N,0,0,0
7:16.631   157187,),0,0,1
7:16.792   157245,(,0,0,2
7:16.864   157271,t,0,0,0
7:16.889   157280,),0,0,2
7:16.950   157302,(,0,0,0
7:16.983   157314,p,0,0,0
7:17.036   157333,),0,0,0
7:17.181   157385,(,0,0,1
7:17.211   157396,N,0,0,0
7:17.292   157425,),0,0,1
7:17.417   157470,(,0,0,2
7:17.539   157514,t,0,0,0
7:17.572   157526,),0,0,2
7:17.761   157594,(,0,0,1
7:17.797   157607,N,0,0,0
7:17.858   157629,),0,0,1
7:17.944   157660,(,0,0,2
7:18.128   157726,t,0,0,0
7:18.181   157745,),0,0,2
7:18.206   157754,(,0,0,0
7:18.269   157777,p,0,0,0
7:18.314   157793,),0,0,0
7:18.361   157810,(,0,0,1
7:18.389   157820,N,0,0,0
7:18.472   157850,),0,0,1
7:18.550   157878,t,0,0,2
7:18.725   157941,),0,0,2
7:18.956   158024,(,0,0,1
7:18.986   158035,N,0,0,0
7:19.042   158055,),0,0,1
7:19.100   158076,(,0,0,2
7:19.128   158086,t,0,0,4
7:19.361   158170,t,0,0,4
7:19.442   158199,),0,0,2
7:20.375   158535,(,0,0,1
7:20.411   158548,N,0,0,0
7:20.492   158577,),0,0,1
7:20.631   158627,(,0,0,2
7:20.756   158672,t,0,0,0
7:20.783   158682,),0,0,2
7:22.017   159126,(,0,0,0
7:22.081   159149,p,0,0,0
7:22.164   159179,),0,0,0
7:22.211   159196,(,0,0,1
7:22.244   159208,N,0,0,0
7:22.281   159221,),0,0,1
7:22.417   159270,(,0,0,2
7:22.564   159323,t,0,0,0
7:22.661   159358,),0,0,2
7:22.756   159392,(,0,0,0
7:22.808   159411,p,0,0,0
7:22.875   159435,),0,0,0
7:22.958   159465,(,0,0,1
7:22.989   159476,N,0,0,0
7:23.039   159494,),0,0,1
7:23.197   159551,(,0,0,2
7:23.314   159593,t,0,0,0
7:23.378   159616,),0,0,2
7:23.528   159670,(,0,0,0
7:23.592   159693,p,0,0,0
7:23.633   159708,),0,0,0
7:23.675   159723,(,0,0,1
7:23.706   159734,N,0,0,0
7:23.808   159771,),0,0,1
7:23.919   159811,(,0,0,2
7:24.019   159847,t,0,0,0
7:24.061   159862,),0,0,2
7:24.231   159923,(,0,0,1
7:24.261   159934,N,0,0,0
7:24.325   159957,),0,0,1
7:24.397   159983,(,0,0,2
7:24.561   160042,t,0,0,0
7:24.703   160093,),0,0,2
7:24.722   160100,(,0,0,0
7:24.767   160116,p,0,0,0
7:24.847   160145,),0,0,0
7:24.875   160155,(,0,0,1
7:24.933   160176,N,0,0,0
7:24.992   160197,),0,0,1
7:25.156   160256,(,0,0,2
7:25.247   160289,t,0,0,0
7:25.314   160313,),0,0,2
7:25.631   160427,(,0,0,1
7:25.661   160438,N,0,0,0
7:25.697   160451,),0,0,1
7:25.772   160478,(,0,0,2
7:25.792   160485,t,0,0,4
7:26.019   160567,t,0,0,4
7:26.111   160600,),0,0,2
7:26.181   160625,(,0,0,0
7:26.258   160653,p,0,0,0
7:26.331   160679,),0,0,0
7:26.411   160708,(,0,0,1
7:26.447   160721,N,0,0,0
7:26.511   160744,),0,0,1
7:26.561   160762,(,0,0,2
7:26.581   160769,t,0,0,4
7:26.792   160845,t,0,0,4
7:26.831   160859,),0,0,2
7:26.950   160902,(,0,0,0
7:27.031   160931,p,0,0,0
7:27.100   160956,),0,0,0
7:27.131   160967,(,0,0,1
7:27.164   160979,N,0,0,0
7:27.200   160992,),0,0,1
7:27.364   161051,(,0,0,2
7:27.506   161102,t,0,0,0
7:27.586   161131,),0,0,2
7:27.775   161199,(,0,0,1
7:27.808   161211,N,0,0,0
7:27.911   161248,),0,0,1
7:27.956   161264,(,0,0,2
7:28.197   161351,t,0,0,0
7:28.247   161369,),0,0,2
7:28.350   161406,(,0,0,0
7:28.397   161423,p,0,0,0
7:28.453   161443,),0,0,0
7:28.514   161465,(,0,0,1
7:28.544   161476,N,0,0,0
7:28.594   161494,),0,0,1
7:28.647   161513,(,0,0,2
7:28.678   161524,t,0,0,4
7:28.806   161570,t,0,0,4
7:28.833   161580,),0,0,2
7:28.931   161615,(,0,0,0
7:28.986   161635,p,0,0,0
7:29.033   161652,),0,0,0
7:29.139   161690,(,0,0,1
7:29.167   161700,N,0,0,0
7:29.200   161712,),0,0,1
7:29.289   161744,(,0,0,2
7:29.469   161809,t,0,0,0
7:29.514   161825,),0,0,2
7:29.625   161865,(,0,0,0
7:29.694   161890,p,0,0,0
7:29.747   161909,),0,0,0
7:29.781   161921,(,0,0,1
7:29.811   161932,N,0,0,0
7:29.892   161961,),0,0,1
7:29.992   161997,(,0,0,2
7:30.064   162023,t,0,0,0
7:30.092   162033,),0,0,2
7:30.236   162085,(,0,0,0
7:30.272   162098,p,0,0,0
7:30.353   162127,),0,0,0
7:30.425   162153,(,0,0,1
7:30.456   162164,N,0,0,0
7:30.542   162195,),0,0,1
7:30.597   162215,(,0,0,2
7:30.781   162281,t,0,0,0
7:30.839   162302,),0,0,2
7:30.931   162335,(,0,0,0
7:31.000   162360,p,0,0,0
7:31.050   162378,),0,0,0
7:31.172   162422,(,0,0,1
7:31.214   162437,N,0,0,0
7:31.311   162472,),0,0,1
7:31.442   162519,(,0,0,2
7:31.544   162556,t,0,0,0
7:31.581   162569,),0,0,2
7:31.711   162616,(,0,0,0
7:31.789   162644,p,0,0,0
7:31.872   162674,),0,0,0
7:31.900   162684,(,0,0,1
7:31.942   162699,N,0,0,0
7:32.008   162723,),0,0,1
7:32.297   162827,(,0,0,2
7:32.339   162842,t,0,0,1
7:32.539   162914,),0,0,2
7:33.472   163250,(,0,0,0
7:33.519   163267,p,0,0,0
7:33.578   163288,),0,0,0
7:33.744   163348,(,0,0,1
7:33.775   163359,N,0,0,0
7:33.844   163384,),0,0,1
7:33.875   163395,(,0,0,2
7:33.944   163420,t,0,0,4
7:34.044   163456,t,0,0,4
7:34.092   163473,),0,0,2
7:34.183   163506,(,0,0,0
7:34.253   163531,p,0,0,0
7:34.319   163555,),0,0,0
7:34.394   163582,(,0,0,1
7:34.425   163593,N,0,0,0
7:34.508   163623,),0,0,1
7:34.597   163655,(,0,0,2
7:34.742   163707,t,0,0,0
7:34.850   163746,),0,0,2
7:34.947   163781,(,0,0,0
7:35.006   163802,p,0,0,0
7:35.072   163826,),0,0,0
7:35.103   163837,(,0,0,1
7:35.133   163848,N,0,0,0
7:35.194   163870,),0,0,1
7:35.444   163960,(,0,0,2
7:35.483   163974,t,0,0,1
7:35.569   164005,),0,0,2
7:36.561   164362,(,0,0,0
7:36.661   164398,p,0,0,0
7:36.728   164422,),0,0,0
7:36.761   164434,(,0,0,1
7:36.792   164445,N,0,0,0
7:36.864   164471,),0,0,1
7:37.011   164524,(,0,0,2
7:37.103   164557,t,0,0,0
7:37.153   164575,),0,0,2
7:37.403   164665,(,0,0,0
7:37.439   164678,p,0,0,0
7:37.478   164692,),0,0,0
7:37.575   164727,(,0,0,1
7:37.611   164740,N,0,0,0
7:37.661   164758,),0,0,1
7:37.817   164814,(,0,0,2
7:37.900   164844,t,0,0,0
7:37.975   164871,),0,0,2
7:38.139   164930,(,0,0,0
7:38.172   164942,p,0,0,0
7:38.211   164956,),0,0,0
7:38.333   165000,(,0,0,1
7:38.372   165014,N,0,0,0
7:38.414   165029,),0,0,1
7:38.600   165096,(,0,0,2
7:38.706   165134,t,0,0,0
7:38.775   165159,),0,0,2
7:38.883   165198,(,0,0,0
7:38.956   165224,p,0,0,0
7:39.039   165254,),0,0,0
7:39.078   165268,(,0,0,1
7:39.114   165281,N,0,0,0
7:39.161   165298,),0,0,1
7:39.219   165319,(,0,0,2
7:39.267   165336,t,0,0,4
7:39.392   165381,t,0,0,4
7:39.419   165391,),0,0,2
7:39.664   165479,(,0,0,1
7:39.703   165493,N,0,0,0
7:39.778   165520,),0,0,1
7:39.792   165525,(,0,0,2
7:39.842   165543,t,0,0,4
7:39.975   165591,t,0,0,4
7:40.000   165600,),0,0,2
7:40.092   165633,(,0,0,0
7:40.139   165650,p,0,0,0
7:40.192   165669,),0,0,0
7:40.231   165683,(,0,0,1
7:40.261   165694,N,0,0,0
7:40.328   165718,),0,0,1
7:40.369   165733,(,0,0,2
7:40.414   165749,t,0,0,4
7:40.519   165787,t,0,0,4
7:40.564   165803,),0,0,2
7:40.667   165840,(,0,0,0
7:40.722   165860,p,0,0,0
7:40.789   165884,),0,0,0
7:40.878   165916,(,0,0,1
7:40.908   165927,N,0,0,0
7:40.964   165947,),0,0,1
7:41.131   166007,(,0,0,2
7:41.214   166037,t,0,0,0
7:41.294   166066,),0,0,2
7:42.261   166414,(,0,0,0
7:42.303   166429,p,0,0,0
7:42.336   166441,),0,0,0
7:42.383   166458,(,0,0,1
7:42.411   166468,N,0,0,0
7:42.497   166499,),0,0,1
7:42.519   166507,t,0,0,2
7:42.611   166540,),0,0,2
7:42.758   166593,(,0,0,0
7:42.825   166617,p,0,0,0
7:42.881   166637,),0,0,0
7:42.981   166673,(,0,0,1
7:43.011   166684,N,0,0,0
7:43.047   166697,),0,0,1
7:43.167   166740,t,0,0,2
7:43.272   166778,),0,0,2
7:43.442   166839,(,0,0,0
7:43.467   166848,p,0,0,0
7:43.500   166860,),0,0,0
7:43.531   166871,(,0,0,1
7:43.561   166882,N,0,0,0
7:43.628   166906,),0,0,1
7:43.706   166934,t,0,0,2
7:43.817   166974,),0,0,2
7:45.367   167532,(,0,0,0
7:45.431   167555,p,0,0,0
7:45.503   167581,),0,0,0
7:45.586   167611,(,0,0,1
7:45.619   167623,N,0,0,0
7:45.683   167646,),0,0,1
7:45.733   167664,(,0,0,2
7:45.764   167675,t,0,0,4
7:45.942   167739,t,0,0,4
7:46.022   167768,),0,0,2
7:47.000   168120,(,0,0,0
7:47.072   168146,p,0,0,0
7:47.128   168166,),0,0,0
7:47.181   168185,(,0,0,1
7:47.208   168195,N,0,0,0
7:47.281   168221,),0,0,1
7:47.372   168254,(,0,0,2
7:47.528   168310,t,0,0,0
7:47.592   168333,),0,0,2
7:47.650   168354,(,0,0,0
7:47.689   168368,p,0,0,0
7:47.736   168385,),0,0,0
7:47.867   168432,(,0,0,1
7:47.900   168444,N,0,0,0
7:47.947   168461,),0,0,1
7:48.103   168517,(,0,0,2
7:48.178   168544,t,0,0,0
7:48.239   168566,),0,0,2
7:48.342   168603,(,0,0,0
7:48.392   168621,p,0,0,0
7:48.442   168639,),0,0,0
7:48.533   168672,(,0,0,1
7:48.567   168684,N,0,0,0
7:48.664   168719,),0,0,1
7:48.775   168759,(,0,0,2
7:48.914   168809,t,0,0,0
7:48.956   168824,),0,0,2
7:49.072   168866,(,0,0,0
7:49.150   168894,p,0,0,0
7:49.225   168921,),0,0,0
7:49.250   168930,(,0,0,1
7:49.308   168951,N,0,0,0
7:49.364   168971,),0,0,1
7:49.489   169016,(,0,0,2
7:49.636   169069,t,0,0,0
7:49.722   169100,),0,0,2
7:50.653   169435,(,0,0,1
7:50.692   169449,N,0,0,0
7:50.747   169469,),0,0,1
7:50.894   169522,(,0,0,2
7:50.983   169554,t,0,0,0
7:51.014   169565,),0,0,2
7:53.306   170390,(,0,0,0
7:53.350   170406,p,0,0,0
7:53.431   170435,),0,0,0
7:53.500   170460,(,0,0,1
7:53.528   170470,N,0,0,0
7:53.617   170502,),0,0,1
7:53.858   170589,(,0,0,2
7:53.897   170603,t,0,0,1
7:54.075   170667,),0,0,2
7:55.108   171039,(,0,0,0
7:55.186   171067,p,0,0,0
7:55.242   171087,),0,0,0
7:55.289   171104,(,0,0,1
7:55.322   171116,N,0,0,0
7:55.361   171130,),0,0,1
7:55.442   171159,(,0,0,2
7:55.467   171168,t,0,0,4
7:55.689   171248,t,0,0,4
7:55.728   171262,),0,0,2
7:56.414   171509,(,0,0,0
7:56.469   171529,p,0,0,0
7:56.519   171547,),0,0,0
7:56.586   171571,(,0,0,1
7:56.642   171591,N,0,0,0
7:56.700   171612,),0,0,1
7:56.769   171637,(,0,0,2
7:56.814   171653,t,0,0,4
7:56.933   171696,t,0,0,4
7:56.975   171711,),0,0,2
7:57.092   171753,(,0,0,0
7:57.150   171774,p,0,0,0
7:57.219   171799,),0,0,0
7:57.269   171817,(,0,0,1
7:57.297   171827,N,0,0,0
7:57.350   171846,),0,0,1
7:57.481   171893,(,0,0,2
7:57.586   171931,t,0,0,0
7:57.614   171941,),0,0,2
7:57.842   172023,(,0,0,0
7:57.917   172050,p,0,0,0
7:57.972   172070,),0,0,0
7:58.017   172086,(,0,0,1
7:58.047   172097,N,0,0,0
7:58.100   172116,),0,0,1
7:58.211   172156,(,0,0,2
7:58.322   172196,t,0,0,0
7:58.344   172204,),0,0,2
7:58.592   172293,(,0,0,0
7:58.650   172314,p,0,0,0
7:58.708   172335,),0,0,0
7:58.742   172347,(,0,0,1
7:58.772   172358,N,0,0,0
7:58.833   172380,),0,0,1
7:58.961   172426,(,0,0,2
7:59.042   172455,t,0,0,0
7:59.086   172471,),0,0,2
7:59.189   172508,(,0,0,0
7:59.233   172524,p,0,0,0
7:59.300   172548,),0,0,0
7:59.333   172560,(,0,0,1
7:59.361   172570,N,0,0,0
7:59.419   172591,),0,0,1
7:59.550   172638,(,0,0,2
7:59.628   172666,t,0,0,0
7:59.667   172680,),0,0,2
7:59.692   172689,(,0,0,0
7:59.739   172706,p,0,0,0
7:59.803   172729,),0,0,0
8:00.003   172801,(,0,0,1
8:00.042   172815,N,0,0,0
8:00.117   172842,),0,0,1
8:00.253   172891,(,0,0,2
8:00.325   172917,t,0,0,0
8:00.367   172932,),0,0,2
8:00.447   172961,(,0,0,0
8:00.500   172980,p,0,0,0
8:00.542   172995,),0,0,0
8:00.636   173029,(,0,0,1
8:00.667   173040,N,0,0,0
8:00.736   173065,),0,0,1
8:00.742   173067,(,0,0,2
8:00.794   173086,t,0,0,4
8:01.028   173170,t,0,0,4
8:01.086   173191,),0,0,2
8:01.300   173268,(,0,0,1
8:01.361   173290,N,0,0,0
8:01.419   173311,),0,0,1
8:01.589   173372,(,0,0,2
8:01.669   173401,t,0,0,0
8:01.747   173429,),0,0,2
8:02.689   173768,(,0,0,0
8:02.722   173780,p,0,0,0
8:02.789   173804,),0,0,0
8:02.858   173829,(,0,0,1
8:02.897   173843,N,0,0,0
8:02.939   173858,),0,0,1
8:02.944   173860,(,0,0,2
8:03.042   173895,t,0,0,4
8:03.261   173974,t,0,0,4
8:03.322   173996,),0,0,2
8:05.364   174731,(,0,0,0
8:05.436   174757,p,0,0,0
8:05.467   174768,),0,0,0
8:05.636   174829,(,0,0,1
8:05.669   174841,N,0,0,0
8:05.736   174865,),0,0,1
8:05.836   174901,(,0,0,2
8:06.022   174968,t,0,0,0
8:06.058   174981,),0,0,2
8:06.194   175030,(,0,0,0
8:06.233   175044,p,0,0,0
8:06.331   175079,),0,0,0
8:06.386   175099,(,0,0,1
8:06.408   175107,N,0,0,0
8:06.439   175118,),0,0,1
8:06.542   175155,(,0,0,2
8:06.708   175215,t,0,0,0
8:06.831   175259,),0,0,2
8:06.928   175294,(,0,0,0
8:07.017   175326,p,0,0,0
8:07.069   175345,),0,0,0
8:07.106   175358,(,0,0,1
8:07.139   175370,N,0,0,0
8:07.175   175383,),0,0,1
8:07.233   175404,(,0,0,2
8:07.292   175425,t,0,0,4
8:07.422   175472,t,0,0,4
8:07.453   175483,),0,0,2
8:07.536   175513,(,0,0,0
8:07.597   175535,p,0,0,0
8:07.653   175555,),0,0,0
8:07.756   175592,(,0,0,1
8:07.786   175603,N,0,0,0
8:07.889   175640,),0,0,1
8:07.928   175654,(,0,0,2
8:08.075   175707,t,0,0,0
8:08.186   175747,),0,0,2
8:08.589   175892,(,0,0,1
8:08.628   175906,N,0,0,0
8:08.689   175928,),0,0,1
8:08.897   176003,(,0,0,2
8:09.011   176044,t,0,0,0
8:09.069   176065,),0,0,2
8:09.081   176069,(,0,0,0
8:09.156   176096,p,0,0,0
8:09.214   176117,),0,0,0
8:09.317   176154,(,0,0,1
8:09.353   176167,N,0,0,0
8:09.419   176191,),0,0,1
8:09.556   176240,(,0,0,2
8:09.639   176270,t,0,0,0
8:09.681   176285,),0,0,2
8:09.697   176291,(,0,0,0
8:09.756   176312,p,0,0,0
8:09.814   176333,),0,0,0
8:09.978   176392,(,0,0,1
8:10.008   176403,N,0,0,0
8:10.042   176415,),0,0,1
8:10.208   176475,(,0,0,2
8:10.325   176517,t,0,0,0
8:10.356   176528,),0,0,2
8:10.531   176591,(,0,0,1
8:10.561   176602,N,0,0,0
8:10.619   176623,),0,0,1
8:10.856   176708,(,0,0,2
8:10.894   176722,t,0,0,1
8:11.089   176792,),0,0,2
8:11.344   176884,(,0,0,0
8:11.403   176905,p,0,0,0
8:11.481   176933,),0,0,0
8:11.533   176952,(,0,0,1
8:11.561   176962,N,0,0,0
8:11.639   176990,),0,0,1
8:11.747   177029,t,0,0,2
8:11.900   177084,),0,0,2
8:12.036   177133,(,0,0,1
8:12.067   177144,N,0,0,0
8:12.136   177169,),0,0,1
8:12.272   177218,(,0,0,2
8:12.350   177246,t,0,0,0
8:12.389   177260,),0,0,2
8:14.081   177869,(,0,0,0
8:14.142   177891,p,0,0,0
8:14.206   177914,),0,0,0
8:14.356   177968,(,0,0,1
8:14.394   177982,N,0,0,0
8:14.436   177997,),0,0,1
8:14.500   178020,(,0,0,2
8:14.553   178039,t,0,0,4
8:14.675   178083,t,0,0,4
8:14.706   178094,),0,0,2
8:15.053   178219,(,0,0,1
8:15.089   178232,N,0,0,0
8:15.172   178262,),0,0,1
8:15.208   178275,(,0,0,2
8:15.225   178281,t,0,0,4
8:15.478   178372,t,0,0,4
8:15.547   178397,),0,0,2
8:15.739   178466,(,0,0,1
8:15.808   178491,N,0,0,0
8:15.872   178514,),0,0,1
8:16.017   178566,(,0,0,2
8:16.089   178592,t,0,0,0
8:16.147   178613,),0,0,2
8:16.231   178643,(,0,0,0
8:16.306   178670,p,0,0,0
8:16.361   178690,),0,0,0
8:16.486   178735,(,0,0,1
8:16.517   178746,N,0,0,0
8:16.589   178772,),0,0,1
8:16.736   178825,(,0,0,2
8:16.808   178851,t,0,0,0
8:16.842   178863,),0,0,2
8:17.008   178923,(,0,0,1
8:17.039   178934,N,0,0,0
8:17.072   178946,),0,0,1
8:17.147   178973,(,0,0,2
8:17.169   178981,t,0,0,4
8:17.381   179057,t,0,0,4
8:17.450   179082,),0,0,2
8:18.386   179419,(,0,0,0
8:18.439   179438,p,0,0,0
8:18.497   179459,),0,0,0
8:18.575   179487,(,0,0,1
8:18.608   179499,N,0,0,0
8:18.678   179524,),0,0,1
8:20.278   180100,(,0,0,0
8:20.353   180127,p,0,0,0
8:20.400   180144,),0,0,0
8:20.492   180177,(,0,0,1
8:20.522   180188,N,0,0,0
8:20.608   180219,),0,0,1
8:20.642   180231,(,0,0,2
8:20.681   180245,t,0,0,1
8:20.814   180293,),0,0,2
8:21.217   180438,(,0,0,1
8:21.253   180451,N,0,0,0
8:21.308   180471,),0,0,1
8:21.358   180489,(,0,0,2
8:21.428   180514,t,0,0,4
8:21.531   180551,t,0,0,4
8:21.589   180572,),0,0,2
8:21.661   180598,(,0,0,0
8:21.736   180625,p,0,0,0
8:21.800   180648,),0,0,0
8:21.856   180668,(,0,0,1
8:21.889   180680,N,0,0,0
8:21.925   180693,),0,0,1
8:22.075   180747,(,0,0,2
8:22.181   180785,t,0,0,0
8:22.211   180796,),0,0,2
8:22.461   180886,(,0,0,0
8:22.528   180910,p,0,0,0
8:22.586   180931,),0,0,0
8:22.644   180952,(,0,0,1
8:22.678   180964,N,0,0,0
8:22.739   180986,),0,0,1
8:22.750   180990,(,0,0,2
8:22.814   181013,t,0,0,4
8:23.028   181090,t,0,0,4
8:23.089   181112,),0,0,2
8:23.164   181139,(,0,0,0
8:23.214   181157,p,0,0,0
8:23.297   181187,),0,0,0
8:23.331   181199,(,0,0,1
8:23.369   181213,N,0,0,0
8:23.408   181227,),0,0,1
8:23.564   181283,(,0,0,2
8:23.636   181309,t,0,0,0
8:23.669   181321,),0,0,2
8:23.961   181426,(,0,0,1
8:24.000   181440,N,0,0,0
8:24.058   181461,),0,0,1
8:24.169   181501,t,0,0,2
8:24.311   181552,),0,0,2
8:24.525   181629,(,0,0,1
8:24.558   181641,N,0,0,0
8:24.639   181670,),0,0,1
8:24.694   181690,(,0,0,2
8:24.825   181737,t,0,0,0
8:24.842   181743,),0,0,2
8:25.147   181853,(,0,0,1
8:25.178   181864,N,0,0,0
8:25.214   181877,),0,0,1
8:25.389   181940,(,0,0,2
8:25.533   181992,t,0,0,0
8:25.572   182006,),0,0,2
8:25.958   182145,(,0,0,1
8:25.994   182158,N,0,0,0
8:26.058   182181,),0,0,1
8:26.222   182240,(,0,0,2
8:26.356   182288,t,0,0,0
8:26.439   182318,),0,0,2
8:26.489   182336,(,0,0,0
8:26.517   182346,p,0,0,0
8:26.544   182356,),0,0,0
8:26.778   182440,(,0,0,1
8:26.811   182452,N,0,0,0
8:26.875   182475,),0,0,1
8:26.981   182513,(,0,0,2
8:27.150   182574,t,0,0,0
8:27.211   182596,),0,0,2
8:27.289   182624,(,0,0,0
8:27.314   182633,p,0,0,0
8:27.358   182649,),0,0,0
8:27.592   182733,(,0,0,1
8:27.631   182747,N,0,0,0
8:27.667   182760,),0,0,1
8:27.831   182819,(,0,0,2
8:27.911   182848,t,0,0,0
8:27.947   182861,),0,0,2
8:28.244   182968,(,0,0,1
8:28.283   182982,N,0,0,0
8:28.317   182994,),0,0,1
8:28.464   183047,(,0,0,2
8:28.553   183079,t,0,0,0
8:28.600   183096,),0,0,2
8:28.703   183133,(,0,0,0
8:28.739   183146,p,0,0,0
8:28.803   183169,),0,0,0
8:28.842   183183,(,0,0,1
8:28.872   183194,N,0,0,0
8:28.925   183213,),0,0,1
8:29.000   183240,(,0,0,2
8:29.031   183251,t,0,0,4
8:29.164   183299,t,0,0,4
8:29.192   183309,),0,0,2
8:29.497   183419,(,0,0,1
8:29.533   183432,N,0,0,0
8:29.569   183445,),0,0,1
8:29.736   183505,(,0,0,2
8:29.839   183542,t,0,0,0
8:29.908   183567,),0,0,2
8:30.014   183605,(,0,0,0
8:30.081   183629,p,0,0,0
8:30.128   183646,),0,0,0
8:30.197   183671,(,0,0,1
8:30.228   183682,N,0,0,0
8:30.275   183699,),0,0,1
8:30.400   183744,(,0,0,2
8:30.547   183797,t,0,0,0
8:30.581   183809,),0,0,2
8:30.928   183934,(,0,0,1
8:30.961   183946,N,0,0,0
8:30.994   183958,),0,0,1
8:31.069   183985,(,0,0,2
8:31.097   183995,t,0,0,4
8:31.297   184067,t,0,0,4
8:31.339   184082,),0,0,2
8:32.078   184348,(,0,0,0
8:32.117   184362,p,0,0,0
8:32.144   184372,),0,0,0
8:32.325   184437,(,0,0,1
8:32.361   184450,N,0,0,0
8:32.425   184473,),0,0,1
8:32.461   184486,(,0,0,2
8:32.511   184504,t,0,0,4
8:32.769   184597,t,0,0,4
8:32.833   184620,),0,0,2
8:32.847   184625,(,0,0,0
8:32.911   184648,p,0,0,0
8:32.978   184672,),0,0,0
8:33.064   184703,(,0,0,1
8:33.108   184719,N,0,0,0
8:33.192   184749,),0,0,1
8:33.258   184773,(,0,0,2
8:33.286   184783,t,0,0,4
8:33.422   184832,t,0,0,4
8:33.469   184849,),0,0,2
8:33.858   184989,(,0,0,0
8:33.950   185022,p,0,0,0
8:34.031   185051,),0,0,0
8:34.158   185097,(,0,0,1
8:34.219   185119,N,0,0,0
8:34.219   185119,),0,0,1
8:34.222   185120,(,0,0,2
8:34.422   185192,t,0,0,0
8:34.542   185235,),0,0,2
8:35.128   185446,(,0,0,1
8:35.161   185458,N,0,0,0
8:35.197   185471,),0,0,1
8:35.542   185595,(,0,0,2
8:35.567   185604,t,0,0,0
8:35.611   185620,),0,0,2
8:37.144   186172,(,0,0,1
8:37.178   186184,N,0,0,0
8:37.225   186201,),0,0,1
8:37.400   186264,(,0,0,2
8:37.494   186298,t,0,0,0
8:37.558   186321,),0,0,2
8:37.764   186395,(,0,0,0
8:37.806   186410,p,0,0,0
8:37.869   186433,),0,0,0
8:37.928   186454,(,0,0,1
8:37.967   186468,N,0,0,0
8:38.042   186495,),0,0,1
8:38.192   186549,(,0,0,2
8:38.269   186577,t,0,0,0
8:38.314   186593,),0,0,2
8:38.447   186641,(,0,0,0
8:38.533   186672,p,0,0,0
8:38.608   186699,),0,0,0
8:38.656   186716,(,0,0,1
8:38.686   186727,N,0,0,0
8:38.725   186741,),0,0,1
8:38.800   186768,(,0,0,2
8:38.839   186782,t,0,0,4
8:39.064   186863,t,0,0,4
8:39.106   186878,),0,0,2
8:39.328   186958,(,0,0,1
8:39.367   186972,N,0,0,0
8:39.461   187006,),0,0,1
8:39.561   187042,(,0,0,2
8:39.683   187086,t,0,0,0
8:39.756   187112,),0,0,2
8:39.794   187126,(,0,0,0
8:39.836   187141,p,0,0,0
8:39.878   187156,),0,0,0
8:39.961   187186,(,0,0,1
8:39.994   187198,N,0,0,0
8:40.058   187221,),0,0,1
8:40.169   187261,t,0,0,2
8:40.281   187301,),0,0,2
8:40.394   187342,(,0,0,0
8:40.450   187362,p,0,0,0
8:40.494   187378,),0,0,0
8:40.539   187394,(,0,0,1
8:40.567   187404,N,0,0,0
8:40.614   187421,),0,0,1
8:40.761   187474,(,0,0,2
8:40.861   187510,t,0,0,0
8:40.903   187525,),0,0,2
8:41.014   187565,(,0,0,0
8:41.092   187593,p,0,0,0
8:41.153   187615,),0,0,0
8:41.200   187632,(,0,0,1
8:41.231   187643,N,0,0,0
8:41.292   187665,),0,0,1
8:41.356   187688,(,0,0,2
8:41.381   187697,t,0,0,4
8:41.497   187739,t,0,0,4
8:41.519   187747,),0,0,2
8:41.625   187785,(,0,0,0
8:41.711   187816,p,0,0,0
8:41.747   187829,),0,0,0
8:41.878   187876,(,0,0,1
8:41.914   187889,N,0,0,0
8:41.975   187911,),0,0,1
8:42.022   187928,(,0,0,2
8:42.081   187949,t,0,0,4
8:42.186   187987,t,0,0,4
8:42.231   188003,),0,0,2
8:42.325   188037,(,0,0,0
8:42.358   188049,p,0,0,0
8:42.414   188069,),0,0,0
8:42.508   188103,(,0,0,1
8:42.575   188127,N,0,0,0
8:42.678   188164,),0,0,1
8:42.808   188211,(,0,0,2
8:42.936   188257,t,0,0,0
8:42.992   188277,),0,0,2
8:43.092   188313,(,0,0,0
8:43.150   188334,p,0,0,0
8:43.203   188353,),0,0,0
8:43.250   188370,(,0,0,1
8:43.286   188383,N,0,0,0
8:43.358   188409,),0,0,1
8:43.408   188427,(,0,0,2
8:43.439   188438,t,0,0,4
8:43.594   188494,t,0,0,4
8:43.650   188514,),0,0,2
8:44.514   188825,(,0,0,0
8:44.569   188845,p,0,0,0
8:44.606   188858,),0,0,0
8:44.717   188898,(,0,0,1
8:44.753   188911,N,0,0,0
8:44.828   188938,),0,0,1
8:44.864   188951,(,0,0,2
8:44.889   188960,t,0,0,4
8:45.119   189043,t,0,0,4
8:45.147   189053,),0,0,2
8:45.278   189100,(,0,0,0
8:45.339   189122,p,0,0,0
8:45.425   189153,),0,0,0
8:45.511   189184,(,0,0,1
8:45.539   189194,N,0,0,0
8:45.597   189215,),0,0,1
8:45.719   189259,(,0,0,2
8:45.736   189265,t,0,0,4
8:45.858   189309,t,0,0,4
8:45.925   189333,),0,0,2
8:46.028   189370,(,0,0,0
8:46.086   189391,p,0,0,0
8:46.175   189423,),0,0,0
8:46.228   189442,(,0,0,1
8:46.261   189454,N,0,0,0
8:46.328   189478,),0,0,1
8:46.333   189480,(,0,0,2
8:46.394   189502,t,0,0,1
8:46.519   189547,),0,0,2
8:46.628   189586,(,0,0,0
8:46.689   189608,p,0,0,0
8:46.758   189633,),0,0,0
8:46.844   189664,(,0,0,1
8:46.878   189676,N,0,0,0
8:46.958   189705,),0,0,1
8:47.014   189725,(,0,0,2
8:47.208   189795,t,0,0,0
8:47.250   189810,),0,0,2
8:48.161   190138,(,0,0,0
8:48.200   190152,p,0,0,0
8:48.261   190174,),0,0,0
8:48.322   190196,(,0,0,1
8:48.356   190208,N,0,0,0
8:48.428   190234,),0,0,1
8:48.544   190276,(,0,0,2
8:48.622   190304,t,0,0,0
8:48.681   190325,),0,0,2
8:48.739   190346,(,0,0,0
8:48.769   190357,p,0,0,0
8:48.839   190382,),0,0,0
8:48.928   190414,(,0,0,1
8:48.969   190429,N,0,0,0
8:49.061   190462,),0,0,1
8:49.103   190477,(,0,0,2
8:49.128   190486,t,0,0,4
8:49.281   190541,t,0,0,4
8:49.350   190566,),0,0,2
8:49.461   190606,(,0,0,0
8:49.525   190629,p,0,0,0
8:49.592   190653,),0,0,0
8:49.625   190665,(,0,0,1
8:49.658   190677,N,0,0,0
8:49.697   190691,),0,0,1
8:49.769   190717,(,0,0,2
8:49.842   190743,t,0,0,4
8:49.947   190781,t,0,0,4
8:50.006   190802,),0,0,2
8:50.111   190840,(,0,0,0
8:50.167   190860,p,0,0,0
8:50.228   190882,),0,0,0
8:50.353   190927,(,0,0,1
8:50.389   190940,N,0,0,0
8:50.461   190966,),0,0,1
8:50.617   191022,(,0,0,2
8:50.722   191060,t,0,0,0
8:50.786   191083,),0,0,2
8:50.872   191114,(,0,0,0
8:50.939   191138,p,0,0,0
8:50.997   191159,),0,0,0
8:51.094   191194,(,0,0,1
8:51.125   191205,N,0,0,0
8:51.164   191219,),0,0,1
8:51.228   191242,(,0,0,2
8:51.267   191256,t,0,0,4
8:51.492   191337,t,0,0,4
8:51.558   191361,),0,0,2
8:51.664   191399,(,0,0,0
8:51.706   191414,p,0,0,0
8:51.758   191433,),0,0,0
8:51.881   191477,(,0,0,1
8:51.917   191490,N,0,0,0
8:51.978   191512,),0,0,1
8:52.153   191575,(,0,0,2
8:52.228   191602,t,0,0,0
8:52.292   191625,),0,0,2
8:52.467   191688,(,0,0,0
8:52.511   191704,p,0,0,0
8:52.556   191720,),0,0,0
8:52.636   191749,(,0,0,1
8:52.675   191763,N,0,0,0
8:52.731   191783,),0,0,1
8:52.894   191842,(,0,0,2
8:53.025   191889,t,0,0,0
8:53.136   191929,),0,0,2
8:53.242   191967,(,0,0,0
8:53.297   191987,p,0,0,0
8:53.364   192011,),0,0,0
8:53.397   192023,(,0,0,1
8:53.431   192035,N,0,0,0
8:53.467   192048,),0,0,1
8:53.633   192108,(,0,0,2
8:53.706   192134,t,0,0,0
8:53.758   192153,),0,0,2
8:53.781   192161,(,0,0,0
8:53.839   192182,p,0,0,0
8:53.883   192198,),0,0,0
8:54.067   192264,(,0,0,1
8:54.097   192275,N,0,0,0
8:54.178   192304,),0,0,1
8:54.306   192350,(,0,0,2
8:54.408   192387,t,0,0,0
8:54.472   192410,),0,0,2
8:54.561   192442,(,0,0,0
8:54.611   192460,p,0,0,0
8:54.664   192479,),0,0,0
8:54.697   192491,(,0,0,1
8:54.728   192502,N,0,0,0
8:54.778   192520,),0,0,1
8:54.881   192557,(,0,0,2
8:54.911   192568,t,0,0,4
8:54.994   192598,t,0,0,4
8:55.042   192615,),0,0,2
8:55.294   192706,(,0,0,0
8:55.372   192734,p,0,0,0
8:55.431   192755,),0,0,0
8:55.464   192767,(,0,0,1
8:55.497   192779,N,0,0,0
8:55.561   192802,),0,0,1
8:55.592   192813,(,0,0,2
8:55.642   192831,t,0,0,4
8:55.817   192894,t,0,0,4
8:55.869   192913,),0,0,2
8:55.997   192959,(,0,0,0
8:56.044   192976,p,0,0,0
8:56.100   192996,),0,0,0
8:56.231   193043,(,0,0,1
8:56.292   193065,N,0,0,0
8:56.378   193096,),0,0,1
8:56.503   193141,(,0,0,2
8:56.525   193149,t,0,0,4
8:56.647   193193,t,0,0,4
8:56.692   193209,),0,0,2
8:56.903   193285,(,0,0,1
8:56.942   193299,N,0,0,0
8:57.011   193324,),0,0,1
8:57.178   193384,(,0,0,2
8:57.253   193411,t,0,0,0
8:57.283   193422,),0,0,2
8:57.411   193468,(,0,0,0
8:57.478   193492,p,0,0,0
8:57.531   193511,),0,0,0
8:57.597   193535,(,0,0,1
8:57.625   193545,N,0,0,0
8:57.683   193566,),0,0,1
8:57.839   193622,(,0,0,2
8:57.928   193654,t,0,0,0
8:57.994   193678,),0,0,2
8:58.122   193724,(,0,0,0
8:58.150   193734,p,0,0,0
8:58.169   193741,),0,0,0
8:58.203   193753,(,0,0,1
8:58.231   193763,N,0,0,0
8:58.314   193793,),0,0,1
8:58.436   193837,(,0,0,2
8:58.550   193878,t,0,0,0
8:58.606   193898,),0,0,2
8:58.631   193907,(,0,0,0
8:58.689   193928,p,0,0,0
8:58.742   193947,),0,0,0
8:58.781   193961,(,0,0,1
8:58.825   193977,N,0,0,0
8:58.914   194009,),0,0,1
8:59.114   194081,(,0,0,2
8:59.156   194096,t,0,0,1
