Elapsedtime,sample,Type,Sub,Chan,Num
0:00.419,151,(,0,0,0
0:00.461,166,p,0,0,0
0:00.506,182,),0,0,0
0:00.544,196,(,0,0,1
0:00.592,213,N,0,0,0
0:00.692,249,),0,0,1
0:00.739,266,(,0,0,2
0:00.822,296,t,0,0,0
0:00.914,329,),0,0,2
0:01.083,390,(,0,0,0
0:01.125,405,p,0,0,0
0:01.164,419,),0,0,0
0:01.208,435,(,0,0,1
0:01.250,450,N,0,0,0
0:01.356,488,),0,0,1
0:01.397,503,(,0,0,2
0:01.483,534,t,0,0,0
0:01.578,568,),0,0,2
0:01.756,632,(,0,0,0
0:01.794,646,p,0,0,0
0:01.842,663,),0,0,0
0:01.886,679,(,0,0,1
0:01.931,695,N,0,0,0
0:02.031,731,),0,0,1
0:02.078,748,(,0,0,2
0:02.164,779,t,0,0,0
0:02.258,813,),0,0,2
0:02.392,861,(,0,0,0
0:02.431,875,p,0,0,0
0:02.478,892,),0,0,0
0:02.522,908,(,0,0,1
0:02.564,923,N,0,0,0
0:02.669,961,),0,0,1
0:02.706,974,(,0,0,2
0:02.800,1008,t,0,0,0
0:02.894,1042,),0,0,2
0:03.053,1099,(,0,0,0
0:03.097,1115,p,0,0,0
0:03.147,1133,),0,0,0
0:03.200,1152,(,0,0,1
0:03.242,1167,N,0,0,0
0:03.358,1209,),0,0,1
0:03.383,1218,(,0,0,2
0:03.503,1261,t,0,0,0
0:03.614,1301,),0,0,2
0:03.803,1369,(,0,0,0
0:03.847,1385,p,0,0,0
0:03.894,1402,),0,0,0
0:03.939,1418,(,0,0,1
0:03.997,1439,N,0,0,0
0:04.106,1478,),0,0,1
0:04.164,1499,(,0,0,2
0:04.242,1527,t,0,0,0
0:04.336,1561,),0,0,2
0:04.531,1631,(,0,0,0
0:04.586,1651,p,0,0,0
0:04.642,1671,),0,0,0
0:04.675,1683,(,0,0,1
0:04.739,1706,N,0,0,0
0:04.861,1750,),0,0,1
0:04.922,1772,(,0,0,2
0:05.000,1800,t,0,0,0
0:05.094,1834,),0,0,2
0:05.256,1892,(,0,0,0
0:05.292,1905,p,0,0,0
0:05.336,1921,),0,0,0
0:05.381,1937,(,0,0,1
0:05.422,1952,N,0,0,0
0:05.522,1988,),0,0,1
0:05.583,2010,(,0,0,2
0:05.656,2036,t,0,0,0
0:05.756,2072,),0,0,2
0:05.894,2122,(,0,0,0
0:05.936,2137,p,0,0,0
0:05.975,2151,),0,0,0
0:06.025,2169,(,0,0,1
0:06.083,2190,N,0,0,0
0:06.194,2230,),0,0,1
0:06.222,2240,(,0,0,2
0:06.311,2272,t,0,0,0
0:06.392,2301,),0,0,2
0:06.486,2335,(,0,0,0
0:06.525,2349,p,0,0,0
0:06.569,2365,),0,0,0
0:06.611,2380,(,0,0,1
0:06.656,2396,N,0,0,0
0:06.756,2432,),0,0,1
0:06.803,2449,(,0,0,2
0:06.878,2476,t,0,0,0
0:06.964,2507,),0,0,2
0:07.072,2546,(,0,0,0
0:07.108,2559,p,0,0,0
0:07.150,2574,),0,0,0
0:07.183,2586,(,0,0,1
0:07.231,2603,N,0,0,0
0:07.328,2638,),0,0,1
0:07.356,2648,(,0,0,2
0:07.453,2683,t,0,0,0
0:07.542,2715,),0,0,2
0:07.675,2763,(,0,0,0
0:07.717,2778,p,0,0,0
0:07.761,2794,),0,0,0
0:07.808,2811,(,0,0,1
0:07.850,2826,N,0,0,0
0:07.950,2862,),0,0,1
0:08.006,2882,(,0,0,2
0:08.075,2907,t,0,0,0
0:08.164,2939,),0,0,2
0:08.289,2984,(,0,0,0
0:08.331,2999,p,0,0,0
0:08.375,3015,),0,0,0
0:08.422,3032,(,0,0,1
0:08.467,3048,N,0,0,0
0:08.575,3087,),0,0,1
0:08.611,3100,(,0,0,2
0:08.711,3136,t,0,0,0
0:08.800,3168,),0,0,2
0:08.936,3217,(,0,0,0
0:08.981,3233,p,0,0,0
0:09.028,3250,),0,0,0
0:09.061,3262,(,0,0,1
0:09.108,3279,N,0,0,0
0:09.214,3317,),0,0,1
0:09.269,3337,(,0,0,2
0:09.350,3366,t,0,0,0
0:09.464,3407,),0,0,2
0:09.647,3473,(,0,0,0
0:09.700,3492,p,0,0,0
0:09.747,3509,),0,0,0
0:09.797,3527,(,0,0,1
0:09.853,3547,N,0,0,0
0:09.961,3586,),0,0,1
0:09.994,3598,(,0,0,2
0:10.094,3634,t,0,0,0
0:10.183,3666,),0,0,2
0:10.339,3722,(,0,0,0
0:10.383,3738,p,0,0,0
0:10.428,3754,),0,0,0
0:10.481,3773,(,0,0,1
0:10.522,3788,N,0,0,0
0:10.628,3826,),0,0,1
0:10.669,3841,(,0,0,2
0:10.764,3875,t,0,0,0
0:10.867,3912,),0,0,2
0:11.011,3964,(,0,0,0
0:11.050,3978,p,0,0,0
0:11.094,3994,),0,0,0
0:11.139,4010,(,0,0,1
0:11.192,4029,N,0,0,0
0:11.303,4069,),0,0,1
0:11.331,4079,(,0,0,2
0:11.439,4118,t,0,0,0
0:11.528,4150,),0,0,2
0:11.694,4210,(,0,0,0
0:11.736,4225,p,0,0,0
0:11.786,4243,),0,0,0
0:11.828,4258,(,0,0,1
0:11.883,4278,N,0,0,0
0:11.992,4317,),0,0,1
0:12.036,4333,(,0,0,2
0:12.119,4363,t,0,0,0
0:12.211,4396,),0,0,2
0:12.367,4452,(,0,0,0
0:12.408,4467,p,0,0,0
0:12.453,4483,),0,0,0
0:12.497,4499,(,0,0,1
0:12.542,4515,N,0,0,0
0:12.639,4550,),0,0,1
0:12.669,4561,(,0,0,2
0:12.769,4597,t,0,0,0
0:12.858,4629,),0,0,2
0:13.025,4689,(,0,0,0
0:13.067,4704,p,0,0,0
0:13.111,4720,),0,0,0
0:13.161,4738,(,0,0,1
0:13.203,4753,N,0,0,0
0:13.303,4789,),0,0,1
0:13.361,4810,(,0,0,2
0:13.428,4834,t,0,0,0
0:13.514,4865,),0,0,2
0:13.647,4913,(,0,0,0
0:13.686,4927,p,0,0,0
0:13.728,4942,),0,0,0
0:13.778,4960,(,0,0,1
0:13.819,4975,N,0,0,0
0:13.925,5013,),0,0,1
0:13.961,5026,(,0,0,2
0:14.044,5056,t,0,0,0
0:14.131,5087,),0,0,2
0:14.267,5136,(,0,0,0
0:14.306,5150,p,0,0,0
0:14.350,5166,),0,0,0
0:14.397,5183,(,0,0,1
0:14.442,5199,N,0,0,0
0:14.547,5237,),0,0,1
0:14.597,5255,(,0,0,2
0:14.675,5283,t,0,0,0
0:14.772,5318,),0,0,2
0:14.928,5374,(,0,0,0
0:14.969,5389,p,0,0,0
0:15.014,5405,),0,0,0
0:15.061,5422,(,0,0,1
0:15.106,5438,N,0,0,0
0:15.208,5475,),0,0,1
0:15.253,5491,(,0,0,2
0:15.344,5524,t,0,0,0
0:15.442,5559,),0,0,2
0:15.586,5611,(,0,0,0
0:15.628,5626,p,0,0,0
0:15.678,5644,),0,0,0
0:15.731,5663,(,0,0,1
0:15.775,5679,N,0,0,0
0:15.886,5719,),0,0,1
0:15.950,5742,(,0,0,2
0:16.022,5768,t,0,0,0
0:16.117,5802,),0,0,2
0:16.250,5850,(,0,0,0
0:16.292,5865,p,0,0,0
0:16.336,5881,),0,0,0
0:16.381,5897,(,0,0,1
0:16.433,5916,N,0,0,0
0:16.544,5956,),0,0,1
0:16.575,5967,(,0,0,2
0:16.681,6005,t,0,0,0
0:16.783,6042,),0,0,2
0:16.928,6094,(,0,0,0
0:16.972,6110,p,0,0,0
0:17.022,6128,),0,0,0
0:17.067,6144,(,0,0,1
0:17.111,6160,N,0,0,0
0:17.214,6197,),0,0,1
0:17.267,6216,(,0,0,2
0:17.347,6245,t,0,0,0
0:17.444,6280,),0,0,2
0:17.589,6332,(,0,0,0
0:17.631,6347,p,0,0,0
0:17.678,6364,),0,0,0
0:17.725,6381,(,0,0,1
0:17.769,6397,N,0,0,0
0:17.875,6435,),0,0,1
0:17.914,6449,(,0,0,2
0:18.006,6482,t,0,0,0
0:18.100,6516,),0,0,2
0:18.242,6567,(,0,0,0
0:18.281,6581,p,0,0,0
0:18.325,6597,),0,0,0
0:18.372,6614,(,0,0,1
0:18.414,6629,N,0,0,0
0:18.511,6664,),0,0,1
0:18.536,6673,(,0,0,2
0:18.636,6709,t,0,0,0
0:18.722,6740,),0,0,2
0:18.864,6791,(,0,0,0
0:18.906,6806,p,0,0,0
0:18.950,6822,),0,0,0
0:18.994,6838,(,0,0,1
0:19.036,6853,N,0,0,0
0:19.139,6890,),0,0,1
0:19.183,6906,(,0,0,2
0:19.267,6936,t,0,0,0
0:19.347,6965,),0,0,2
0:19.519,7027,(,0,0,0
0:19.556,7040,p,0,0,0
0:19.603,7057,),0,0,0
0:19.650,7074,(,0,0,1
0:19.694,7090,N,0,0,0
0:19.797,7127,),0,0,1
0:19.853,7147,(,0,0,2
0:19.925,7173,t,0,0,0
0:20.019,7207,),0,0,2
0:20.189,7268,(,0,0,0
0:20.233,7284,p,0,0,0
0:20.278,7300,),0,0,0
0:20.322,7316,(,0,0,1
0:20.367,7332,N,0,0,0
0:20.464,7367,),0,0,1
0:20.506,7382,(,0,0,2
0:20.597,7415,t,0,0,0
0:20.692,7449,),0,0,2
0:20.847,7505,(,0,0,0
0:20.886,7519,p,0,0,0
0:20.933,7536,),0,0,0
0:20.983,7554,(,0,0,1
0:21.025,7569,N,0,0,0
0:21.131,7607,),0,0,1
0:21.172,7622,(,0,0,2
0:21.264,7655,t,0,0,0
0:21.350,7686,),0,0,2
0:21.508,7743,(,0,0,0
0:21.556,7760,p,0,0,0
0:21.600,7776,),0,0,0
0:21.653,7795,(,0,0,1
0:21.700,7812,N,0,0,0
0:21.803,7849,),0,0,1
0:21.875,7875,(,0,0,2
0:21.947,7901,t,0,0,0
0:22.050,7938,),0,0,2
0:22.228,8002,(,0,0,0
0:22.272,8018,p,0,0,0
0:22.317,8034,),0,0,0
0:22.364,8051,(,0,0,1
0:22.411,8068,N,0,0,0
0:22.517,8106,),0,0,1
0:22.558,8121,(,0,0,2
0:22.650,8154,t,0,0,0
0:22.756,8192,),0,0,2
0:22.953,8263,(,0,0,0
0:22.994,8278,p,0,0,0
0:23.042,8295,),0,0,0
0:23.092,8313,(,0,0,1
0:23.139,8330,N,0,0,0
0:23.247,8369,),0,0,1
0:23.292,8385,(,0,0,2
0:23.381,8417,t,0,0,0
0:23.472,8450,),0,0,2
0:23.628,8506,(,0,0,0
0:23.669,8521,p,0,0,0
0:23.714,8537,),0,0,0
0:23.753,8551,(,0,0,1
0:23.806,8570,N,0,0,0
0:23.908,8607,),0,0,1
0:23.956,8624,(,0,0,2
0:24.036,8653,t,0,0,0
0:24.122,8684,),0,0,2
0:24.283,8742,(,0,0,0
0:24.322,8756,p,0,0,0
0:24.369,8773,),0,0,0
0:24.417,8790,(,0,0,1
0:24.458,8805,N,0,0,0
0:24.561,8842,),0,0,1
0:24.619,8863,(,0,0,2
0:24.692,8889,t,0,0,0
0:24.783,8922,),0,0,2
0:24.961,8986,(,0,0,0
0:25.003,9001,p,0,0,0
0:25.047,9017,),0,0,0
0:25.089,9032,(,0,0,1
0:25.133,9048,N,0,0,0
0:25.231,9083,),0,0,1
0:25.272,9098,(,0,0,2
0:25.358,9129,t,0,0,0
0:25.447,9161,),0,0,2
0:25.606,9218,(,0,0,0
0:25.644,9232,p,0,0,0
0:25.686,9247,),0,0,0
0:25.736,9265,(,0,0,1
0:25.775,9279,N,0,0,0
0:25.875,9315,),0,0,1
0:25.906,9326,(,0,0,2
0:26.003,9361,t,0,0,0
0:26.086,9391,),0,0,2
0:26.228,9442,(,0,0,0
0:26.269,9457,p,0,0,0
0:26.311,9472,),0,0,0
0:26.361,9490,(,0,0,1
0:26.403,9505,N,0,0,0
0:26.506,9542,),0,0,1
0:26.558,9561,(,0,0,2
0:26.631,9587,t,0,0,0
0:26.719,9619,),0,0,2
0:26.875,9675,(,0,0,0
0:26.917,9690,p,0,0,0
0:26.961,9706,),0,0,0
0:27.008,9723,(,0,0,1
0:27.056,9740,N,0,0,0
0:27.167,9780,),0,0,1
0:27.217,9798,(,0,0,2
0:27.306,9830,t,0,0,0
0:27.400,9864,),0,0,2
0:27.564,9923,(,0,0,0
0:27.606,9938,p,0,0,0
0:27.653,9955,),0,0,0
0:27.708,9975,(,0,0,1
0:27.753,9991,N,0,0,0
0:27.864,10031,),0,0,1
0:27.908,10047,(,0,0,2
0:28.003,10081,t,0,0,0
0:28.097,10115,),0,0,2
0:28.236,10165,(,0,0,0
0:28.281,10181,p,0,0,0
0:28.325,10197,),0,0,0
0:28.364,10211,(,0,0,1
0:28.422,10232,N,0,0,0
0:28.528,10270,),0,0,1
0:28.583,10290,(,0,0,2
0:28.664,10319,t,0,0,0
0:28.756,10352,),0,0,2
0:28.914,10409,(,0,0,0
0:28.961,10426,p,0,0,0
0:29.006,10442,),0,0,0
0:29.044,10456,(,0,0,1
0:29.103,10477,N,0,0,0
0:29.208,10515,),0,0,1
0:29.258,10533,(,0,0,2
0:29.336,10561,t,0,0,0
0:29.444,10600,),0,0,2
0:29.583,10650,(,0,0,0
0:29.625,10665,p,0,0,0
0:29.669,10681,),0,0,0
0:29.706,10694,(,0,0,1
0:29.764,10715,N,0,0,0
0:29.875,10755,),0,0,1
0:29.911,10768,(,0,0,2
0:30.006,10802,t,0,0,0
0:30.092,10833,),0,0,2
0:30.225,10881,(,0,0,0
0:30.267,10896,p,0,0,0
0:30.308,10911,),0,0,0
0:30.336,10921,(,0,0,1
0:30.397,10943,N,0,0,0
0:30.494,10978,),0,0,1
0:30.550,10998,(,0,0,2
0:30.622,11024,t,0,0,0
0:30.719,11059,),0,0,2
0:30.856,11108,(,0,0,0
0:30.894,11122,p,0,0,0
0:30.936,11137,),0,0,0
0:30.989,11156,(,0,0,1
0:31.028,11170,N,0,0,0
0:31.122,11204,),0,0,1
0:31.161,11218,(,0,0,2
0:31.244,11248,t,0,0,0
0:31.333,11280,),0,0,2
0:31.492,11337,(,0,0,0
0:31.533,11352,p,0,0,0
0:31.575,11367,),0,0,0
0:31.619,11383,(,0,0,1
0:31.669,11401,N,0,0,0
0:31.772,11438,),0,0,1
0:31.825,11457,(,0,0,2
0:31.903,11485,t,0,0,0
0:32.006,11522,),0,0,2
0:32.133,11568,(,0,0,0
0:32.186,11587,p,0,0,0
0:32.231,11603,),0,0,0
0:32.272,11618,(,0,0,1
0:32.322,11636,N,0,0,0
0:32.428,11674,),0,0,1
0:32.461,11686,(,0,0,2
0:32.561,11722,t,0,0,0
0:32.653,11755,),0,0,2
0:32.794,11806,(,0,0,0
0:32.831,11819,p,0,0,0
0:32.869,11833,),0,0,0
0:32.906,11846,(,0,0,1
0:32.964,11867,N,0,0,0
0:33.069,11905,),0,0,1
0:33.108,11919,(,0,0,2
0:33.194,11950,t,0,0,0
0:33.283,11982,),0,0,2
0:33.417,12030,(,0,0,0
0:33.456,12044,p,0,0,0
0:33.503,12061,),0,0,0
0:33.550,12078,(,0,0,1
0:33.600,12096,N,0,0,0
0:33.708,12135,),0,0,1
0:33.764,12155,(,0,0,2
0:33.842,12183,t,0,0,0
0:33.939,12218,),0,0,2
0:34.075,12267,(,0,0,0
0:34.119,12283,p,0,0,0
0:34.161,12298,),0,0,0
0:34.208,12315,(,0,0,1
0:34.261,12334,N,0,0,0
0:34.369,12373,),0,0,1
0:34.419,12391,(,0,0,2
0:34.500,12420,t,0,0,0
0:34.600,12456,),0,0,2
0:34.742,12507,(,0,0,0
0:34.781,12521,p,0,0,0
0:34.828,12538,),0,0,0
0:34.875,12555,(,0,0,1
0:34.925,12573,N,0,0,0
0:34.953,12583,),0,0,1
0:35.075,12627,(,0,0,2
0:35.167,12660,t,0,0,0
0:35.256,12692,),0,0,2
0:35.392,12741,(,0,0,0
0:35.436,12757,p,0,0,0
0:35.481,12773,),0,0,0
0:35.525,12789,(,0,0,1
0:35.578,12808,N,0,0,0
0:35.681,12845,),0,0,1
0:35.722,12860,(,0,0,2
0:35.814,12893,t,0,0,0
0:35.914,12929,),0,0,2
0:36.056,12980,(,0,0,0
0:36.097,12995,p,0,0,0
0:36.144,13012,),0,0,0
0:36.189,13028,(,0,0,1
0:36.231,13043,N,0,0,0
0:36.331,13079,),0,0,1
0:36.375,13095,(,0,0,2
0:36.458,13125,t,0,0,0
0:36.550,13158,),0,0,2
0:36.697,13211,(,0,0,0
0:36.739,13226,p,0,0,0
0:36.783,13242,),0,0,0
0:36.831,13259,(,0,0,1
0:36.875,13275,N,0,0,0
0:36.969,13309,),0,0,1
0:37.008,13323,(,0,0,2
0:37.097,13355,t,0,0,0
0:37.189,13388,),0,0,2
0:37.325,13437,(,0,0,0
0:37.367,13452,p,0,0,0
0:37.411,13468,),0,0,0
0:37.456,13484,(,0,0,1
0:37.494,13498,N,0,0,0
0:37.594,13534,),0,0,1
0:37.622,13544,(,0,0,2
0:37.719,13579,t,0,0,0
0:37.800,13608,),0,0,2
0:37.967,13668,(,0,0,0
0:38.008,13683,p,0,0,0
0:38.053,13699,),0,0,0
0:38.089,13712,(,0,0,1
0:38.139,13730,N,0,0,0
0:38.236,13765,),0,0,1
0:38.283,13782,(,0,0,2
0:38.361,13810,t,0,0,0
0:38.458,13845,),0,0,2
0:38.628,13906,(,0,0,0
0:38.669,13921,p,0,0,0
0:38.717,13938,),0,0,0
0:38.761,13954,(,0,0,1
0:38.808,13971,N,0,0,0
0:38.914,14009,),0,0,1
0:38.936,14017,(,0,0,2
0:39.044,14056,t,0,0,0
0:39.133,14088,),0,0,2
0:39.308,14151,(,0,0,0
0:39.353,14167,p,0,0,0
0:39.397,14183,),0,0,0
0:39.450,14202,(,0,0,1
0:39.497,14219,N,0,0,0
0:39.608,14259,),0,0,1
0:39.656,14276,(,0,0,2
0:39.744,14308,t,0,0,0
0:39.842,14343,),0,0,2
0:40.000,14400,(,0,0,0
0:40.042,14415,p,0,0,0
0:40.086,14431,),0,0,0
0:40.133,14448,(,0,0,1
0:40.183,14466,N,0,0,0
0:40.292,14505,),0,0,1
0:40.347,14525,(,0,0,2
0:40.428,14554,t,0,0,0
0:40.525,14589,),0,0,2
0:40.717,14658,(,0,0,0
0:40.764,14675,p,0,0,0
0:40.811,14692,),0,0,0
0:40.861,14710,(,0,0,1
0:40.906,14726,N,0,0,0
0:41.008,14763,),0,0,1
0:41.061,14782,(,0,0,2
0:41.144,14812,t,0,0,0
0:41.239,14846,),0,0,2
0:41.431,14915,(,0,0,0
0:41.472,14930,p,0,0,0
0:41.519,14947,),0,0,0
0:41.558,14961,(,0,0,1
0:41.611,14980,N,0,0,0
0:41.717,15018,),0,0,1
0:41.764,15035,(,0,0,2
0:41.847,15065,t,0,0,0
0:41.944,15100,),0,0,2
0:42.117,15162,(,0,0,0
0:42.156,15176,p,0,0,0
0:42.200,15192,),0,0,0
0:42.236,15205,(,0,0,1
0:42.286,15223,N,0,0,0
0:42.386,15259,),0,0,1
0:42.411,15268,(,0,0,2
0:42.511,15304,t,0,0,0
0:42.594,15334,),0,0,2
0:42.761,15394,(,0,0,0
0:42.803,15409,p,0,0,0
0:42.847,15425,),0,0,0
0:42.892,15441,(,0,0,1
0:42.936,15457,N,0,0,0
0:43.036,15493,),0,0,1
0:43.064,15503,(,0,0,2
0:43.161,15538,t,0,0,0
0:43.256,15572,),0,0,2
0:43.428,15634,(,0,0,0
0:43.469,15649,p,0,0,0
0:43.517,15666,),0,0,0
0:43.564,15683,(,0,0,1
0:43.606,15698,N,0,0,0
0:43.708,15735,),0,0,1
0:43.750,15750,(,0,0,2
0:43.839,15782,t,0,0,0
0:43.933,15816,),0,0,2
0:44.100,15876,(,0,0,0
0:44.142,15891,p,0,0,0
0:44.186,15907,),0,0,0
0:44.231,15923,(,0,0,1
0:44.275,15939,N,0,0,0
0:44.375,15975,),0,0,1
0:44.436,15997,(,0,0,2
0:44.503,16021,t,0,0,0
0:44.594,16054,),0,0,2
0:44.753,16111,(,0,0,0
0:44.794,16126,p,0,0,0
0:44.842,16143,),0,0,0
0:44.878,16156,(,0,0,1
0:44.933,16176,N,0,0,0
0:45.039,16214,),0,0,1
0:45.086,16231,(,0,0,2
0:45.164,16259,t,0,0,0
0:45.253,16291,),0,0,2
0:45.414,16349,(,0,0,0
0:45.456,16364,p,0,0,0
0:45.500,16380,),0,0,0
0:45.539,16394,(,0,0,1
0:45.597,16415,N,0,0,0
0:45.706,16454,),0,0,1
0:45.750,16470,(,0,0,2
0:45.842,16503,t,0,0,0
0:45.939,16538,),0,0,2
0:46.114,16601,(,0,0,0
0:46.158,16617,p,0,0,0
0:46.206,16634,),0,0,0
0:46.242,16647,(,0,0,1
0:46.300,16668,N,0,0,0
0:46.406,16706,),0,0,1
0:46.461,16726,(,0,0,2
0:46.547,16757,t,0,0,0
0:46.653,16795,),0,0,2
0:46.833,16860,(,0,0,0
0:46.875,16875,p,0,0,0
0:46.922,16892,),0,0,0
0:46.972,16910,(,0,0,1
0:47.011,16924,N,0,0,0
0:47.114,16961,),0,0,1
0:47.158,16977,(,0,0,2
0:47.247,17009,t,0,0,0
0:47.339,17042,),0,0,2
0:47.494,17098,(,0,0,0
0:47.539,17114,p,0,0,0
0:47.583,17130,),0,0,0
0:47.628,17146,(,0,0,1
0:47.681,17165,N,0,0,0
0:47.783,17202,),0,0,1
0:47.825,17217,(,0,0,2
0:47.911,17248,t,0,0,0
0:48.006,17282,),0,0,2
0:48.189,17348,(,0,0,0
0:48.236,17365,p,0,0,0
0:48.281,17381,),0,0,0
0:48.328,17398,(,0,0,1
0:48.372,17414,N,0,0,0
0:48.472,17450,),0,0,1
0:48.528,17470,(,0,0,2
0:48.606,17498,t,0,0,0
0:48.703,17533,),0,0,2
0:48.886,17599,(,0,0,0
0:48.928,17614,p,0,0,0
0:48.969,17629,),0,0,0
0:49.011,17644,(,0,0,1
0:49.056,17660,N,0,0,0
0:49.153,17695,),0,0,1
0:49.194,17710,(,0,0,2
0:49.281,17741,t,0,0,0
0:49.372,17774,),0,0,2
0:49.544,17836,(,0,0,0
0:49.586,17851,p,0,0,0
0:49.628,17866,),0,0,0
0:49.667,17880,(,0,0,1
0:49.717,17898,N,0,0,0
0:49.814,17933,),0,0,1
0:49.856,17948,(,0,0,2
0:49.939,17978,t,0,0,0
0:50.031,18011,),0,0,2
0:50.156,18056,(,0,0,0
0:50.194,18070,p,0,0,0
0:50.239,18086,),0,0,0
0:50.283,18102,(,0,0,1
0:50.325,18117,N,0,0,0
0:50.428,18154,),0,0,1
0:50.461,18166,(,0,0,2
0:50.553,18199,t,0,0,0
0:50.642,18231,),0,0,2
0:50.775,18279,(,0,0,0
0:50.817,18294,p,0,0,0
0:50.864,18311,),0,0,0
0:50.914,18329,(,0,0,1
0:50.958,18345,N,0,0,0
0:51.061,18382,),0,0,1
0:51.119,18403,(,0,0,2
0:51.200,18432,t,0,0,0
0:51.300,18468,),0,0,2
0:51.447,18521,(,0,0,0
0:51.494,18538,p,0,0,0
0:51.539,18554,),0,0,0
0:51.594,18574,(,0,0,1
0:51.639,18590,N,0,0,0
0:51.747,18629,),0,0,1
0:51.808,18651,(,0,0,2
0:51.886,18679,t,0,0,0
0:51.989,18716,),0,0,2
0:52.139,18770,(,0,0,0
0:52.181,18785,p,0,0,0
0:52.225,18801,),0,0,0
0:52.275,18819,(,0,0,1
0:52.322,18836,N,0,0,0
0:52.428,18874,),0,0,1
0:52.464,18887,(,0,0,2
0:52.564,18923,t,0,0,0
0:52.661,18958,),0,0,2
0:52.808,19011,(,0,0,0
0:52.850,19026,p,0,0,0
0:52.897,19043,),0,0,0
0:52.944,19060,(,0,0,1
0:52.997,19079,N,0,0,0
0:53.106,19118,),0,0,1
0:53.158,19137,(,0,0,2
0:53.236,19165,t,0,0,0
0:53.325,19197,),0,0,2
0:53.433,19236,(,0,0,0
0:53.475,19251,p,0,0,0
0:53.522,19268,),0,0,0
0:53.569,19285,(,0,0,1
0:53.614,19301,N,0,0,0
0:53.725,19341,),0,0,1
0:53.764,19355,(,0,0,2
0:53.853,19387,t,0,0,0
0:53.942,19419,),0,0,2
0:54.033,19452,(,0,0,0
0:54.075,19467,p,0,0,0
0:54.119,19483,),0,0,0
0:54.164,19499,(,0,0,1
0:54.208,19515,N,0,0,0
0:54.308,19551,),0,0,1
0:54.350,19566,(,0,0,2
0:54.433,19596,t,0,0,0
0:54.528,19630,),0,0,2
0:54.622,19664,(,0,0,0
0:54.664,19679,p,0,0,0
0:54.714,19697,),0,0,0
0:54.758,19713,(,0,0,1
0:54.803,19729,N,0,0,0
0:54.900,19764,),0,0,1
0:54.939,19778,(,0,0,2
0:55.017,19806,t,0,0,0
0:55.103,19837,),0,0,2
0:55.197,19871,(,0,0,0
0:55.239,19886,p,0,0,0
0:55.281,19901,),0,0,0
0:55.317,19914,(,0,0,1
0:55.375,19935,N,0,0,0
0:55.478,19972,),0,0,1
0:55.517,19986,(,0,0,2
0:55.603,20017,t,0,0,0
0:55.694,20050,),0,0,2
0:55.794,20086,(,0,0,0
0:55.833,20100,p,0,0,0
0:55.881,20117,),0,0,0
0:55.928,20134,(,0,0,1
0:55.969,20149,N,0,0,0
0:56.069,20185,),0,0,1
0:56.119,20203,(,0,0,2
0:56.200,20232,t,0,0,0
0:56.297,20267,),0,0,2
0:56.442,20319,(,0,0,0
0:56.486,20335,p,0,0,0
0:56.531,20351,),0,0,0
0:56.583,20370,(,0,0,1
0:56.628,20386,N,0,0,0
0:56.728,20422,),0,0,1
0:56.775,20439,(,0,0,2
0:56.858,20469,t,0,0,0
0:56.950,20502,),0,0,2
0:57.117,20562,(,0,0,0
0:57.161,20578,p,0,0,0
0:57.206,20594,),0,0,0
0:57.253,20611,(,0,0,1
0:57.300,20628,N,0,0,0
0:57.403,20665,),0,0,1
0:57.433,20676,(,0,0,2
0:57.544,20716,t,0,0,0
0:57.644,20752,),0,0,2
0:57.808,20811,(,0,0,0
0:57.856,20828,p,0,0,0
0:57.900,20844,),0,0,0
0:57.950,20862,(,0,0,1
0:57.997,20879,N,0,0,0
0:58.103,20917,),0,0,1
0:58.164,20939,(,0,0,2
0:58.239,20966,t,0,0,0
0:58.331,20999,),0,0,2
0:58.481,21053,(,0,0,0
0:58.525,21069,p,0,0,0
0:58.569,21085,),0,0,0
0:58.617,21102,(,0,0,1
0:58.667,21120,N,0,0,0
0:58.778,21160,),0,0,1
0:58.825,21177,(,0,0,2
0:58.911,21208,t,0,0,0
0:59.000,21240,),0,0,2
0:59.153,21295,(,0,0,0
0:59.197,21311,p,0,0,0
0:59.242,21327,),0,0,0
0:59.294,21346,(,0,0,1
0:59.342,21363,N,0,0,0
0:59.447,21401,),0,0,1
0:59.500,21420,(,0,0,2
0:59.583,21450,t,0,0,0
0:59.678,21484,),0,0,2
0:59.822,21536,(,0,0,0
0:59.867,21552,p,0,0,0
0:59.914,21569,),0,0,0
0:59.956,21584,(,0,0,1
1:00.006,21602,N,0,0,0
1:00.106,21638,),0,0,1
1:00.150,21654,(,0,0,2
1:00.233,21684,t,0,0,0
1:00.319,21715,),0,0,2
1:00.456,21764,(,0,0,0
1:00.497,21779,p,0,0,0
1:00.544,21796,),0,0,0
1:00.594,21814,(,0,0,1
1:00.636,21829,N,0,0,0
1:00.739,21866,),0,0,1
1:00.783,21882,(,0,0,2
1:00.867,21912,t,0,0,0
1:00.956,21944,),0,0,2
1:01.081,21989,(,0,0,0
1:01.114,22001,p,0,0,0
1:01.156,22016,),0,0,0
1:01.200,22032,(,0,0,1
1:01.242,22047,N,0,0,0
1:01.342,22083,),0,0,1
1:01.372,22094,(,0,0,2
1:01.461,22126,t,0,0,0
1:01.550,22158,),0,0,2
1:01.658,22197,(,0,0,0
1:01.708,22215,p,0,0,0
1:01.753,22231,),0,0,0
1:01.789,22244,(,0,0,1
1:01.842,22263,N,0,0,0
1:01.867,22272,),0,0,1
1:01.886,22279,(,0,0,2
1:02.058,22341,t,0,0,0
1:02.153,22375,),0,0,2
1:02.317,22434,(,0,0,0
1:02.358,22449,p,0,0,0
1:02.397,22463,),0,0,0
1:02.456,22484,(,0,0,1
1:02.494,22498,N,0,0,0
1:02.600,22536,),0,0,1
1:02.653,22555,(,0,0,2
1:02.731,22583,t,0,0,0
1:02.814,22613,),0,0,2
1:03.039,22694,(,0,0,0
1:03.086,22711,p,0,0,0
1:03.131,22727,),0,0,0
1:03.178,22744,(,0,0,1
1:03.222,22760,N,0,0,0
1:03.264,22775,),0,0,1
1:03.350,22806,(,0,0,2
1:03.456,22844,t,0,0,0
1:03.539,22874,),0,0,2
1:03.769,22957,(,0,0,0
1:03.814,22973,p,0,0,0
1:03.858,22989,),0,0,0
1:03.911,23008,(,0,0,1
1:03.956,23024,N,0,0,0
1:03.981,23033,),0,0,1
1:04.103,23077,(,0,0,2
1:04.186,23107,t,0,0,0
1:04.278,23140,),0,0,2
1:04.461,23206,(,0,0,0
1:04.506,23222,p,0,0,0
1:04.553,23239,),0,0,0
1:04.600,23256,(,0,0,1
1:04.653,23275,N,0,0,0
1:04.678,23284,),0,0,1
1:04.722,23300,(,0,0,2
1:04.883,23358,t,0,0,5
1:04.983,23394,t,0,0,5
1:05.056,23420,),0,0,2
1:05.147,23453,(,0,0,0
1:05.192,23469,p,0,0,0
1:05.236,23485,),0,0,0
1:05.289,23504,(,0,0,1
1:05.333,23520,N,0,0,0
1:05.367,23532,),0,0,1
1:05.475,23571,(,0,0,2
1:05.564,23603,t,0,0,0
1:05.642,23631,),0,0,2
1:05.847,23705,(,0,0,0
1:05.892,23721,p,0,0,0
1:05.939,23738,),0,0,0
1:05.983,23754,(,0,0,1
1:06.025,23769,N,0,0,0
1:06.050,23778,),0,0,1
1:06.161,23818,(,0,0,2
1:06.242,23847,t,0,0,0
1:06.314,23873,),0,0,2
1:06.522,23948,(,0,0,0
1:06.567,23964,p,0,0,0
1:06.611,23980,),0,0,0
1:06.653,23995,(,0,0,1
1:06.700,24012,N,0,0,0
1:06.733,24024,),0,0,1
1:06.831,24059,(,0,0,2
1:06.917,24090,t,0,0,0
1:06.994,24118,),0,0,2
1:07.192,24189,(,0,0,0
1:07.236,24205,p,0,0,0
1:07.281,24221,),0,0,0
1:07.317,24234,(,0,0,1
1:07.372,24254,N,0,0,0
1:07.397,24263,),0,0,1
1:07.458,24285,(,0,0,2
1:07.592,24333,t,0,0,0
1:07.669,24361,),0,0,2
1:07.847,24425,(,0,0,0
1:07.886,24439,p,0,0,0
1:07.931,24455,),0,0,0
1:07.972,24470,(,0,0,1
1:08.019,24487,N,0,0,0
1:08.044,24496,),0,0,1
1:08.128,24526,(,0,0,2
1:08.239,24566,t,0,0,5
1:08.333,24600,t,0,0,5
1:08.408,24627,),0,0,2
1:08.478,24652,(,0,0,0
1:08.522,24668,p,0,0,0
1:08.564,24683,),0,0,0
1:08.614,24701,(,0,0,1
1:08.661,24718,N,0,0,0
1:08.700,24732,),0,0,1
1:08.783,24762,(,0,0,2
1:08.881,24797,t,0,0,0
1:08.964,24827,),0,0,2
1:09.164,24899,(,0,0,0
1:09.211,24916,p,0,0,0
1:09.256,24932,),0,0,0
1:09.300,24948,(,0,0,1
1:09.350,24966,N,0,0,0
1:09.383,24978,),0,0,1
1:09.425,24993,(,0,0,2
1:09.581,25049,t,0,0,0
1:09.661,25078,),0,0,2
1:09.900,25164,(,0,0,0
1:09.942,25179,p,0,0,0
1:09.986,25195,),0,0,0
1:10.033,25212,(,0,0,1
1:10.083,25230,N,0,0,0
1:10.125,25245,),0,0,1
1:10.211,25276,(,0,0,2
1:10.317,25314,t,0,0,0
1:10.400,25344,),0,0,2
1:10.592,25413,(,0,0,0
1:10.639,25430,p,0,0,0
1:10.681,25445,),0,0,0
1:10.728,25462,(,0,0,1
1:10.781,25481,N,0,0,0
1:10.806,25490,),0,0,1
1:10.878,25516,(,0,0,2
1:11.006,25562,t,0,0,5
1:11.094,25594,t,0,0,5
1:11.156,25616,),0,0,2
1:11.272,25658,(,0,0,0
1:11.317,25674,p,0,0,0
1:11.367,25692,),0,0,0
1:11.414,25709,(,0,0,1
1:11.458,25725,N,0,0,0
1:11.483,25734,),0,0,1
1:11.586,25771,(,0,0,2
1:11.689,25808,t,0,0,0
1:11.769,25837,),0,0,2
1:11.975,25911,(,0,0,0
1:12.022,25928,p,0,0,0
1:12.064,25943,),0,0,0
1:12.111,25960,(,0,0,1
1:12.156,25976,N,0,0,0
1:12.181,25985,),0,0,1
1:12.281,26021,(,0,0,2
1:12.375,26055,t,0,0,0
1:12.461,26086,),0,0,2
1:12.664,26159,(,0,0,0
1:12.706,26174,p,0,0,0
1:12.750,26190,),0,0,0
1:12.794,26206,(,0,0,1
1:12.839,26222,N,0,0,0
1:12.864,26231,),0,0,1
1:12.981,26273,(,0,0,2
1:13.050,26298,t,0,0,0
1:13.119,26323,),0,0,2
1:13.294,26386,(,0,0,0
1:13.347,26405,p,0,0,0
1:13.392,26421,),0,0,0
1:13.428,26434,(,0,0,1
1:13.478,26452,N,0,0,0
1:13.517,26466,),0,0,1
1:13.614,26501,(,0,0,2
1:13.689,26528,t,0,0,0
1:13.769,26557,),0,0,2
1:13.964,26627,(,0,0,0
1:14.006,26642,p,0,0,0
1:14.050,26658,),0,0,0
1:14.097,26675,(,0,0,1
1:14.139,26690,N,0,0,0
1:14.172,26702,),0,0,1
1:14.275,26739,(,0,0,2
1:14.353,26767,t,0,0,0
1:14.436,26797,),0,0,2
1:14.644,26872,(,0,0,0
1:14.692,26889,p,0,0,0
1:14.742,26907,),0,0,0
1:14.783,26922,(,0,0,1
1:14.833,26940,N,0,0,0
1:14.872,26954,),0,0,1
1:15.006,27002,(,0,0,2
1:15.058,27021,t,0,0,0
1:15.147,27053,),0,0,2
1:15.331,27119,(,0,0,0
1:15.375,27135,p,0,0,0
1:15.419,27151,),0,0,0
1:15.464,27167,(,0,0,1
1:15.519,27187,N,0,0,0
1:15.561,27202,),0,0,1
1:15.681,27245,(,0,0,2
1:15.756,27272,t,0,0,5
1:15.858,27309,t,0,0,5
1:15.967,27348,),0,0,2
1:16.019,27367,(,0,0,0
1:16.067,27384,p,0,0,0
1:16.111,27400,),0,0,0
1:16.156,27416,(,0,0,1
1:16.206,27434,N,0,0,0
1:16.231,27443,),0,0,1
1:16.361,27490,(,0,0,2
1:16.433,27516,t,0,0,0
1:16.531,27551,),0,0,2
1:16.722,27620,(,0,0,0
1:16.769,27637,p,0,0,0
1:16.814,27653,),0,0,0
1:16.858,27669,(,0,0,1
1:16.917,27690,N,0,0,0
1:16.950,27702,),0,0,1
1:17.078,27748,(,0,0,2
1:17.150,27774,t,0,0,0
1:17.228,27802,),0,0,2
1:17.425,27873,(,0,0,0
1:17.467,27888,p,0,0,0
1:17.514,27905,),0,0,0
1:17.556,27920,(,0,0,1
1:17.606,27938,N,0,0,0
1:17.631,27947,),0,0,1
1:17.731,27983,(,0,0,2
1:17.822,28016,t,0,0,0
1:17.917,28050,),0,0,2
1:18.094,28114,(,0,0,0
1:18.139,28130,p,0,0,0
1:18.183,28146,),0,0,0
1:18.228,28162,(,0,0,1
1:18.269,28177,N,0,0,0
1:18.294,28186,),0,0,1
1:18.403,28225,(,0,0,2
1:18.489,28256,t,0,0,0
1:18.564,28283,),0,0,2
1:18.753,28351,(,0,0,0
1:18.797,28367,p,0,0,0
1:18.836,28381,),0,0,0
1:18.883,28398,(,0,0,1
1:18.928,28414,N,0,0,0
1:18.953,28423,),0,0,1
1:18.997,28439,(,0,0,2
1:19.142,28491,t,0,0,0
1:19.217,28518,),0,0,2
1:19.400,28584,(,0,0,0
1:19.444,28600,p,0,0,0
1:19.489,28616,),0,0,0
1:19.536,28633,(,0,0,1
1:19.583,28650,N,0,0,0
1:19.614,28661,),0,0,1
1:19.722,28700,(,0,0,2
1:19.800,28728,t,0,0,0
1:19.878,28756,),0,0,2
1:20.058,28821,(,0,0,0
1:20.097,28835,p,0,0,0
1:20.144,28852,),0,0,0
1:20.186,28867,(,0,0,1
1:20.233,28884,N,0,0,0
1:20.272,28898,),0,0,1
1:20.367,28932,(,0,0,2
1:20.453,28963,t,0,0,0
1:20.536,28993,),0,0,2
1:20.703,29053,(,0,0,0
1:20.747,29069,p,0,0,0
1:20.792,29085,),0,0,0
1:20.839,29102,(,0,0,1
1:20.886,29119,N,0,0,0
1:20.928,29134,),0,0,1
1:21.011,29164,(,0,0,2
1:21.106,29198,t,0,0,0
1:21.192,29229,),0,0,2
1:21.342,29283,(,0,0,0
1:21.386,29299,p,0,0,0
1:21.431,29315,),0,0,0
1:21.475,29331,(,0,0,1
1:21.528,29350,N,0,0,0
1:21.578,29368,),0,0,1
1:21.647,29393,(,0,0,2
1:21.758,29433,t,0,0,0
1:21.839,29462,),0,0,2
1:22.011,29524,(,0,0,0
1:22.050,29538,p,0,0,0
1:22.097,29555,),0,0,0
1:22.147,29573,(,0,0,1
1:22.194,29590,N,0,0,0
1:22.233,29604,),0,0,1
1:22.339,29642,(,0,0,2
1:22.417,29670,t,0,0,0
1:22.500,29700,),0,0,2
1:22.672,29762,(,0,0,0
1:22.717,29778,p,0,0,0
1:22.764,29795,),0,0,0
1:22.817,29814,(,0,0,1
1:22.861,29830,N,0,0,0
1:22.900,29844,),0,0,1
1:23.000,29880,(,0,0,2
1:23.092,29913,t,0,0,0
1:23.175,29943,),0,0,2
1:23.361,30010,(,0,0,0
1:23.408,30027,p,0,0,0
1:23.456,30044,),0,0,0
1:23.508,30063,(,0,0,1
1:23.553,30079,N,0,0,0
1:23.578,30088,),0,0,1
1:23.683,30126,(,0,0,2
1:23.783,30162,t,0,0,0
1:23.867,30192,),0,0,2
1:24.031,30251,(,0,0,0
1:24.069,30265,p,0,0,0
1:24.114,30281,),0,0,0
1:24.161,30298,(,0,0,1
1:24.206,30314,N,0,0,0
1:24.231,30323,),0,0,1
1:24.353,30367,(,0,0,2
1:24.417,30390,t,0,0,0
1:24.494,30418,),0,0,2
1:24.664,30479,(,0,0,0
1:24.703,30493,p,0,0,0
1:24.747,30509,),0,0,0
1:24.792,30525,(,0,0,1
1:24.839,30542,N,0,0,0
1:24.869,30553,),0,0,1
1:24.967,30588,(,0,0,2
1:25.053,30619,t,0,0,0
1:25.133,30648,),0,0,2
1:25.303,30709,(,0,0,0
1:25.344,30724,p,0,0,0
1:25.389,30740,),0,0,0
1:25.433,30756,(,0,0,1
1:25.478,30772,N,0,0,0
1:25.500,30780,),0,0,1
1:25.608,30819,(,0,0,2
1:25.686,30847,t,0,0,0
1:25.769,30877,),0,0,2
1:25.919,30931,(,0,0,0
1:25.961,30946,p,0,0,0
1:26.006,30962,),0,0,0
1:26.050,30978,(,0,0,1
1:26.097,30995,N,0,0,0
1:26.122,31004,),0,0,1
1:26.222,31040,(,0,0,2
1:26.311,31072,t,0,0,0
1:26.386,31099,),0,0,2
1:26.547,31157,(,0,0,0
1:26.592,31173,p,0,0,0
1:26.633,31188,),0,0,0
1:26.689,31208,(,0,0,1
1:26.731,31223,N,0,0,0
1:26.767,31236,),0,0,1
1:26.883,31278,(,0,0,2
1:26.958,31305,t,0,0,0
1:27.033,31332,),0,0,2
1:27.214,31397,(,0,0,0
1:27.258,31413,p,0,0,0
1:27.303,31429,),0,0,0
1:27.344,31444,(,0,0,1
1:27.400,31464,N,0,0,0
1:27.433,31476,),0,0,1
1:27.544,31516,(,0,0,2
1:27.633,31548,t,0,0,0
1:27.717,31578,),0,0,2
1:27.919,31651,(,0,0,0
1:27.967,31668,p,0,0,0
1:28.014,31685,),0,0,0
1:28.064,31703,(,0,0,1
1:28.111,31720,N,0,0,0
1:28.136,31729,),0,0,1
1:28.253,31771,(,0,0,2
1:28.342,31803,t,0,0,0
1:28.425,31833,),0,0,2
1:28.614,31901,(,0,0,0
1:28.658,31917,p,0,0,0
1:28.706,31934,),0,0,0
1:28.764,31955,(,0,0,1
1:28.808,31971,N,0,0,0
1:28.833,31980,),0,0,1
1:28.956,32024,(,0,0,2
1:29.042,32055,t,0,0,0
1:29.119,32083,),0,0,2
1:29.267,32136,(,0,0,0
1:29.308,32151,p,0,0,0
1:29.353,32167,),0,0,0
1:29.406,32186,(,0,0,1
1:29.450,32202,N,0,0,0
1:29.475,32211,),0,0,1
1:29.542,32235,(,0,0,2
1:29.675,32283,t,0,0,0
1:29.753,32311,),0,0,2
1:29.894,32362,(,0,0,0
1:29.933,32376,p,0,0,0
1:29.978,32392,),0,0,0
1:30.033,32412,(,0,0,1
1:30.075,32427,N,0,0,0
1:30.097,32435,),0,0,1
1:30.208,32475,(,0,0,2
1:30.286,32503,t,0,0,5
1:30.394,32542,t,0,0,5
1:30.442,32559,),0,0,2
1:30.506,32582,(,0,0,0
1:30.547,32597,p,0,0,0
1:30.592,32613,),0,0,0
1:30.642,32631,(,0,0,1
1:30.683,32646,N,0,0,0
1:30.714,32657,),0,0,1
1:30.806,32690,(,0,0,2
1:30.894,32722,t,0,0,0
1:30.978,32752,),0,0,2
1:31.125,32805,(,0,0,0
1:31.167,32820,p,0,0,0
1:31.214,32837,),0,0,0
1:31.250,32850,(,0,0,1
1:31.303,32869,N,0,0,0
1:31.328,32878,),0,0,1
1:31.431,32915,(,0,0,2
1:31.522,32948,t,0,0,0
1:31.600,32976,),0,0,2
1:31.733,33024,(,0,0,0
1:31.775,33039,p,0,0,0
1:31.817,33054,),0,0,0
1:31.864,33071,(,0,0,1
1:31.911,33088,N,0,0,0
1:31.953,33103,),0,0,1
1:32.042,33135,(,0,0,2
1:32.133,33168,t,0,0,0
1:32.208,33195,),0,0,2
1:32.356,33248,(,0,0,0
1:32.394,33262,p,0,0,0
1:32.439,33278,),0,0,0
1:32.481,33293,(,0,0,1
1:32.533,33312,N,0,0,0
1:32.569,33325,),0,0,1
1:32.667,33360,(,0,0,2
1:32.753,33391,t,0,0,0
1:32.831,33419,),0,0,2
1:32.992,33477,(,0,0,0
1:33.033,33492,p,0,0,0
1:33.078,33508,),0,0,0
1:33.125,33525,(,0,0,1
1:33.178,33544,N,0,0,0
1:33.217,33558,),0,0,1
1:33.300,33588,(,0,0,2
1:33.403,33625,t,0,0,0
1:33.486,33655,),0,0,2
1:33.658,33717,(,0,0,0
1:33.700,33732,p,0,0,0
1:33.742,33747,),0,0,0
1:33.800,33768,(,0,0,1
1:33.844,33784,N,0,0,0
1:33.869,33793,),0,0,1
1:33.967,33828,(,0,0,2
1:34.078,33868,t,0,0,0
1:34.158,33897,),0,0,2
1:34.314,33953,(,0,0,0
1:34.356,33968,p,0,0,0
1:34.400,33984,),0,0,0
1:34.450,34002,(,0,0,1
1:34.494,34018,N,0,0,0
1:34.519,34027,),0,0,1
1:34.611,34060,(,0,0,2
1:34.722,34100,t,0,0,0
1:34.803,34129,),0,0,2
1:34.983,34194,(,0,0,0
1:35.025,34209,p,0,0,0
1:35.069,34225,),0,0,0
1:35.114,34241,(,0,0,1
1:35.169,34261,N,0,0,0
1:35.203,34273,),0,0,1
1:35.311,34312,(,0,0,2
1:35.392,34341,t,0,0,0
1:35.475,34371,),0,0,2
1:35.647,34433,(,0,0,0
1:35.689,34448,p,0,0,0
1:35.733,34464,),0,0,0
1:35.783,34482,(,0,0,1
1:35.831,34499,N,0,0,0
1:35.864,34511,),0,0,1
1:35.978,34552,(,0,0,2
1:36.056,34580,t,0,0,0
1:36.142,34611,),0,0,2
1:36.292,34665,(,0,0,0
1:36.333,34680,p,0,0,0
1:36.378,34696,),0,0,0
1:36.417,34710,(,0,0,1
1:36.469,34729,N,0,0,0
1:36.494,34738,),0,0,1
1:36.594,34774,(,0,0,2
1:36.686,34807,t,0,0,0
1:36.767,34836,),0,0,2
1:36.922,34892,(,0,0,0
1:36.967,34908,p,0,0,0
1:37.008,34923,),0,0,0
1:37.053,34939,(,0,0,1
1:37.103,34957,N,0,0,0
1:37.133,34968,),0,0,1
1:37.231,35003,(,0,0,2
1:37.314,35033,t,0,0,0
1:37.389,35060,),0,0,2
1:37.567,35124,(,0,0,0
1:37.608,35139,p,0,0,0
1:37.653,35155,),0,0,0
1:37.692,35169,(,0,0,1
1:37.744,35188,N,0,0,0
1:37.778,35200,),0,0,1
1:37.886,35239,(,0,0,2
1:37.964,35267,t,0,0,0
1:38.044,35296,),0,0,2
1:38.225,35361,(,0,0,0
1:38.267,35376,p,0,0,0
1:38.311,35392,),0,0,0
1:38.356,35408,(,0,0,1
1:38.403,35425,N,0,0,0
1:38.428,35434,),0,0,1
1:38.544,35476,(,0,0,2
1:38.622,35504,t,0,0,0
1:38.703,35533,),0,0,2
1:38.867,35592,(,0,0,0
1:38.906,35606,p,0,0,0
1:38.953,35623,),0,0,0
1:39.000,35640,(,0,0,1
1:39.047,35657,N,0,0,0
1:39.072,35666,),0,0,1
1:39.183,35706,(,0,0,2
1:39.278,35740,t,0,0,5
1:39.372,35774,t,0,0,5
1:39.453,35803,),0,0,2
1:39.531,35831,(,0,0,0
1:39.575,35847,p,0,0,0
1:39.619,35863,),0,0,0
1:39.675,35883,(,0,0,1
1:39.719,35899,N,0,0,0
1:39.744,35908,),0,0,1
1:39.878,35956,(,0,0,2
1:39.953,35983,t,0,0,0
1:40.042,36015,),0,0,2
1:40.231,36083,(,0,0,0
1:40.275,36099,p,0,0,0
1:40.322,36116,),0,0,0
1:40.378,36136,(,0,0,1
1:40.422,36152,N,0,0,0
1:40.464,36167,),0,0,1
1:40.547,36197,(,0,0,2
1:40.658,36237,t,0,0,0
1:40.739,36266,),0,0,2
1:41.008,36363,(,0,0,1
1:41.119,36403,N,0,0,0
1:41.158,36417,),0,0,1
1:41.272,36458,(,0,0,2
1:41.356,36488,t,0,0,0
1:41.425,36513,),0,0,2
1:41.567,36564,(,0,0,0
1:41.603,36577,p,0,0,0
1:41.642,36591,),0,0,0
1:41.689,36608,(,0,0,1
1:41.739,36626,N,0,0,0
1:41.775,36639,),0,0,1
1:41.800,36648,(,0,0,2
1:41.964,36707,t,0,0,5
1:42.075,36747,t,0,0,5
1:42.125,36765,),0,0,2
1:42.181,36785,(,0,0,0
1:42.222,36800,p,0,0,0
1:42.264,36815,),0,0,0
1:42.303,36829,(,0,0,1
1:42.361,36850,N,0,0,0
1:42.383,36858,),0,0,1
1:42.494,36898,(,0,0,2
1:42.569,36925,t,0,0,5
1:42.678,36964,t,0,0,5
1:42.753,36991,),0,0,2
1:42.794,37006,(,0,0,0
1:42.836,37021,p,0,0,0
1:42.878,37036,),0,0,0
1:42.922,37052,(,0,0,1
1:42.967,37068,N,0,0,0
1:42.997,37079,),0,0,1
1:43.100,37116,(,0,0,2
1:43.183,37146,t,0,0,0
1:43.267,37176,),0,0,2
1:43.431,37235,(,0,0,0
1:43.469,37249,p,0,0,0
1:43.514,37265,),0,0,0
1:43.561,37282,(,0,0,1
1:43.600,37296,N,0,0,0
1:43.631,37307,),0,0,1
1:43.733,37344,(,0,0,2
1:43.803,37369,t,0,0,5
1:43.900,37404,t,0,0,5
1:43.925,37413,),0,0,2
1:44.089,37472,(,0,0,0
1:44.117,37482,p,0,0,0
1:44.164,37499,),0,0,0
1:44.203,37513,(,0,0,1
1:44.256,37532,N,0,0,0
1:44.281,37541,),0,0,1
1:44.408,37587,(,0,0,2
1:44.486,37615,t,0,0,5
1:44.575,37647,t,0,0,5
1:44.614,37661,),0,0,2
1:44.706,37694,(,0,0,0
1:44.758,37713,p,0,0,0
1:44.794,37726,),0,0,0
1:44.839,37742,(,0,0,1
1:44.897,37763,N,0,0,0
1:44.922,37772,),0,0,1
1:45.061,37822,(,0,0,2
1:45.128,37846,t,0,0,0
1:45.217,37878,),0,0,2
1:45.397,37943,(,0,0,0
1:45.439,37958,p,0,0,0
1:45.478,37972,),0,0,0
1:45.525,37989,(,0,0,1
1:45.583,38010,N,0,0,0
1:45.614,38021,),0,0,1
1:45.733,38064,(,0,0,2
1:45.803,38089,t,0,0,5
1:45.911,38128,t,0,0,5
1:45.950,38142,),0,0,2
1:46.019,38167,(,0,0,0
1:46.061,38182,p,0,0,0
1:46.111,38200,),0,0,0
1:46.175,38223,(,0,0,1
1:46.214,38237,N,0,0,0
1:46.239,38246,),0,0,1
1:46.336,38281,(,0,0,2
1:46.447,38321,t,0,0,0
1:46.522,38348,),0,0,2
1:46.639,38390,(,0,0,0
1:46.683,38406,p,0,0,0
1:46.728,38422,),0,0,0
1:46.775,38439,(,0,0,1
1:46.825,38457,N,0,0,0
1:46.867,38472,),0,0,1
1:46.961,38506,(,0,0,2
1:47.050,38538,t,0,0,5
1:47.156,38576,t,0,0,5
1:47.208,38595,),0,0,2
1:47.258,38613,(,0,0,0
1:47.303,38629,p,0,0,0
1:47.350,38646,),0,0,0
1:47.403,38665,(,0,0,1
1:47.447,38681,N,0,0,0
1:47.547,38717,),0,0,1
1:47.603,38737,(,0,0,2
1:47.681,38765,t,0,0,0
1:47.778,38800,),0,0,2
1:47.883,38838,(,0,0,0
1:47.928,38854,p,0,0,0
1:47.972,38870,),0,0,0
1:48.025,38889,(,0,0,1
1:48.072,38906,N,0,0,0
1:48.186,38947,),0,0,1
1:48.239,38966,(,0,0,2
1:48.308,38991,t,0,0,0
1:48.411,39028,),0,0,2
1:48.517,39066,(,0,0,0
1:48.553,39079,p,0,0,0
1:48.600,39096,),0,0,0
1:48.642,39111,(,0,0,1
1:48.686,39127,N,0,0,0
1:48.786,39163,),0,0,1
1:48.836,39181,(,0,0,2
1:48.917,39210,t,0,0,0
1:49.014,39245,),0,0,2
1:49.125,39285,(,0,0,0
1:49.164,39299,p,0,0,0
1:49.208,39315,),0,0,0
1:49.228,39322,(,0,0,1
1:49.300,39348,N,0,0,0
1:49.408,39387,),0,0,1
1:49.456,39404,(,0,0,2
1:49.533,39432,t,0,0,0
1:49.622,39464,),0,0,2
1:49.736,39505,(,0,0,0
1:49.772,39518,p,0,0,0
1:49.819,39535,),0,0,0
1:49.861,39550,(,0,0,1
1:49.906,39566,N,0,0,0
1:49.994,39598,),0,0,1
1:50.056,39620,(,0,0,2
1:50.119,39643,t,0,0,0
1:50.214,39677,),0,0,2
1:50.394,39742,(,0,0,0
1:50.439,39758,p,0,0,0
1:50.481,39773,),0,0,0
1:50.528,39790,(,0,0,1
1:50.575,39807,N,0,0,0
1:50.675,39843,),0,0,1
1:50.744,39868,(,0,0,2
1:50.811,39892,t,0,0,0
1:50.906,39926,),0,0,2
1:51.131,40007,(,0,0,0
1:51.172,40022,p,0,0,0
1:51.211,40036,),0,0,0
1:51.269,40057,(,0,0,1
1:51.314,40073,N,0,0,0
1:51.347,40085,),0,0,1
1:51.450,40122,(,0,0,2
1:51.550,40158,t,0,0,5
1:51.633,40188,t,0,0,5
1:51.686,40207,),0,0,2
1:51.883,40278,(,0,0,0
1:51.925,40293,p,0,0,0
1:51.969,40309,),0,0,0
1:52.011,40324,(,0,0,1
1:52.067,40344,N,0,0,0
1:52.100,40356,),0,0,1
1:52.214,40397,(,0,0,2
1:52.308,40431,t,0,0,5
1:52.400,40464,t,0,0,5
1:52.472,40490,),0,0,2
1:52.642,40551,(,0,0,0
1:52.692,40569,p,0,0,0
1:52.731,40583,),0,0,0
1:52.783,40602,(,0,0,1
1:52.831,40619,N,0,0,0
1:52.856,40628,),0,0,1
1:52.981,40673,(,0,0,2
1:53.072,40706,t,0,0,5
1:53.189,40748,t,0,0,5
1:53.228,40762,),0,0,2
1:53.378,40816,(,0,0,0
1:53.422,40832,p,0,0,0
1:53.467,40848,),0,0,0
1:53.517,40866,(,0,0,1
1:53.561,40882,N,0,0,0
1:53.597,40895,),0,0,1
1:53.686,40927,(,0,0,2
1:53.786,40963,t,0,0,0
1:53.861,40990,),0,0,2
1:54.039,41054,(,0,0,0
1:54.072,41066,p,0,0,0
1:54.119,41083,),0,0,0
1:54.169,41101,(,0,0,1
1:54.208,41115,N,0,0,0
1:54.233,41124,),0,0,1
1:54.342,41163,(,0,0,2
1:54.433,41196,t,0,0,0
1:54.506,41222,),0,0,2
1:54.650,41274,(,0,0,0
1:54.692,41289,p,0,0,0
1:54.736,41305,),0,0,0
1:54.781,41321,(,0,0,1
1:54.831,41339,N,0,0,0
1:54.856,41348,),0,0,1
1:54.897,41363,(,0,0,2
1:55.053,41419,t,0,0,0
1:55.122,41444,),0,0,2
1:55.253,41491,(,0,0,0
1:55.294,41506,p,0,0,0
1:55.339,41522,),0,0,0
1:55.375,41535,(,0,0,1
1:55.428,41554,N,0,0,0
1:55.458,41565,),0,0,1
1:55.547,41597,(,0,0,2
1:55.633,41628,t,0,0,5
1:55.736,41665,t,0,0,5
1:55.808,41691,),0,0,2
1:55.853,41707,(,0,0,0
1:55.892,41721,p,0,0,0
1:55.942,41739,),0,0,0
1:55.981,41753,(,0,0,1
1:56.031,41771,N,0,0,0
1:56.056,41780,),0,0,1
1:56.167,41820,(,0,0,2
1:56.247,41849,t,0,0,0
1:56.333,41880,),0,0,2
1:56.483,41934,(,0,0,0
1:56.531,41951,p,0,0,0
1:56.583,41970,),0,0,0
1:56.639,41990,(,0,0,1
1:56.681,42005,N,0,0,0
1:56.706,42014,),0,0,1
1:56.797,42047,(,0,0,2
1:56.919,42091,t,0,0,0
1:56.997,42119,),0,0,2
1:57.200,42192,(,0,0,0
1:57.258,42213,p,0,0,0
1:57.306,42230,),0,0,0
1:57.356,42248,(,0,0,1
1:57.414,42269,N,0,0,0
1:57.444,42280,),0,0,1
1:57.578,42328,(,0,0,2
1:57.667,42360,t,0,0,0
1:57.747,42389,),0,0,2
1:57.953,42463,(,0,0,0
1:58.000,42480,p,0,0,0
1:58.044,42496,),0,0,0
1:58.078,42508,(,0,0,1
1:58.131,42527,N,0,0,0
1:58.169,42541,),0,0,1
1:58.275,42579,(,0,0,2
1:58.353,42607,t,0,0,0
1:58.439,42638,),0,0,2
1:58.636,42709,(,0,0,0
1:58.692,42729,p,0,0,0
1:58.736,42745,),0,0,0
1:58.792,42765,(,0,0,1
1:58.869,42793,N,0,0,0
1:58.897,42803,),0,0,1
1:59.008,42843,(,0,0,2
1:59.122,42884,t,0,0,0
1:59.200,42912,),0,0,2
1:59.336,42961,(,0,0,0
1:59.378,42976,p,0,0,0
1:59.419,42991,),0,0,0
1:59.461,43006,(,0,0,1
1:59.511,43024,N,0,0,0
1:59.539,43034,),0,0,1
1:59.583,43050,(,0,0,2
1:59.742,43107,t,0,0,0
1:59.814,43133,),0,0,2
1:59.967,43188,(,0,0,0
2:00.006,43202,p,0,0,0
2:00.050,43218,),0,0,0
2:00.094,43234,(,0,0,1
2:00.139,43250,N,0,0,0
2:00.169,43261,),0,0,1
2:00.267,43296,(,0,0,2
2:00.350,43326,t,0,0,0
2:00.433,43356,),0,0,2
2:00.603,43417,(,0,0,0
2:00.642,43431,p,0,0,0
2:00.686,43447,),0,0,0
2:00.728,43462,(,0,0,1
2:00.778,43480,N,0,0,0
2:00.811,43492,),0,0,1
2:00.881,43517,(,0,0,2
2:00.989,43556,t,0,0,0
2:01.075,43587,),0,0,2
2:01.231,43643,(,0,0,0
2:01.272,43658,p,0,0,0
2:01.314,43673,),0,0,0
2:01.364,43691,(,0,0,1
2:01.408,43707,N,0,0,0
2:01.433,43716,),0,0,1
2:01.519,43747,(,0,0,2
2:01.625,43785,t,0,0,5
2:01.731,43823,t,0,0,5
2:01.786,43843,),0,0,2
2:01.869,43873,(,0,0,0
2:01.908,43887,p,0,0,0
2:01.950,43902,),0,0,0
2:01.972,43910,(,0,0,1
2:02.047,43937,N,0,0,0
2:02.072,43946,),0,0,1
2:02.183,43986,(,0,0,2
2:02.281,44021,t,0,0,5
2:02.414,44069,t,0,0,5
2:02.486,44095,),0,0,2
2:02.575,44127,(,0,0,0
2:02.617,44142,p,0,0,0
2:02.664,44159,),0,0,0
2:02.722,44180,(,0,0,1
2:02.764,44195,N,0,0,0
2:02.789,44204,),0,0,1
2:02.900,44244,(,0,0,2
2:02.967,44268,t,0,0,0
2:03.050,44298,),0,0,2
2:03.208,44355,(,0,0,0
2:03.264,44375,p,0,0,0
2:03.314,44393,),0,0,0
2:03.333,44400,(,0,0,1
2:03.403,44425,N,0,0,0
2:03.447,44441,),0,0,1
2:03.544,44476,(,0,0,2
2:03.639,44510,t,0,0,0
2:03.708,44535,),0,0,2
2:03.911,44608,(,0,0,0
2:03.956,44624,p,0,0,0
2:04.000,44640,),0,0,0
2:04.056,44660,(,0,0,1
2:04.103,44677,N,0,0,0
2:04.131,44687,),0,0,1
2:04.261,44734,(,0,0,2
2:04.347,44765,t,0,0,5
2:04.442,44799,t,0,0,5
2:04.522,44828,),0,0,2
2:04.589,44852,(,0,0,0
2:04.642,44871,p,0,0,0
2:04.689,44888,),0,0,0
2:04.750,44910,(,0,0,1
2:04.800,44928,N,0,0,0
2:04.839,44942,),0,0,1
2:04.953,44983,(,0,0,2
2:05.031,45011,t,0,0,0
2:05.111,45040,),0,0,2
2:05.281,45101,(,0,0,0
2:05.322,45116,p,0,0,0
2:05.369,45133,),0,0,0
2:05.422,45152,(,0,0,1
2:05.464,45167,N,0,0,0
2:05.503,45181,),0,0,1
2:05.578,45208,(,0,0,2
2:05.683,45246,t,0,0,0
2:05.761,45274,),0,0,2
2:05.936,45337,(,0,0,0
2:05.983,45354,p,0,0,0
2:06.031,45371,),0,0,0
2:06.069,45385,(,0,0,1
2:06.122,45404,N,0,0,0
2:06.156,45416,),0,0,1
2:06.256,45452,(,0,0,2
2:06.331,45479,t,0,0,5
2:06.439,45518,t,0,0,5
2:06.483,45534,),0,0,2
2:06.556,45560,(,0,0,0
2:06.597,45575,p,0,0,0
2:06.644,45592,),0,0,0
2:06.692,45609,(,0,0,1
2:06.739,45626,N,0,0,0
2:06.781,45641,),0,0,1
2:06.850,45666,(,0,0,2
2:06.947,45701,t,0,0,5
2:07.031,45731,t,0,0,5
2:07.117,45762,),0,0,2
2:07.156,45776,(,0,0,0
2:07.203,45793,p,0,0,0
2:07.247,45809,),0,0,0
2:07.289,45824,(,0,0,1
2:07.342,45843,N,0,0,0
2:07.375,45855,),0,0,1
2:07.483,45894,(,0,0,2
2:07.553,45919,t,0,0,0
2:07.633,45948,),0,0,2
2:07.775,45999,(,0,0,0
2:07.819,46015,p,0,0,0
2:07.864,46031,),0,0,0
2:07.906,46046,(,0,0,1
2:07.950,46062,N,0,0,0
2:07.981,46073,),0,0,1
2:08.075,46107,(,0,0,2
2:08.164,46139,t,0,0,5
2:08.264,46175,t,0,0,5
2:08.333,46200,),0,0,2
2:08.419,46231,(,0,0,0
2:08.461,46246,p,0,0,0
2:08.508,46263,),0,0,0
2:08.550,46278,(,0,0,1
2:08.603,46297,N,0,0,0
2:08.628,46306,),0,0,1
2:08.742,46347,(,0,0,2
2:08.825,46377,t,0,0,0
2:08.908,46407,),0,0,2
2:09.075,46467,(,0,0,0
2:09.122,46484,p,0,0,0
2:09.169,46501,),0,0,0
2:09.222,46520,(,0,0,1
2:09.267,46536,N,0,0,0
2:09.292,46545,),0,0,1
2:09.336,46561,(,0,0,2
2:09.503,46621,t,0,0,5
2:09.589,46652,t,0,0,5
2:09.686,46687,),0,0,2
2:09.744,46708,(,0,0,0
2:09.789,46724,p,0,0,0
2:09.836,46741,),0,0,0
2:09.886,46759,(,0,0,1
2:09.931,46775,N,0,0,0
2:09.964,46787,),0,0,1
2:10.083,46830,(,0,0,2
2:10.156,46856,t,0,0,0
2:10.239,46886,),0,0,2
2:10.403,46945,(,0,0,0
2:10.447,46961,p,0,0,0
2:10.492,46977,),0,0,0
2:10.547,46997,(,0,0,1
2:10.592,47013,N,0,0,0
2:10.633,47028,),0,0,1
2:10.733,47064,(,0,0,2
2:10.819,47095,t,0,0,5
2:10.944,47140,t,0,0,5
2:10.997,47159,),0,0,2
2:11.053,47179,(,0,0,0
2:11.094,47194,p,0,0,0
2:11.139,47210,),0,0,0
2:11.186,47227,(,0,0,1
2:11.239,47246,N,0,0,0
2:11.264,47255,),0,0,1
2:11.375,47295,(,0,0,2
2:11.461,47326,t,0,0,0
2:11.544,47356,),0,0,2
2:11.675,47403,(,0,0,0
2:11.714,47417,p,0,0,0
2:11.756,47432,),0,0,0
2:11.772,47438,(,0,0,1
2:11.814,47453,N,0,0,0
2:11.842,47463,),0,0,1
2:11.917,47490,(,0,0,2
2:12.033,47532,t,0,0,0
2:12.117,47562,),0,0,2
2:12.250,47610,(,0,0,0
2:12.294,47626,p,0,0,0
2:12.339,47642,),0,0,0
2:12.381,47657,(,0,0,1
2:12.431,47675,N,0,0,0
2:12.458,47685,),0,0,1
2:12.561,47722,(,0,0,2
2:12.650,47754,t,0,0,0
2:12.736,47785,),0,0,2
2:12.908,47847,(,0,0,0
2:12.953,47863,p,0,0,0
2:12.997,47879,),0,0,0
2:13.033,47892,(,0,0,1
2:13.089,47912,N,0,0,0
2:13.114,47921,),0,0,1
2:13.225,47961,(,0,0,2
2:13.308,47991,t,0,0,0
2:13.378,48016,),0,0,2
2:13.600,48096,(,0,0,0
2:13.642,48111,p,0,0,0
2:13.686,48127,),0,0,0
2:13.733,48144,(,0,0,1
2:13.778,48160,N,0,0,0
2:13.803,48169,),0,0,1
2:13.914,48209,(,0,0,2
2:14.003,48241,t,0,0,0
2:14.075,48267,),0,0,2
2:14.269,48337,(,0,0,0
2:14.311,48352,p,0,0,0
2:14.353,48367,),0,0,0
2:14.400,48384,(,0,0,1
2:14.444,48400,N,0,0,0
2:14.469,48409,),0,0,1
2:14.567,48444,(,0,0,2
2:14.672,48482,t,0,0,5
2:14.781,48521,t,0,0,5
2:14.819,48535,),0,0,2
2:14.947,48581,(,0,0,0
2:14.992,48597,p,0,0,0
2:15.036,48613,),0,0,0
2:15.078,48628,(,0,0,1
2:15.125,48645,N,0,0,0
2:15.150,48654,),0,0,1
2:15.256,48692,(,0,0,2
2:15.353,48727,t,0,0,0
2:15.433,48756,),0,0,2
2:15.614,48821,(,0,0,0
2:15.661,48838,p,0,0,0
2:15.711,48856,),0,0,0
2:15.764,48875,(,0,0,1
2:15.808,48891,N,0,0,0
2:15.833,48900,),0,0,1
2:15.936,48937,(,0,0,2
2:16.036,48973,t,0,0,0
2:16.119,49003,),0,0,2
2:16.281,49061,(,0,0,0
2:16.325,49077,p,0,0,0
2:16.369,49093,),0,0,0
2:16.417,49110,(,0,0,1
2:16.469,49129,N,0,0,0
2:16.494,49138,),0,0,1
2:16.589,49172,(,0,0,2
2:16.706,49214,t,0,0,0
2:16.786,49243,),0,0,2
2:16.939,49298,(,0,0,0
2:16.983,49314,p,0,0,0
2:17.031,49331,),0,0,0
2:17.072,49346,(,0,0,1
2:17.125,49365,N,0,0,0
2:17.164,49379,),0,0,1
2:17.269,49417,(,0,0,2
2:17.356,49448,t,0,0,0
2:17.442,49479,),0,0,2
2:17.575,49527,(,0,0,0
2:17.619,49543,p,0,0,0
2:17.667,49560,),0,0,0
2:17.719,49579,(,0,0,1
2:17.761,49594,N,0,0,0
2:17.783,49602,),0,0,1
2:17.872,49634,(,0,0,2
2:17.978,49672,t,0,0,0
2:18.061,49702,),0,0,2
2:18.181,49745,(,0,0,0
2:18.219,49759,p,0,0,0
2:18.267,49776,),0,0,0
2:18.311,49792,(,0,0,1
2:18.358,49809,N,0,0,0
2:18.383,49818,),0,0,1
2:18.481,49853,(,0,0,2
2:18.575,49887,t,0,0,0
2:18.653,49915,),0,0,2
2:18.778,49960,(,0,0,0
2:18.819,49975,p,0,0,0
2:18.864,49991,),0,0,0
2:18.903,50005,(,0,0,1
2:18.950,50022,N,0,0,0
2:18.975,50031,),0,0,1
2:19.064,50063,(,0,0,2
2:19.164,50099,t,0,0,0
2:19.233,50124,),0,0,2
2:19.372,50174,(,0,0,0
2:19.411,50188,p,0,0,0
2:19.456,50204,),0,0,0
2:19.503,50221,(,0,0,1
2:19.547,50237,N,0,0,0
2:19.569,50245,),0,0,1
2:19.686,50287,(,0,0,2
2:19.761,50314,t,0,0,0
2:19.839,50342,),0,0,2
2:20.008,50403,(,0,0,0
2:20.047,50417,p,0,0,0
2:20.092,50433,),0,0,0
2:20.131,50447,(,0,0,1
2:20.189,50468,N,0,0,0
2:20.211,50476,),0,0,1
2:20.317,50514,(,0,0,2
2:20.408,50547,t,0,0,0
2:20.492,50577,),0,0,2
2:20.700,50652,(,0,0,0
2:20.742,50667,p,0,0,0
2:20.786,50683,),0,0,0
2:20.833,50700,(,0,0,1
2:20.881,50717,N,0,0,0
2:20.906,50726,),0,0,1
2:21.019,50767,(,0,0,2
2:21.103,50797,t,0,0,5
2:21.222,50840,t,0,0,5
2:21.292,50865,),0,0,2
2:21.367,50892,(,0,0,0
2:21.414,50909,p,0,0,0
2:21.458,50925,),0,0,0
2:21.503,50941,(,0,0,1
2:21.558,50961,N,0,0,0
2:21.583,50970,),0,0,1
2:21.658,50997,(,0,0,2
2:21.792,51045,t,0,0,0
2:21.872,51074,),0,0,2
2:22.053,51139,(,0,0,0
2:22.094,51154,p,0,0,0
2:22.142,51171,),0,0,0
2:22.186,51187,(,0,0,1
2:22.233,51204,N,0,0,0
2:22.272,51218,),0,0,1
2:22.378,51256,(,0,0,2
2:22.461,51286,t,0,0,5
2:22.594,51334,t,0,0,5
2:22.658,51357,),0,0,2
2:22.728,51382,(,0,0,0
2:22.772,51398,p,0,0,0
2:22.817,51414,),0,0,0
2:22.856,51428,(,0,0,1
2:22.914,51449,N,0,0,0
2:22.953,51463,),0,0,1
2:23.047,51497,(,0,0,2
2:23.133,51528,t,0,0,0
2:23.228,51562,),0,0,2
2:23.403,51625,(,0,0,0
2:23.447,51641,p,0,0,0
2:23.492,51657,),0,0,0
2:23.547,51677,(,0,0,1
2:23.592,51693,N,0,0,0
2:23.633,51708,),0,0,1
2:23.728,51742,(,0,0,2
2:23.817,51774,t,0,0,0
2:23.892,51801,),0,0,2
2:24.050,51858,(,0,0,0
2:24.092,51873,p,0,0,0
2:24.133,51888,),0,0,0
2:24.169,51901,(,0,0,1
2:24.225,51921,N,0,0,0
2:24.250,51930,),0,0,1
2:24.369,51973,(,0,0,2
2:24.444,52000,t,0,0,0
2:24.525,52029,),0,0,2
2:24.694,52090,(,0,0,0
2:24.736,52105,p,0,0,0
2:24.781,52121,),0,0,0
2:24.828,52138,(,0,0,1
2:24.869,52153,N,0,0,0
2:24.908,52167,),0,0,1
2:25.003,52201,(,0,0,2
2:25.083,52230,t,0,0,0
2:25.161,52258,),0,0,2
2:25.344,52324,(,0,0,0
2:25.392,52341,p,0,0,0
2:25.436,52357,),0,0,0
2:25.486,52375,(,0,0,1
2:25.531,52391,N,0,0,0
2:25.567,52404,),0,0,1
2:25.669,52441,(,0,0,2
2:25.739,52466,t,0,0,5
2:25.850,52506,t,0,0,5
2:25.892,52521,),0,0,2
2:25.961,52546,(,0,0,0
2:26.000,52560,p,0,0,0
2:26.044,52576,),0,0,0
2:26.094,52594,(,0,0,1
2:26.136,52609,N,0,0,0
2:26.178,52624,),0,0,1
2:26.258,52653,(,0,0,2
2:26.356,52688,t,0,0,5
2:26.444,52720,t,0,0,5
2:26.531,52751,),0,0,2
2:26.572,52766,(,0,0,0
2:26.617,52782,p,0,0,0
2:26.658,52797,),0,0,0
2:26.711,52816,(,0,0,1
2:26.753,52831,N,0,0,0
2:26.792,52845,),0,0,1
2:26.894,52882,(,0,0,2
2:26.972,52910,t,0,0,0
2:27.056,52940,),0,0,2
2:27.200,52992,(,0,0,0
2:27.242,53007,p,0,0,0
2:27.289,53024,),0,0,0
2:27.342,53043,(,0,0,1
2:27.389,53060,N,0,0,0
2:27.428,53074,),0,0,1
2:27.536,53113,(,0,0,2
2:27.614,53141,t,0,0,0
2:27.708,53175,),0,0,2
2:27.856,53228,(,0,0,0
2:27.897,53243,p,0,0,0
2:27.944,53260,),0,0,0
2:28.000,53280,(,0,0,1
2:28.050,53298,N,0,0,0
2:28.089,53312,),0,0,1
2:28.175,53343,(,0,0,2
2:28.275,53379,t,0,0,0
2:28.367,53412,),0,0,2
2:28.506,53462,(,0,0,0
2:28.550,53478,p,0,0,0
2:28.594,53494,),0,0,0
2:28.650,53514,(,0,0,1
2:28.700,53532,N,0,0,0
2:28.725,53541,),0,0,1
2:28.828,53578,(,0,0,2
2:28.933,53616,t,0,0,0
2:29.006,53642,),0,0,2
2:29.136,53689,(,0,0,0
2:29.181,53705,p,0,0,0
2:29.228,53722,),0,0,0
2:29.275,53739,(,0,0,1
2:29.322,53756,N,0,0,0
2:29.350,53766,),0,0,1
2:29.469,53809,(,0,0,2
2:29.550,53838,t,0,0,5
2:29.653,53875,t,0,0,5
2:29.711,53896,),0,0,2
2:29.772,53918,(,0,0,0
2:29.814,53933,p,0,0,0
2:29.861,53950,),0,0,0
2:29.908,53967,(,0,0,1
2:29.956,53984,N,0,0,0
2:29.994,53998,),0,0,1
2:30.078,54028,(,0,0,2
2:30.169,54061,t,0,0,0
2:30.250,54090,),0,0,2
2:30.372,54134,(,0,0,0
2:30.414,54149,p,0,0,0
2:30.464,54167,),0,0,0
2:30.511,54184,(,0,0,1
2:30.556,54200,N,0,0,0
2:30.581,54209,),0,0,1
2:30.683,54246,(,0,0,2
2:30.761,54274,t,0,0,5
2:30.867,54312,t,0,0,5
2:30.883,54318,),0,0,2
2:30.981,54353,(,0,0,0
2:31.011,54364,p,0,0,0
2:31.050,54378,),0,0,0
2:31.086,54391,(,0,0,1
2:31.142,54411,N,0,0,0
2:31.167,54420,),0,0,1
2:31.189,54428,(,0,0,2
2:31.364,54491,t,0,0,0
2:31.425,54513,),0,0,2
2:31.547,54557,(,0,0,0
2:31.597,54575,p,0,0,0
2:31.644,54592,),0,0,0
2:31.686,54607,(,0,0,1
2:31.728,54622,N,0,0,0
2:31.825,54657,),0,0,1
2:31.872,54674,(,0,0,2
2:31.944,54700,t,0,0,0
2:32.031,54731,),0,0,2
2:32.161,54778,(,0,0,0
2:32.208,54795,p,0,0,0
2:32.244,54808,),0,0,0
2:32.303,54829,(,0,0,1
2:32.344,54844,N,0,0,0
2:32.444,54880,),0,0,1
2:32.494,54898,(,0,0,2
2:32.581,54929,t,0,0,0
2:32.678,54964,),0,0,2
2:32.794,55006,(,0,0,0
2:32.839,55022,p,0,0,0
2:32.886,55039,),0,0,0
2:32.939,55058,(,0,0,1
2:32.981,55073,N,0,0,0
2:33.089,55112,),0,0,1
2:33.144,55132,(,0,0,2
2:33.225,55161,t,0,0,0
2:33.317,55194,),0,0,2
2:33.431,55235,(,0,0,0
2:33.472,55250,p,0,0,0
2:33.517,55266,),0,0,0
2:33.572,55286,(,0,0,1
2:33.617,55302,N,0,0,0
2:33.728,55342,),0,0,1
2:33.764,55355,(,0,0,2
2:33.856,55388,t,0,0,0
2:33.939,55418,),0,0,2
2:34.039,55454,(,0,0,0
2:34.086,55471,p,0,0,0
2:34.131,55487,),0,0,0
2:34.192,55509,(,0,0,1
2:34.228,55522,N,0,0,0
2:34.336,55561,),0,0,1
2:34.375,55575,(,0,0,2
2:34.467,55608,t,0,0,0
2:34.564,55643,),0,0,2
2:34.653,55675,(,0,0,0
2:34.694,55690,p,0,0,0
2:34.744,55708,),0,0,0
2:34.783,55722,(,0,0,1
2:34.839,55742,N,0,0,0
2:34.947,55781,),0,0,1
2:34.983,55794,(,0,0,2
2:35.078,55828,t,0,0,0
2:35.169,55861,),0,0,2
2:35.258,55893,(,0,0,0
2:35.303,55909,p,0,0,0
2:35.353,55927,),0,0,0
2:35.408,55947,(,0,0,1
2:35.447,55961,N,0,0,0
2:35.556,56000,),0,0,1
2:35.589,56012,(,0,0,2
2:35.686,56047,t,0,0,0
2:35.772,56078,),0,0,2
2:35.856,56108,(,0,0,0
2:35.897,56123,p,0,0,0
2:35.944,56140,),0,0,0
2:35.992,56157,(,0,0,1
2:36.039,56174,N,0,0,0
2:36.142,56211,),0,0,1
2:36.175,56223,(,0,0,2
2:36.267,56256,t,0,0,0
2:36.356,56288,),0,0,2
2:36.436,56317,(,0,0,0
2:36.483,56334,p,0,0,0
2:36.525,56349,),0,0,0
2:36.564,56363,(,0,0,1
2:36.617,56382,N,0,0,0
2:36.717,56418,),0,0,1
2:36.736,56425,(,0,0,2
2:36.842,56463,t,0,0,0
2:36.939,56498,),0,0,2
2:37.008,56523,(,0,0,0
2:37.044,56536,p,0,0,0
2:37.092,56553,),0,0,0
2:37.133,56568,(,0,0,1
2:37.181,56585,N,0,0,0
2:37.278,56620,),0,0,1
2:37.317,56634,(,0,0,2
2:37.403,56665,t,0,0,0
2:37.486,56695,),0,0,2
2:37.575,56727,(,0,0,0
2:37.614,56741,p,0,0,0
2:37.661,56758,),0,0,0
2:37.706,56774,(,0,0,1
2:37.750,56790,N,0,0,0
2:37.850,56826,),0,0,1
2:37.881,56837,(,0,0,2
2:37.972,56870,t,0,0,0
2:38.061,56902,),0,0,2
2:38.122,56924,(,0,0,0
2:38.161,56938,p,0,0,0
2:38.206,56954,),0,0,0
2:38.247,56969,(,0,0,1
2:38.294,56986,N,0,0,0
2:38.397,57023,),0,0,1
2:38.419,57031,(,0,0,2
2:38.522,57068,t,0,0,0
2:38.608,57099,),0,0,2
2:38.669,57121,(,0,0,0
2:38.717,57138,p,0,0,0
2:38.761,57154,),0,0,0
2:38.806,57170,(,0,0,1
2:38.853,57187,N,0,0,0
2:38.956,57224,),0,0,1
2:38.981,57233,(,0,0,2
2:39.081,57269,t,0,0,0
2:39.178,57304,),0,0,2
2:39.239,57326,(,0,0,0
2:39.283,57342,p,0,0,0
2:39.336,57361,),0,0,0
2:39.381,57377,(,0,0,1
2:39.433,57396,N,0,0,0
2:39.544,57436,),0,0,1
2:39.581,57449,(,0,0,2
2:39.672,57482,t,0,0,0
2:39.758,57513,),0,0,2
2:39.831,57539,(,0,0,0
2:39.881,57557,p,0,0,0
2:39.928,57574,),0,0,0
2:39.978,57592,(,0,0,1
2:40.025,57609,N,0,0,0
2:40.133,57648,),0,0,1
2:40.161,57658,(,0,0,2
2:40.267,57696,t,0,0,0
2:40.369,57733,),0,0,2
2:40.458,57765,(,0,0,0
2:40.500,57780,p,0,0,0
2:40.553,57799,),0,0,0
2:40.600,57816,(,0,0,1
2:40.647,57833,N,0,0,0
2:40.753,57871,),0,0,1
2:40.789,57884,(,0,0,2
2:40.886,57919,t,0,0,0
2:40.975,57951,),0,0,2
2:41.086,57991,(,0,0,0
2:41.125,58005,p,0,0,0
2:41.167,58020,),0,0,0
2:41.217,58038,(,0,0,1
2:41.275,58059,N,0,0,0
2:41.381,58097,),0,0,1
2:41.450,58122,(,0,0,2
2:41.514,58145,t,0,0,0
2:41.614,58181,),0,0,2
2:41.708,58215,(,0,0,0
2:41.747,58229,p,0,0,0
2:41.794,58246,),0,0,0
2:41.842,58263,(,0,0,1
2:41.939,58298,N,0,0,0
2:41.986,58315,),0,0,1
2:42.031,58331,(,0,0,2
2:42.114,58361,t,0,0,0
2:42.214,58397,),0,0,2
2:42.294,58426,(,0,0,0
2:42.336,58441,p,0,0,0
2:42.378,58456,),0,0,0
2:42.422,58472,(,0,0,1
2:42.525,58509,N,0,0,0
2:42.572,58526,),0,0,1
2:42.603,58537,(,0,0,2
2:42.694,58570,t,0,0,0
2:42.781,58601,),0,0,2
2:42.864,58631,(,0,0,0
2:42.911,58648,p,0,0,0
2:42.953,58663,),0,0,0
2:42.994,58678,(,0,0,1
2:43.042,58695,N,0,0,0
2:43.136,58729,),0,0,1
2:43.175,58743,(,0,0,2
2:43.256,58772,t,0,0,0
2:43.347,58805,),0,0,2
2:43.467,58848,(,0,0,0
2:43.506,58862,p,0,0,0
2:43.550,58878,),0,0,0
2:43.589,58892,(,0,0,1
2:43.692,58929,N,0,0,0
2:43.739,58946,),0,0,1
2:43.769,58957,(,0,0,2
2:43.861,58990,t,0,0,0
2:43.947,59021,),0,0,2
2:44.078,59068,(,0,0,0
2:44.117,59082,p,0,0,0
2:44.164,59099,),0,0,0
2:44.208,59115,(,0,0,1
2:44.258,59133,N,0,0,0
2:44.364,59171,),0,0,1
2:44.383,59178,(,0,0,2
2:44.492,59217,t,0,0,0
2:44.586,59251,),0,0,2
2:44.717,59298,(,0,0,0
2:44.758,59313,p,0,0,0
2:44.803,59329,),0,0,0
2:44.853,59347,(,0,0,1
2:44.956,59384,N,0,0,0
2:45.000,59400,),0,0,1
2:45.033,59412,(,0,0,2
2:45.131,59447,t,0,0,0
2:45.219,59479,),0,0,2
2:45.328,59518,(,0,0,0
2:45.375,59535,p,0,0,0
2:45.422,59552,),0,0,0
2:45.467,59568,(,0,0,1
2:45.581,59609,N,0,0,0
2:45.633,59628,),0,0,1
2:45.686,59647,(,0,0,2
2:45.764,59675,t,0,0,0
2:45.853,59707,),0,0,2
2:45.956,59744,(,0,0,0
2:45.997,59759,p,0,0,0
2:46.042,59775,),0,0,0
2:46.078,59788,(,0,0,1
2:46.133,59808,N,0,0,0
2:46.236,59845,),0,0,1
2:46.269,59857,(,0,0,2
2:46.369,59893,t,0,0,0
2:46.467,59928,),0,0,2
2:46.578,59968,(,0,0,0
2:46.619,59983,p,0,0,0
2:46.667,60000,),0,0,0
2:46.714,60017,(,0,0,1
2:46.814,60053,N,0,0,0
2:46.867,60072,),0,0,1
2:46.894,60082,(,0,0,2
2:46.997,60119,t,0,0,0
2:47.092,60153,),0,0,2
2:47.208,60195,(,0,0,0
2:47.253,60211,p,0,0,0
2:47.300,60228,),0,0,0
2:47.347,60245,(,0,0,1
2:47.400,60264,N,0,0,0
2:47.503,60301,),0,0,1
2:47.539,60314,(,0,0,2
2:47.633,60348,t,0,0,0
2:47.719,60379,),0,0,2
2:47.825,60417,(,0,0,0
2:47.867,60432,p,0,0,0
2:47.908,60447,),0,0,0
2:47.953,60463,(,0,0,1
2:48.000,60480,N,0,0,0
2:48.103,60517,),0,0,1
2:48.131,60527,(,0,0,2
2:48.231,60563,t,0,0,0
2:48.317,60594,),0,0,2
2:48.428,60634,(,0,0,0
2:48.464,60647,p,0,0,0
2:48.508,60663,),0,0,0
2:48.556,60680,(,0,0,1
2:48.658,60717,N,0,0,0
2:48.703,60733,),0,0,1
2:48.750,60750,(,0,0,2
2:48.822,60776,t,0,0,0
2:48.911,60808,),0,0,2
2:49.014,60845,(,0,0,0
2:49.056,60860,p,0,0,0
2:49.097,60875,),0,0,0
2:49.131,60887,(,0,0,1
2:49.189,60908,N,0,0,0
2:49.292,60945,),0,0,1
2:49.328,60958,(,0,0,2
2:49.414,60989,t,0,0,0
2:49.508,61023,),0,0,2
2:49.611,61060,(,0,0,0
2:49.650,61074,p,0,0,0
2:49.692,61089,),0,0,0
2:49.739,61106,(,0,0,1
2:49.831,61139,N,0,0,0
2:49.878,61156,),0,0,1
2:49.919,61171,(,0,0,2
2:50.000,61200,t,0,0,0
2:50.089,61232,),0,0,2
2:50.217,61278,(,0,0,0
2:50.256,61292,p,0,0,0
2:50.300,61308,),0,0,0
2:50.339,61322,(,0,0,1
2:50.392,61341,N,0,0,0
2:50.489,61376,),0,0,1
2:50.511,61384,(,0,0,2
2:50.617,61422,t,0,0,0
2:50.708,61455,),0,0,2
2:50.833,61500,(,0,0,0
2:50.875,61515,p,0,0,0
2:50.919,61531,),0,0,0
2:50.964,61547,(,0,0,1
2:51.064,61583,N,0,0,0
2:51.117,61602,),0,0,1
2:51.144,61612,(,0,0,2
2:51.242,61647,t,0,0,0
2:51.336,61681,),0,0,2
2:51.467,61728,(,0,0,0
2:51.508,61743,p,0,0,0
2:51.558,61761,),0,0,0
2:51.611,61780,(,0,0,1
2:51.717,61818,N,0,0,0
2:51.764,61835,),0,0,1
2:51.806,61850,(,0,0,2
2:51.900,61884,t,0,0,0
2:51.997,61919,),0,0,2
2:52.117,61962,(,0,0,0
2:52.158,61977,p,0,0,0
2:52.203,61993,),0,0,0
2:52.247,62009,(,0,0,1
2:52.361,62050,N,0,0,0
2:52.411,62068,),0,0,1
2:52.439,62078,(,0,0,2
2:52.547,62117,t,0,0,0
2:52.642,62151,),0,0,2
2:52.772,62198,(,0,0,0
2:52.814,62213,p,0,0,0
2:52.861,62230,),0,0,0
2:52.908,62247,(,0,0,1
2:52.956,62264,N,0,0,0
2:53.058,62301,),0,0,1
2:53.089,62312,(,0,0,2
2:53.189,62348,t,0,0,0
2:53.283,62382,),0,0,2
2:53.397,62423,(,0,0,0
2:53.442,62439,p,0,0,0
2:53.489,62456,),0,0,0
2:53.536,62473,(,0,0,1
2:53.639,62510,N,0,0,0
2:53.686,62527,),0,0,1
2:53.722,62540,(,0,0,2
2:53.811,62572,t,0,0,0
2:53.906,62606,),0,0,2
2:54.025,62649,(,0,0,0
2:54.064,62663,p,0,0,0
2:54.108,62679,),0,0,0
2:54.144,62692,(,0,0,1
2:54.253,62731,N,0,0,0
2:54.297,62747,),0,0,1
2:54.339,62762,(,0,0,2
2:54.425,62793,t,0,0,0
2:54.514,62825,),0,0,2
2:54.636,62869,(,0,0,0
2:54.672,62882,p,0,0,0
2:54.714,62897,),0,0,0
2:54.753,62911,(,0,0,1
2:54.856,62948,N,0,0,0
2:54.903,62965,),0,0,1
2:54.925,62973,(,0,0,2
2:55.025,63009,t,0,0,0
2:55.108,63039,),0,0,2
2:55.239,63086,(,0,0,0
2:55.278,63100,p,0,0,0
2:55.322,63116,),0,0,0
2:55.367,63132,(,0,0,1
2:55.467,63168,N,0,0,0
2:55.514,63185,),0,0,1
2:55.558,63201,(,0,0,2
2:55.633,63228,t,0,0,0
2:55.719,63259,),0,0,2
2:55.847,63305,(,0,0,0
2:55.886,63319,p,0,0,0
2:55.928,63334,),0,0,0
2:55.972,63350,(,0,0,1
2:56.022,63368,N,0,0,0
2:56.125,63405,),0,0,1
2:56.161,63418,(,0,0,2
2:56.256,63452,t,0,0,0
2:56.350,63486,),0,0,2
2:56.481,63533,(,0,0,0
2:56.522,63548,p,0,0,0
2:56.567,63564,),0,0,0
2:56.611,63580,(,0,0,1
2:56.719,63619,N,0,0,0
2:56.761,63634,),0,0,1
2:56.800,63648,(,0,0,2
2:56.894,63682,t,0,0,0
2:56.986,63715,),0,0,2
2:57.106,63758,(,0,0,0
2:57.150,63774,p,0,0,0
2:57.200,63792,),0,0,0
2:57.239,63806,(,0,0,1
2:57.353,63847,N,0,0,0
2:57.406,63866,),0,0,1
2:57.433,63876,(,0,0,2
2:57.536,63913,t,0,0,0
2:57.625,63945,),0,0,2
2:57.756,63992,(,0,0,0
2:57.794,64006,p,0,0,0
2:57.842,64023,),0,0,0
2:57.892,64041,(,0,0,1
2:57.936,64057,N,0,0,0
2:58.044,64096,),0,0,1
2:58.100,64116,(,0,0,2
2:58.181,64145,t,0,0,0
2:58.269,64177,),0,0,2
2:58.414,64229,(,0,0,0
2:58.458,64245,p,0,0,0
2:58.503,64261,),0,0,0
2:58.544,64276,(,0,0,1
2:58.600,64296,N,0,0,0
2:58.708,64335,),0,0,1
2:58.753,64351,(,0,0,2
2:58.839,64382,t,0,0,5
2:58.953,64423,t,0,0,5
2:59.014,64445,),0,0,2
2:59.056,64460,(,0,0,0
2:59.097,64475,p,0,0,0
2:59.142,64491,),0,0,0
2:59.197,64511,(,0,0,1
2:59.300,64548,N,0,0,0
2:59.344,64564,),0,0,1
2:59.378,64576,(,0,0,2
2:59.475,64611,t,0,0,0
2:59.564,64643,),0,0,2
2:59.681,64685,(,0,0,0
2:59.725,64701,p,0,0,0
2:59.769,64717,),0,0,0
2:59.814,64733,(,0,0,1
2:59.919,64771,N,0,0,0
2:59.967,64788,),0,0,1
3:00.003,64801,(,0,0,2
3:00.094,64834,t,0,0,0
3:00.183,64866,),0,0,2
3:00.303,64909,(,0,0,0
3:00.347,64925,p,0,0,0
3:00.389,64940,),0,0,0
3:00.433,64956,(,0,0,1
3:00.483,64974,N,0,0,0
3:00.583,65010,),0,0,1
3:00.622,65024,(,0,0,2
3:00.711,65056,t,0,0,0
3:00.797,65087,),0,0,2
3:00.917,65130,(,0,0,0
3:00.953,65143,p,0,0,0
3:00.997,65159,),0,0,0
3:01.039,65174,(,0,0,1
3:01.139,65210,N,0,0,0
3:01.183,65226,),0,0,1
3:01.214,65237,(,0,0,2
3:01.308,65271,t,0,0,0
3:01.397,65303,),0,0,2
3:01.517,65346,(,0,0,0
3:01.553,65359,p,0,0,0
3:01.594,65374,),0,0,0
3:01.636,65389,(,0,0,1
3:01.739,65426,N,0,0,0
3:01.783,65442,),0,0,1
3:01.811,65452,(,0,0,2
3:01.903,65485,t,0,0,0
3:01.989,65516,),0,0,2
3:02.089,65552,(,0,0,0
3:02.128,65566,p,0,0,0
3:02.172,65582,),0,0,0
3:02.222,65600,(,0,0,1
3:02.317,65634,N,0,0,0
3:02.367,65652,),0,0,1
3:02.408,65667,(,0,0,2
3:02.492,65697,t,0,0,0
3:02.578,65728,),0,0,2
3:02.700,65772,(,0,0,0
3:02.742,65787,p,0,0,0
3:02.789,65804,),0,0,0
3:02.833,65820,(,0,0,1
3:02.936,65857,N,0,0,0
3:02.983,65874,),0,0,1
3:03.014,65885,(,0,0,2
3:03.117,65922,t,0,0,0
3:03.208,65955,),0,0,2
3:03.364,66011,(,0,0,0
3:03.406,66026,p,0,0,0
3:03.450,66042,),0,0,0
3:03.500,66060,(,0,0,1
3:03.606,66098,N,0,0,0
3:03.653,66115,),0,0,1
3:03.681,66125,(,0,0,2
3:03.783,66162,t,0,0,0
3:03.875,66195,),0,0,2
3:04.028,66250,(,0,0,0
3:04.072,66266,p,0,0,0
3:04.117,66282,),0,0,0
3:04.164,66299,(,0,0,1
3:04.278,66340,N,0,0,0
3:04.328,66358,),0,0,1
3:04.369,66373,(,0,0,2
3:04.464,66407,t,0,0,0
3:04.550,66438,),0,0,2
3:04.686,66487,(,0,0,0
3:04.725,66501,p,0,0,0
3:04.772,66518,),0,0,0
3:04.819,66535,(,0,0,1
3:04.931,66575,N,0,0,0
3:04.978,66592,),0,0,1
3:05.006,66602,(,0,0,2
3:05.111,66640,t,0,0,0
3:05.203,66673,),0,0,2
3:05.328,66718,(,0,0,0
3:05.372,66734,p,0,0,0
3:05.422,66752,),0,0,0
3:05.472,66770,(,0,0,1
3:05.575,66807,N,0,0,0
3:05.622,66824,),0,0,1
3:05.656,66836,(,0,0,2
3:05.747,66869,t,0,0,0
3:05.839,66902,),0,0,2
3:05.967,66948,(,0,0,0
3:06.008,66963,p,0,0,0
3:06.053,66979,),0,0,0
3:06.094,66994,(,0,0,1
3:06.194,67030,N,0,0,0
3:06.247,67049,),0,0,1
3:06.275,67059,(,0,0,2
3:06.369,67093,t,0,0,0
3:06.464,67127,),0,0,2
3:06.578,67168,(,0,0,0
3:06.617,67182,p,0,0,0
3:06.658,67197,),0,0,0
3:06.703,67213,(,0,0,1
3:06.806,67250,N,0,0,0
3:06.853,67267,),0,0,1
3:06.872,67274,(,0,0,2
3:06.967,67308,t,0,0,0
3:07.056,67340,),0,0,2
3:07.178,67384,(,0,0,0
3:07.219,67399,p,0,0,0
3:07.261,67414,),0,0,0
3:07.300,67428,(,0,0,1
3:07.403,67465,N,0,0,0
3:07.447,67481,),0,0,1
3:07.486,67495,(,0,0,2
3:07.572,67526,t,0,0,0
3:07.661,67558,),0,0,2
3:07.817,67614,(,0,0,0
3:07.861,67630,p,0,0,0
3:07.908,67647,),0,0,0
3:07.950,67662,(,0,0,1
3:08.053,67699,N,0,0,0
3:08.100,67716,),0,0,1
3:08.139,67730,(,0,0,2
3:08.228,67762,t,0,0,0
3:08.319,67795,),0,0,2
3:08.506,67862,(,0,0,0
3:08.547,67877,p,0,0,0
3:08.594,67894,),0,0,0
3:08.644,67912,(,0,0,1
3:08.747,67949,N,0,0,0
3:08.789,67964,),0,0,1
3:08.831,67979,(,0,0,2
3:08.919,68011,t,0,0,0
3:09.008,68043,),0,0,2
3:09.183,68106,(,0,0,0
3:09.228,68122,p,0,0,0
3:09.275,68139,),0,0,0
3:09.322,68156,(,0,0,1
3:09.431,68195,N,0,0,0
3:09.483,68214,),0,0,1
3:09.525,68229,(,0,0,2
3:09.617,68262,t,0,0,0
3:09.706,68294,),0,0,2
3:09.861,68350,(,0,0,0
3:09.900,68364,p,0,0,0
3:09.944,68380,),0,0,0
3:09.989,68396,(,0,0,1
3:10.100,68436,N,0,0,0
3:10.147,68453,),0,0,1
3:10.175,68463,(,0,0,2
3:10.275,68499,t,0,0,0
3:10.367,68532,),0,0,2
3:10.539,68594,(,0,0,0
3:10.581,68609,p,0,0,0
3:10.628,68626,),0,0,0
3:10.675,68643,(,0,0,1
3:10.781,68681,N,0,0,0
3:10.831,68699,),0,0,1
3:10.853,68707,(,0,0,2
3:10.964,68747,t,0,0,0
3:11.061,68782,),0,0,2
3:11.228,68842,(,0,0,0
3:11.269,68857,p,0,0,0
3:11.317,68874,),0,0,0
3:11.361,68890,(,0,0,1
3:11.467,68928,N,0,0,0
3:11.522,68948,),0,0,1
3:11.569,68965,(,0,0,2
3:11.647,68993,t,0,0,0
3:11.747,69029,),0,0,2
3:11.897,69083,(,0,0,0
3:11.936,69097,p,0,0,0
3:11.981,69113,),0,0,0
3:12.028,69130,(,0,0,1
3:12.128,69166,N,0,0,0
3:12.172,69182,),0,0,1
3:12.211,69196,(,0,0,2
3:12.300,69228,t,0,0,0
3:12.389,69260,),0,0,2
3:12.556,69320,(,0,0,0
3:12.600,69336,p,0,0,0
3:12.644,69352,),0,0,0
3:12.697,69371,(,0,0,1
3:12.794,69406,N,0,0,0
3:12.836,69421,),0,0,1
3:12.875,69435,(,0,0,2
3:12.961,69466,t,0,0,0
3:13.053,69499,),0,0,2
3:13.242,69567,(,0,0,0
3:13.286,69583,p,0,0,0
3:13.333,69600,),0,0,0
3:13.381,69617,(,0,0,1
3:13.481,69653,N,0,0,0
3:13.525,69669,),0,0,1
3:13.575,69687,(,0,0,2
3:13.647,69713,t,0,0,0
3:13.742,69747,),0,0,2
3:13.906,69806,(,0,0,0
3:13.944,69820,p,0,0,0
3:13.989,69836,),0,0,0
3:14.039,69854,(,0,0,1
3:14.136,69889,N,0,0,0
3:14.178,69904,),0,0,1
3:14.228,69922,(,0,0,2
3:14.303,69949,t,0,0,0
3:14.394,69982,),0,0,2
3:14.556,70040,(,0,0,0
3:14.597,70055,p,0,0,0
3:14.636,70069,),0,0,0
3:14.678,70084,(,0,0,1
3:14.789,70124,N,0,0,0
3:14.836,70141,),0,0,1
3:14.872,70154,(,0,0,2
3:14.961,70186,t,0,0,0
3:15.058,70221,),0,0,2
3:15.239,70286,(,0,0,0
3:15.281,70301,p,0,0,0
3:15.325,70317,),0,0,0
3:15.372,70334,(,0,0,1
3:15.483,70374,N,0,0,0
3:15.533,70392,),0,0,1
3:15.569,70405,(,0,0,2
3:15.669,70441,t,0,0,0
3:15.767,70476,),0,0,2
3:15.936,70537,(,0,0,0
3:15.978,70552,p,0,0,0
3:16.031,70571,),0,0,0
3:16.081,70589,(,0,0,1
3:16.189,70628,N,0,0,0
3:16.233,70644,),0,0,1
3:16.283,70662,(,0,0,2
3:16.369,70693,t,0,0,0
3:16.469,70729,),0,0,2
3:16.625,70785,(,0,0,0
3:16.667,70800,p,0,0,0
3:16.714,70817,),0,0,0
3:16.767,70836,(,0,0,1
3:16.875,70875,N,0,0,0
3:16.919,70891,),0,0,1
3:16.956,70904,(,0,0,2
3:17.053,70939,t,0,0,0
3:17.142,70971,),0,0,2
3:17.308,71031,(,0,0,0
3:17.353,71047,p,0,0,0
3:17.397,71063,),0,0,0
3:17.442,71079,(,0,0,1
3:17.553,71119,N,0,0,0
3:17.600,71136,),0,0,1
3:17.653,71155,(,0,0,2
3:17.733,71184,t,0,0,0
3:17.831,71219,),0,0,2
3:17.994,71278,(,0,0,0
3:18.036,71293,p,0,0,0
3:18.081,71309,),0,0,0
3:18.125,71325,(,0,0,1
3:18.225,71361,N,0,0,0
3:18.267,71376,),0,0,1
3:18.306,71390,(,0,0,2
3:18.386,71419,t,0,0,0
3:18.481,71453,),0,0,2
3:18.658,71517,(,0,0,0
3:18.700,71532,p,0,0,0
3:18.744,71548,),0,0,0
3:18.786,71563,(,0,0,1
3:18.889,71600,N,0,0,0
3:18.933,71616,),0,0,1
3:18.969,71629,(,0,0,2
3:19.053,71659,t,0,0,0
3:19.142,71691,),0,0,2
3:19.292,71745,(,0,0,0
3:19.339,71762,p,0,0,0
3:19.378,71776,),0,0,0
3:19.431,71795,(,0,0,1
3:19.531,71831,N,0,0,0
3:19.581,71849,),0,0,1
3:19.622,71864,(,0,0,2
3:19.697,71891,t,0,0,0
3:19.792,71925,),0,0,2
3:19.947,71981,(,0,0,0
3:19.989,71996,p,0,0,0
3:20.036,72013,),0,0,0
3:20.081,72029,(,0,0,1
3:20.181,72065,N,0,0,0
3:20.225,72081,),0,0,1
3:20.267,72096,(,0,0,2
3:20.353,72127,t,0,0,0
3:20.444,72160,),0,0,2
3:20.606,72218,(,0,0,0
3:20.644,72232,p,0,0,0
3:20.689,72248,),0,0,0
3:20.725,72261,(,0,0,1
3:20.842,72303,N,0,0,0
3:20.883,72318,),0,0,1
3:20.911,72328,(,0,0,2
3:21.014,72365,t,0,0,0
3:21.111,72400,),0,0,2
3:21.253,72451,(,0,0,0
3:21.294,72466,p,0,0,0
3:21.342,72483,),0,0,0
3:21.386,72499,(,0,0,1
3:21.500,72540,N,0,0,0
3:21.553,72559,),0,0,1
3:21.586,72571,(,0,0,2
3:21.683,72606,t,0,0,0
3:21.769,72637,),0,0,2
3:21.928,72694,(,0,0,0
3:21.969,72709,p,0,0,0
3:22.017,72726,),0,0,0
3:22.056,72740,(,0,0,1
3:22.172,72782,N,0,0,0
3:22.233,72804,),0,0,1
3:22.250,72810,(,0,0,2
3:22.356,72848,t,0,0,0
3:22.458,72885,),0,0,2
3:22.611,72940,(,0,0,0
3:22.661,72958,p,0,0,0
3:22.711,72976,),0,0,0
3:22.753,72991,(,0,0,1
3:22.867,73032,N,0,0,0
3:22.922,73052,),0,0,1
3:22.947,73061,(,0,0,2
3:23.039,73094,t,0,0,0
3:23.139,73130,),0,0,2
3:23.297,73187,(,0,0,0
3:23.339,73202,p,0,0,0
3:23.392,73221,),0,0,0
3:23.431,73235,(,0,0,1
3:23.539,73274,N,0,0,0
3:23.597,73295,),0,0,1
3:23.619,73303,(,0,0,2
3:23.714,73337,t,0,0,0
3:23.811,73372,),0,0,2
3:23.961,73426,(,0,0,0
3:24.003,73441,p,0,0,0
3:24.053,73459,),0,0,0
3:24.083,73470,(,0,0,1
3:24.200,73512,N,0,0,0
3:24.250,73530,),0,0,1
3:24.278,73540,(,0,0,2
3:24.372,73574,t,0,0,0
3:24.461,73606,),0,0,2
3:24.592,73653,(,0,0,0
3:24.642,73671,p,0,0,0
3:24.694,73690,),0,0,0
3:24.728,73702,(,0,0,1
3:24.836,73741,N,0,0,0
3:24.892,73761,),0,0,1
3:24.911,73768,(,0,0,2
3:25.006,73802,t,0,0,0
3:25.100,73836,),0,0,2
3:25.222,73880,(,0,0,0
3:25.264,73895,p,0,0,0
3:25.314,73913,),0,0,0
3:25.347,73925,(,0,0,1
3:25.450,73962,N,0,0,0
3:25.500,73980,),0,0,1
3:25.522,73988,(,0,0,2
3:25.619,74023,t,0,0,0
3:25.722,74060,),0,0,2
3:25.831,74099,(,0,0,0
3:25.869,74113,p,0,0,0
3:25.919,74131,),0,0,0
3:25.958,74145,(,0,0,1
3:26.064,74183,N,0,0,0
3:26.114,74201,),0,0,1
3:26.136,74209,(,0,0,2
3:26.228,74242,t,0,0,0
3:26.319,74275,),0,0,2
3:26.436,74317,(,0,0,0
3:26.478,74332,p,0,0,0
3:26.531,74351,),0,0,0
3:26.564,74363,(,0,0,1
3:26.675,74403,N,0,0,0
3:26.747,74429,),0,0,1
3:26.758,74433,(,0,0,2
3:26.853,74467,t,0,0,0
3:26.942,74499,),0,0,2
3:27.072,74546,(,0,0,0
3:27.114,74561,p,0,0,0
3:27.164,74579,),0,0,0
3:27.197,74591,(,0,0,1
3:27.314,74633,N,0,0,0
3:27.369,74653,),0,0,1
3:27.400,74664,(,0,0,2
3:27.497,74699,t,0,0,0
3:27.606,74738,),0,0,2
3:27.736,74785,(,0,0,0
3:27.778,74800,p,0,0,0
3:27.828,74818,),0,0,0
3:27.869,74833,(,0,0,1
3:27.978,74872,N,0,0,0
3:28.031,74891,),0,0,1
3:28.058,74901,(,0,0,2
3:28.156,74936,t,0,0,0
3:28.253,74971,),0,0,2
3:28.408,75027,(,0,0,0
3:28.447,75041,p,0,0,0
3:28.494,75058,),0,0,0
3:28.536,75073,(,0,0,1
3:28.658,75117,N,0,0,0
3:28.711,75136,),0,0,1
3:28.753,75151,(,0,0,2
3:28.842,75183,t,0,0,0
3:28.942,75219,),0,0,2
3:29.092,75273,(,0,0,0
3:29.136,75289,p,0,0,0
3:29.181,75305,),0,0,0
3:29.222,75320,(,0,0,1
3:29.339,75362,N,0,0,0
3:29.392,75381,),0,0,1
3:29.419,75391,(,0,0,2
3:29.522,75428,t,0,0,0
3:29.617,75462,),0,0,2
3:29.778,75520,(,0,0,0
3:29.817,75534,p,0,0,0
3:29.867,75552,),0,0,0
3:29.908,75567,(,0,0,1
3:30.014,75605,N,0,0,0
3:30.061,75622,),0,0,1
3:30.103,75637,(,0,0,2
3:30.186,75667,t,0,0,0
3:30.278,75700,),0,0,2
3:30.422,75752,(,0,0,0
3:30.464,75767,p,0,0,0
3:30.508,75783,),0,0,0
3:30.556,75800,(,0,0,1
3:30.658,75837,N,0,0,0
3:30.700,75852,),0,0,1
3:30.744,75868,(,0,0,2
3:30.831,75899,t,0,0,0
3:30.922,75932,),0,0,2
3:31.064,75983,(,0,0,0
3:31.100,75996,p,0,0,0
3:31.144,76012,),0,0,0
3:31.183,76026,(,0,0,1
3:31.294,76066,N,0,0,0
3:31.336,76081,),0,0,1
3:31.358,76089,(,0,0,2
3:31.458,76125,t,0,0,0
3:31.542,76155,),0,0,2
3:31.683,76206,(,0,0,0
3:31.722,76220,p,0,0,0
3:31.767,76236,),0,0,0
3:31.814,76253,(,0,0,1
3:31.914,76289,N,0,0,0
3:31.958,76305,),0,0,1
3:31.994,76318,(,0,0,2
3:32.086,76351,t,0,0,0
3:32.175,76383,),0,0,2
3:32.328,76438,(,0,0,0
3:32.369,76453,p,0,0,0
3:32.414,76469,),0,0,0
3:32.464,76487,(,0,0,1
3:32.561,76522,N,0,0,0
3:32.611,76540,),0,0,1
3:32.647,76553,(,0,0,2
3:32.744,76588,t,0,0,0
3:32.839,76622,),0,0,2
3:32.994,76678,(,0,0,0
3:33.039,76694,p,0,0,0
3:33.083,76710,),0,0,0
3:33.133,76728,(,0,0,1
3:33.239,76766,N,0,0,0
3:33.281,76781,),0,0,1
3:33.339,76802,(,0,0,2
3:33.417,76830,t,0,0,0
3:33.514,76865,),0,0,2
3:33.650,76914,(,0,0,0
3:33.692,76929,p,0,0,0
3:33.736,76945,),0,0,0
3:33.792,76965,(,0,0,1
3:33.894,77002,N,0,0,0
3:33.944,77020,),0,0,1
3:33.975,77031,(,0,0,2
3:34.078,77068,t,0,0,0
3:34.169,77101,),0,0,2
3:34.311,77152,(,0,0,0
3:34.353,77167,p,0,0,0
3:34.400,77184,),0,0,0
3:34.447,77201,(,0,0,1
3:34.553,77239,N,0,0,0
3:34.600,77256,),0,0,1
3:34.633,77268,(,0,0,2
3:34.736,77305,t,0,0,0
3:34.839,77342,),0,0,2
3:34.989,77396,(,0,0,0
3:35.033,77412,p,0,0,0
3:35.078,77428,),0,0,0
3:35.125,77445,(,0,0,1
3:35.228,77482,N,0,0,0
3:35.275,77499,),0,0,1
3:35.314,77513,(,0,0,2
3:35.406,77546,t,0,0,0
3:35.506,77582,),0,0,2
3:35.639,77630,(,0,0,0
3:35.678,77644,p,0,0,0
3:35.725,77661,),0,0,0
3:35.769,77677,(,0,0,1
3:35.878,77716,N,0,0,0
3:35.922,77732,),0,0,1
3:35.961,77746,(,0,0,2
3:36.053,77779,t,0,0,0
3:36.144,77812,),0,0,2
3:36.267,77856,(,0,0,0
3:36.303,77869,p,0,0,0
3:36.344,77884,),0,0,0
3:36.394,77902,(,0,0,1
3:36.492,77937,N,0,0,0
3:36.539,77954,),0,0,1
3:36.567,77964,(,0,0,2
3:36.664,77999,t,0,0,0
3:36.756,78032,),0,0,2
3:36.889,78080,(,0,0,0
3:36.931,78095,p,0,0,0
3:36.975,78111,),0,0,0
3:37.025,78129,(,0,0,1
3:37.117,78162,N,0,0,0
3:37.161,78178,),0,0,1
3:37.206,78194,(,0,0,2
3:37.283,78222,t,0,0,0
3:37.378,78256,),0,0,2
3:37.522,78308,(,0,0,0
3:37.561,78322,p,0,0,0
3:37.603,78337,),0,0,0
3:37.647,78353,(,0,0,1
3:37.753,78391,N,0,0,0
3:37.797,78407,),0,0,1
3:37.842,78423,(,0,0,2
3:37.925,78453,t,0,0,0
3:38.017,78486,),0,0,2
3:38.144,78532,(,0,0,0
3:38.186,78547,p,0,0,0
3:38.228,78562,),0,0,0
3:38.278,78580,(,0,0,1
3:38.378,78616,N,0,0,0
3:38.422,78632,),0,0,1
3:38.472,78650,(,0,0,2
3:38.542,78675,t,0,0,0
3:38.631,78707,),0,0,2
3:38.758,78753,(,0,0,0
3:38.806,78770,p,0,0,0
3:38.847,78785,),0,0,0
3:38.894,78802,(,0,0,1
3:39.003,78841,N,0,0,0
3:39.050,78858,),0,0,1
3:39.103,78877,(,0,0,2
3:39.181,78905,t,0,0,0
3:39.275,78939,),0,0,2
3:39.411,78988,(,0,0,0
3:39.453,79003,p,0,0,0
3:39.494,79018,),0,0,0
3:39.544,79036,(,0,0,1
3:39.650,79074,N,0,0,0
3:39.703,79093,),0,0,1
3:39.753,79111,(,0,0,2
3:39.831,79139,t,0,0,0
3:39.928,79174,),0,0,2
3:40.092,79233,(,0,0,0
3:40.133,79248,p,0,0,0
3:40.181,79265,),0,0,0
3:40.236,79285,(,0,0,1
3:40.344,79324,N,0,0,0
3:40.397,79343,),0,0,1
3:40.419,79351,(,0,0,2
3:40.522,79388,t,0,0,0
3:40.625,79425,),0,0,2
3:40.764,79475,(,0,0,0
3:40.803,79489,p,0,0,0
3:40.847,79505,),0,0,0
3:40.894,79522,(,0,0,1
3:41.008,79563,N,0,0,0
3:41.064,79583,),0,0,1
3:41.094,79594,(,0,0,2
3:41.197,79631,t,0,0,0
3:41.292,79665,),0,0,2
3:41.425,79713,(,0,0,0
3:41.467,79728,p,0,0,0
3:41.511,79744,),0,0,0
3:41.561,79762,(,0,0,1
3:41.667,79800,N,0,0,0
3:41.711,79816,),0,0,1
3:41.756,79832,(,0,0,2
3:41.842,79863,t,0,0,0
3:41.936,79897,),0,0,2
3:42.075,79947,(,0,0,0
3:42.117,79962,p,0,0,0
3:42.164,79979,),0,0,0
3:42.214,79997,(,0,0,1
3:42.311,80032,N,0,0,0
3:42.353,80047,),0,0,1
3:42.394,80062,(,0,0,2
3:42.469,80089,t,0,0,0
3:42.558,80121,),0,0,2
3:42.703,80173,(,0,0,0
3:42.742,80187,p,0,0,0
3:42.786,80203,),0,0,0
3:42.828,80218,(,0,0,1
3:42.928,80254,N,0,0,0
3:42.975,80271,),0,0,1
3:43.019,80287,(,0,0,2
3:43.100,80316,t,0,0,0
3:43.186,80347,),0,0,2
3:43.328,80398,(,0,0,0
3:43.367,80412,p,0,0,0
3:43.408,80427,),0,0,0
3:43.453,80443,(,0,0,1
3:43.553,80479,N,0,0,0
3:43.603,80497,),0,0,1
3:43.631,80507,(,0,0,2
3:43.725,80541,t,0,0,0
3:43.817,80574,),0,0,2
3:43.950,80622,(,0,0,0
3:43.997,80639,p,0,0,0
3:44.042,80655,),0,0,0
3:44.083,80670,(,0,0,1
3:44.192,80709,N,0,0,0
3:44.236,80725,),0,0,1
3:44.264,80735,(,0,0,2
3:44.350,80766,t,0,0,0
3:44.444,80800,),0,0,2
3:44.583,80850,(,0,0,0
3:44.625,80865,p,0,0,0
3:44.669,80881,),0,0,0
3:44.711,80896,(,0,0,1
3:44.822,80936,N,0,0,0
3:44.875,80955,),0,0,1
3:44.914,80969,(,0,0,2
3:45.003,81001,t,0,0,0
3:45.100,81036,),0,0,2
3:45.231,81083,(,0,0,0
3:45.269,81097,p,0,0,0
3:45.322,81116,),0,0,0
3:45.369,81133,(,0,0,1
3:45.475,81171,N,0,0,0
3:45.522,81188,),0,0,1
3:45.569,81205,(,0,0,2
3:45.658,81237,t,0,0,0
3:45.756,81272,),0,0,2
3:45.886,81319,(,0,0,0
3:45.925,81333,p,0,0,0
3:45.972,81350,),0,0,0
3:46.019,81367,(,0,0,1
3:46.131,81407,N,0,0,0
3:46.181,81425,),0,0,1
3:46.206,81434,(,0,0,2
3:46.314,81473,t,0,0,0
3:46.408,81507,),0,0,2
3:46.522,81548,(,0,0,0
3:46.567,81564,p,0,0,0
3:46.611,81580,),0,0,0
3:46.653,81595,(,0,0,1
3:46.761,81634,N,0,0,0
3:46.811,81652,),0,0,1
3:46.853,81667,(,0,0,2
3:46.944,81700,t,0,0,0
3:47.044,81736,),0,0,2
3:47.164,81779,(,0,0,0
3:47.208,81795,p,0,0,0
3:47.258,81813,),0,0,0
3:47.297,81827,(,0,0,1
3:47.411,81868,N,0,0,0
3:47.461,81886,),0,0,1
3:47.494,81898,(,0,0,2
3:47.586,81931,t,0,0,0
3:47.686,81967,),0,0,2
3:47.811,82012,(,0,0,0
3:47.850,82026,p,0,0,0
3:47.894,82042,),0,0,0
3:47.942,82059,(,0,0,1
3:48.042,82095,N,0,0,0
3:48.092,82113,),0,0,1
3:48.122,82124,(,0,0,2
3:48.208,82155,t,0,0,0
3:48.308,82191,),0,0,2
3:48.422,82232,(,0,0,0
3:48.464,82247,p,0,0,0
3:48.508,82263,),0,0,0
3:48.556,82280,(,0,0,1
3:48.656,82316,N,0,0,0
3:48.708,82335,),0,0,1
3:48.742,82347,(,0,0,2
3:48.833,82380,t,0,0,0
3:48.922,82412,),0,0,2
3:49.050,82458,(,0,0,0
3:49.089,82472,p,0,0,0
3:49.133,82488,),0,0,0
3:49.183,82506,(,0,0,1
3:49.283,82542,N,0,0,0
3:49.328,82558,),0,0,1
3:49.372,82574,(,0,0,2
3:49.453,82603,t,0,0,0
3:49.544,82636,),0,0,2
3:49.683,82686,(,0,0,0
3:49.722,82700,p,0,0,0
3:49.767,82716,),0,0,0
3:49.803,82729,(,0,0,1
3:49.914,82769,N,0,0,0
3:49.958,82785,),0,0,1
3:49.986,82795,(,0,0,2
3:50.089,82832,t,0,0,0
3:50.181,82865,),0,0,2
3:50.325,82917,(,0,0,0
3:50.369,82933,p,0,0,0
3:50.411,82948,),0,0,0
3:50.453,82963,(,0,0,1
3:50.558,83001,N,0,0,0
3:50.600,83016,),0,0,1
3:50.642,83031,(,0,0,2
3:50.725,83061,t,0,0,0
3:50.814,83093,),0,0,2
3:50.944,83140,(,0,0,0
3:50.989,83156,p,0,0,0
3:51.033,83172,),0,0,0
3:51.075,83187,(,0,0,1
3:51.192,83229,N,0,0,0
3:51.242,83247,),0,0,1
3:51.294,83266,(,0,0,2
3:51.383,83298,t,0,0,0
3:51.486,83335,),0,0,2
3:51.631,83387,(,0,0,0
3:51.672,83402,p,0,0,0
3:51.717,83418,),0,0,0
3:51.756,83432,(,0,0,1
3:51.867,83472,N,0,0,0
3:51.914,83489,),0,0,1
3:51.978,83512,(,0,0,2
3:52.056,83540,t,0,0,0
3:52.167,83580,),0,0,2
3:52.339,83642,(,0,0,0
3:52.383,83658,p,0,0,0
3:52.422,83672,),0,0,0
3:52.469,83689,(,0,0,1
3:52.569,83725,N,0,0,0
3:52.619,83743,),0,0,1
3:52.653,83755,(,0,0,2
3:52.753,83791,t,0,0,0
3:52.853,83827,),0,0,2
3:53.050,83898,(,0,0,0
3:53.100,83916,p,0,0,0
3:53.144,83932,),0,0,0
3:53.200,83952,(,0,0,1
3:53.306,83990,N,0,0,0
3:53.350,84006,),0,0,1
3:53.392,84021,(,0,0,2
3:53.483,84054,t,0,0,0
3:53.575,84087,),0,0,2
3:53.731,84143,(,0,0,0
3:53.772,84158,p,0,0,0
3:53.817,84174,),0,0,0
3:53.867,84192,(,0,0,1
3:53.975,84231,N,0,0,0
3:54.022,84248,),0,0,1
3:54.069,84265,(,0,0,2
3:54.150,84294,t,0,0,0
3:54.244,84328,),0,0,2
3:54.369,84373,(,0,0,0
3:54.411,84388,p,0,0,0
3:54.456,84404,),0,0,0
3:54.497,84419,(,0,0,1
3:54.594,84454,N,0,0,0
3:54.642,84471,),0,0,1
3:54.667,84480,(,0,0,2
3:54.761,84514,t,0,0,0
3:54.850,84546,),0,0,2
3:55.006,84602,(,0,0,0
3:55.047,84617,p,0,0,0
3:55.092,84633,),0,0,0
3:55.136,84649,(,0,0,1
3:55.242,84687,N,0,0,0
3:55.286,84703,),0,0,1
3:55.331,84719,(,0,0,2
3:55.408,84747,t,0,0,0
3:55.494,84778,),0,0,2
3:55.611,84820,(,0,0,0
3:55.650,84834,p,0,0,0
3:55.694,84850,),0,0,0
3:55.739,84866,(,0,0,1
3:55.839,84902,N,0,0,0
3:55.883,84918,),0,0,1
3:55.922,84932,(,0,0,2
3:56.008,84963,t,0,0,0
3:56.097,84995,),0,0,2
3:56.217,85038,(,0,0,0
3:56.253,85051,p,0,0,0
3:56.297,85067,),0,0,0
3:56.342,85083,(,0,0,1
3:56.444,85120,N,0,0,0
3:56.489,85136,),0,0,1
3:56.517,85146,(,0,0,2
3:56.619,85183,t,0,0,0
3:56.719,85219,),0,0,2
3:56.828,85258,(,0,0,0
3:56.869,85273,p,0,0,0
3:56.914,85289,),0,0,0
3:56.964,85307,(,0,0,1
3:57.075,85347,N,0,0,0
3:57.125,85365,),0,0,1
3:57.153,85375,(,0,0,2
3:57.261,85414,t,0,0,0
3:57.353,85447,),0,0,2
3:57.483,85494,(,0,0,0
3:57.522,85508,p,0,0,0
3:57.569,85525,),0,0,0
3:57.617,85542,(,0,0,1
3:57.722,85580,N,0,0,0
3:57.769,85597,),0,0,1
3:57.817,85614,(,0,0,2
3:57.903,85645,t,0,0,0
3:58.006,85682,),0,0,2
3:58.136,85729,(,0,0,0
3:58.181,85745,p,0,0,0
3:58.228,85762,),0,0,0
3:58.267,85776,(,0,0,1
3:58.386,85819,N,0,0,0
3:58.436,85837,),0,0,1
3:58.481,85853,(,0,0,2
3:58.567,85884,t,0,0,0
3:58.667,85920,),0,0,2
3:58.794,85966,(,0,0,0
3:58.836,85981,p,0,0,0
3:58.881,85997,),0,0,0
3:58.922,86012,(,0,0,1
3:59.031,86051,N,0,0,0
3:59.078,86068,),0,0,1
3:59.114,86081,(,0,0,2
3:59.214,86117,t,0,0,0
3:59.311,86152,),0,0,2
3:59.436,86197,(,0,0,0
3:59.475,86211,p,0,0,0
3:59.519,86227,),0,0,0
3:59.567,86244,(,0,0,1
3:59.669,86281,N,0,0,0
3:59.717,86298,),0,0,1
3:59.742,86307,(,0,0,2
3:59.842,86343,t,0,0,0
3:59.936,86377,),0,0,2
4:00.075,86427,(,0,0,0
4:00.114,86441,p,0,0,0
4:00.161,86458,),0,0,0
4:00.208,86475,(,0,0,1
4:00.306,86510,N,0,0,0
4:00.350,86526,),0,0,1
4:00.392,86541,(,0,0,2
4:00.475,86571,t,0,0,0
4:00.564,86603,),0,0,2
4:00.706,86654,(,0,0,0
4:00.744,86668,p,0,0,0
4:00.792,86685,),0,0,0
4:00.839,86702,(,0,0,1
4:00.936,86737,N,0,0,0
4:00.981,86753,),0,0,1
4:01.039,86774,(,0,0,2
4:01.108,86799,t,0,0,0
4:01.189,86828,),0,0,2
4:01.339,86882,(,0,0,0
4:01.381,86897,p,0,0,0
4:01.425,86913,),0,0,0
4:01.469,86929,(,0,0,1
4:01.572,86966,N,0,0,0
4:01.617,86982,),0,0,1
4:01.664,86999,(,0,0,2
4:01.739,87026,t,0,0,0
4:01.833,87060,),0,0,2
4:01.967,87108,(,0,0,0
4:02.011,87124,p,0,0,0
4:02.053,87139,),0,0,0
4:02.097,87155,(,0,0,1
4:02.206,87194,N,0,0,0
4:02.253,87211,),0,0,1
4:02.283,87222,(,0,0,2
4:02.375,87255,t,0,0,0
4:02.467,87288,),0,0,2
4:02.628,87346,(,0,0,0
4:02.672,87362,p,0,0,0
4:02.717,87378,),0,0,0
4:02.761,87394,(,0,0,1
4:02.872,87434,N,0,0,0
4:02.917,87450,),0,0,1
4:02.969,87469,(,0,0,2
4:03.047,87497,t,0,0,0
4:03.147,87533,),0,0,2
4:03.328,87598,(,0,0,0
4:03.369,87613,p,0,0,0
4:03.417,87630,),0,0,0
4:03.458,87645,(,0,0,1
4:03.569,87685,N,0,0,0
4:03.614,87701,),0,0,1
4:03.664,87719,(,0,0,2
4:03.742,87747,t,0,0,0
4:03.844,87784,),0,0,2
4:04.003,87841,(,0,0,0
4:04.044,87856,p,0,0,0
4:04.092,87873,),0,0,0
4:04.139,87890,(,0,0,1
4:04.253,87931,N,0,0,0
4:04.294,87946,),0,0,1
4:04.350,87966,(,0,0,2
4:04.431,87995,t,0,0,0
4:04.525,88029,),0,0,2
4:04.686,88087,(,0,0,0
4:04.731,88103,p,0,0,0
4:04.775,88119,),0,0,0
4:04.822,88136,(,0,0,1
4:04.942,88179,N,0,0,0
4:04.986,88195,),0,0,1
4:05.033,88212,(,0,0,2
4:05.125,88245,t,0,0,0
4:05.222,88280,),0,0,2
4:05.381,88337,(,0,0,0
4:05.425,88353,p,0,0,0
4:05.469,88369,),0,0,0
4:05.522,88388,(,0,0,1
4:05.622,88424,N,0,0,0
4:05.667,88440,),0,0,1
4:05.717,88458,(,0,0,2
4:05.797,88487,t,0,0,0
4:05.892,88521,),0,0,2
4:06.047,88577,(,0,0,0
4:06.089,88592,p,0,0,0
4:06.133,88608,),0,0,0
4:06.186,88627,(,0,0,1
4:06.286,88663,N,0,0,0
4:06.328,88678,),0,0,1
4:06.378,88696,(,0,0,2
4:06.450,88722,t,0,0,0
4:06.547,88757,),0,0,2
4:06.675,88803,(,0,0,0
4:06.714,88817,p,0,0,0
4:06.758,88833,),0,0,0
4:06.797,88847,(,0,0,1
4:06.900,88884,N,0,0,0
4:06.942,88899,),0,0,1
4:06.975,88911,(,0,0,2
4:07.064,88943,t,0,0,0
4:07.156,88976,),0,0,2
4:07.281,89021,(,0,0,0
4:07.325,89037,p,0,0,0
4:07.367,89052,),0,0,0
4:07.403,89065,(,0,0,1
4:07.508,89103,N,0,0,0
4:07.558,89121,),0,0,1
4:07.581,89129,(,0,0,2
4:07.675,89163,t,0,0,0
4:07.769,89197,),0,0,2
4:07.894,89242,(,0,0,0
4:07.933,89256,p,0,0,0
4:07.978,89272,),0,0,0
4:08.025,89289,(,0,0,1
4:08.128,89326,N,0,0,0
4:08.175,89343,),0,0,1
4:08.222,89360,(,0,0,2
4:08.303,89389,t,0,0,0
4:08.392,89421,),0,0,2
4:08.528,89470,(,0,0,0
4:08.572,89486,p,0,0,0
4:08.617,89502,),0,0,0
4:08.661,89518,(,0,0,1
4:08.767,89556,N,0,0,0
4:08.814,89573,),0,0,1
4:08.853,89587,(,0,0,2
4:08.944,89620,t,0,0,0
4:09.044,89656,),0,0,2
4:09.183,89706,(,0,0,0
4:09.225,89721,p,0,0,0
4:09.267,89736,),0,0,0
4:09.319,89755,(,0,0,1
4:09.428,89794,N,0,0,0
4:09.472,89810,),0,0,1
4:09.508,89823,(,0,0,2
4:09.608,89859,t,0,0,0
4:09.703,89893,),0,0,2
4:09.844,89944,(,0,0,0
4:09.892,89961,p,0,0,0
4:09.936,89977,),0,0,0
4:09.994,89998,(,0,0,1
4:10.103,90037,N,0,0,0
4:10.150,90054,),0,0,1
4:10.192,90069,(,0,0,2
4:10.286,90103,t,0,0,0
4:10.383,90138,),0,0,2
4:10.522,90188,(,0,0,0
4:10.564,90203,p,0,0,0
4:10.611,90220,),0,0,0
4:10.667,90240,(,0,0,1
4:10.769,90277,N,0,0,0
4:10.817,90294,),0,0,1
4:10.867,90312,(,0,0,2
4:10.950,90342,t,0,0,0
4:11.047,90377,),0,0,2
4:11.217,90438,(,0,0,0
4:11.261,90454,p,0,0,0
4:11.314,90473,),0,0,0
4:11.356,90488,(,0,0,1
4:11.461,90526,N,0,0,0
4:11.506,90542,),0,0,1
4:11.550,90558,(,0,0,2
4:11.636,90589,t,0,0,0
4:11.733,90624,),0,0,2
4:11.881,90677,(,0,0,0
4:11.922,90692,p,0,0,0
4:11.967,90708,),0,0,0
4:12.022,90728,(,0,0,1
4:12.122,90764,N,0,0,0
4:12.169,90781,),0,0,1
4:12.203,90793,(,0,0,2
4:12.297,90827,t,0,0,0
4:12.389,90860,),0,0,2
4:12.522,90908,(,0,0,0
4:12.561,90922,p,0,0,0
4:12.600,90936,),0,0,0
4:12.647,90953,(,0,0,1
4:12.753,90991,N,0,0,0
4:12.803,91009,),0,0,1
4:12.825,91017,(,0,0,2
4:12.928,91054,t,0,0,0
4:13.019,91087,),0,0,2
4:13.167,91140,(,0,0,0
4:13.208,91155,p,0,0,0
4:13.253,91171,),0,0,0
4:13.306,91190,(,0,0,1
4:13.400,91224,N,0,0,0
4:13.444,91240,),0,0,1
4:13.483,91254,(,0,0,2
4:13.567,91284,t,0,0,0
4:13.664,91319,),0,0,2
4:13.803,91369,(,0,0,0
4:13.844,91384,p,0,0,0
4:13.889,91400,),0,0,0
4:13.931,91415,(,0,0,1
4:14.036,91453,N,0,0,0
4:14.086,91471,),0,0,1
4:14.133,91488,(,0,0,2
4:14.214,91517,t,0,0,0
4:14.314,91553,),0,0,2
4:14.458,91605,(,0,0,0
4:14.497,91619,p,0,0,0
4:14.544,91636,),0,0,0
4:14.592,91653,(,0,0,1
4:14.694,91690,N,0,0,0
4:14.739,91706,),0,0,1
4:14.775,91719,(,0,0,2
4:14.867,91752,t,0,0,0
4:14.956,91784,),0,0,2
4:15.097,91835,(,0,0,0
4:15.144,91852,p,0,0,0
4:15.192,91869,),0,0,0
4:15.239,91886,(,0,0,1
4:15.347,91925,N,0,0,0
4:15.394,91942,),0,0,1
4:15.422,91952,(,0,0,2
4:15.522,91988,t,0,0,0
4:15.617,92022,),0,0,2
4:15.767,92076,(,0,0,0
4:15.814,92093,p,0,0,0
4:15.861,92110,),0,0,0
4:15.917,92130,(,0,0,1
4:16.025,92169,N,0,0,0
4:16.069,92185,),0,0,1
4:16.117,92202,(,0,0,2
4:16.208,92235,t,0,0,0
4:16.308,92271,),0,0,2
4:16.456,92324,(,0,0,0
4:16.500,92340,p,0,0,0
4:16.544,92356,),0,0,0
4:16.592,92373,(,0,0,1
4:16.706,92414,N,0,0,0
4:16.750,92430,),0,0,1
4:16.789,92444,(,0,0,2
4:16.889,92480,t,0,0,0
4:16.989,92516,),0,0,2
4:17.144,92572,(,0,0,0
4:17.189,92588,p,0,0,0
4:17.233,92604,),0,0,0
4:17.289,92624,(,0,0,1
4:17.394,92662,N,0,0,0
4:17.436,92677,),0,0,1
4:17.467,92688,(,0,0,2
4:17.564,92723,t,0,0,0
4:17.658,92757,),0,0,2
4:17.786,92803,(,0,0,0
4:17.831,92819,p,0,0,0
4:17.875,92835,),0,0,0
4:17.925,92853,(,0,0,1
4:18.031,92891,N,0,0,0
4:18.078,92908,),0,0,1
4:18.119,92923,(,0,0,2
4:18.206,92954,t,0,0,0
4:18.294,92986,),0,0,2
4:18.428,93034,(,0,0,0
4:18.472,93050,p,0,0,0
4:18.514,93065,),0,0,0
4:18.561,93082,(,0,0,1
4:18.658,93117,N,0,0,0
4:18.703,93133,),0,0,1
4:18.739,93146,(,0,0,2
4:18.831,93179,t,0,0,0
4:18.925,93213,),0,0,2
4:19.072,93266,(,0,0,0
4:19.114,93281,p,0,0,0
4:19.158,93297,),0,0,0
4:19.197,93311,(,0,0,1
4:19.303,93349,N,0,0,0
4:19.347,93365,),0,0,1
4:19.394,93382,(,0,0,2
4:19.469,93409,t,0,0,0
4:19.558,93441,),0,0,2
4:19.708,93495,(,0,0,0
4:19.750,93510,p,0,0,0
4:19.794,93526,),0,0,0
4:19.839,93542,(,0,0,1
4:19.939,93578,N,0,0,0
4:19.981,93593,),0,0,1
4:20.031,93611,(,0,0,2
4:20.106,93638,t,0,0,0
4:20.197,93671,),0,0,2
4:20.325,93717,(,0,0,0
4:20.364,93731,p,0,0,0
4:20.408,93747,),0,0,0
4:20.453,93763,(,0,0,1
4:20.561,93802,N,0,0,0
4:20.606,93818,),0,0,1
4:20.639,93830,(,0,0,2
4:20.739,93866,t,0,0,0
4:20.828,93898,),0,0,2
4:20.958,93945,(,0,0,0
4:21.003,93961,p,0,0,0
4:21.050,93978,),0,0,0
4:21.100,93996,(,0,0,1
4:21.208,94035,N,0,0,0
4:21.256,94052,),0,0,1
4:21.297,94067,(,0,0,2
4:21.392,94101,t,0,0,0
4:21.489,94136,),0,0,2
4:21.628,94186,(,0,0,0
4:21.667,94200,p,0,0,0
4:21.714,94217,),0,0,0
4:21.761,94234,(,0,0,1
4:21.872,94274,N,0,0,0
4:21.919,94291,),0,0,1
4:21.967,94308,(,0,0,2
4:22.058,94341,t,0,0,0
4:22.153,94375,),0,0,2
4:22.300,94428,(,0,0,0
4:22.342,94443,p,0,0,0
4:22.392,94461,),0,0,0
4:22.439,94478,(,0,0,1
4:22.544,94516,N,0,0,0
4:22.589,94532,),0,0,1
4:22.631,94547,(,0,0,2
4:22.719,94579,t,0,0,0
4:22.814,94613,),0,0,2
4:22.928,94654,(,0,0,0
4:22.972,94670,p,0,0,0
4:23.022,94688,),0,0,0
4:23.069,94705,(,0,0,1
4:23.181,94745,N,0,0,0
4:23.228,94762,),0,0,1
4:23.267,94776,(,0,0,2
4:23.358,94809,t,0,0,0
4:23.450,94842,),0,0,2
4:23.578,94888,(,0,0,0
4:23.619,94903,p,0,0,0
4:23.667,94920,),0,0,0
4:23.717,94938,(,0,0,1
4:23.819,94975,N,0,0,0
4:23.867,94992,),0,0,1
4:23.908,95007,(,0,0,2
4:23.997,95039,t,0,0,0
4:24.097,95075,),0,0,2
4:24.225,95121,(,0,0,0
4:24.264,95135,p,0,0,0
4:24.308,95151,),0,0,0
4:24.353,95167,(,0,0,1
4:24.447,95201,N,0,0,0
4:24.492,95217,),0,0,1
4:24.531,95231,(,0,0,2
4:24.614,95261,t,0,0,0
4:24.708,95295,),0,0,2
4:24.828,95338,(,0,0,0
4:24.869,95353,p,0,0,0
4:24.911,95368,),0,0,0
4:24.956,95384,(,0,0,1
4:25.061,95422,N,0,0,0
4:25.108,95439,),0,0,1
4:25.158,95457,(,0,0,2
4:25.231,95483,t,0,0,0
4:25.317,95514,),0,0,2
4:25.436,95557,(,0,0,0
4:25.478,95572,p,0,0,0
4:25.519,95587,),0,0,0
4:25.572,95606,(,0,0,1
4:25.669,95641,N,0,0,0
4:25.717,95658,),0,0,1
4:25.753,95671,(,0,0,2
4:25.844,95704,t,0,0,0
4:25.942,95739,),0,0,2
4:26.075,95787,(,0,0,0
4:26.114,95801,p,0,0,0
4:26.158,95817,),0,0,0
4:26.197,95831,(,0,0,1
4:26.297,95867,N,0,0,0
4:26.350,95886,),0,0,1
4:26.397,95903,(,0,0,2
4:26.472,95930,t,0,0,0
4:26.567,95964,),0,0,2
4:26.714,96017,(,0,0,0
4:26.756,96032,p,0,0,0
4:26.797,96047,),0,0,0
4:26.850,96066,(,0,0,1
4:26.953,96103,N,0,0,0
4:27.000,96120,),0,0,1
4:27.042,96135,(,0,0,2
4:27.128,96166,t,0,0,0
4:27.228,96202,),0,0,2
4:27.364,96251,(,0,0,0
4:27.403,96265,p,0,0,0
4:27.453,96283,),0,0,0
4:27.497,96299,(,0,0,1
4:27.608,96339,N,0,0,0
4:27.650,96354,),0,0,1
4:27.697,96371,(,0,0,2
4:27.783,96402,t,0,0,0
4:27.878,96436,),0,0,2
4:28.014,96485,(,0,0,0
4:28.056,96500,p,0,0,0
4:28.103,96517,),0,0,0
4:28.150,96534,(,0,0,1
4:28.261,96574,N,0,0,0
4:28.308,96591,),0,0,1
4:28.350,96606,(,0,0,2
4:28.444,96640,t,0,0,0
4:28.544,96676,),0,0,2
4:28.675,96723,(,0,0,0
4:28.717,96738,p,0,0,0
4:28.761,96754,),0,0,0
4:28.811,96772,(,0,0,1
4:28.925,96813,N,0,0,0
4:28.975,96831,),0,0,1
4:29.028,96850,(,0,0,2
4:29.111,96880,t,0,0,0
4:29.208,96915,),0,0,2
4:29.344,96964,(,0,0,0
4:29.392,96981,p,0,0,0
4:29.439,96998,),0,0,0
4:29.486,97015,(,0,0,1
4:29.586,97051,N,0,0,0
4:29.631,97067,),0,0,1
4:29.683,97086,(,0,0,2
4:29.761,97114,t,0,0,0
4:29.847,97145,),0,0,2
4:29.997,97199,(,0,0,0
4:30.036,97213,p,0,0,0
4:30.081,97229,),0,0,0
4:30.133,97248,(,0,0,1
4:30.231,97283,N,0,0,0
4:30.275,97299,),0,0,1
4:30.325,97317,(,0,0,2
4:30.403,97345,t,0,0,0
4:30.492,97377,),0,0,2
4:30.608,97419,(,0,0,0
4:30.644,97432,p,0,0,0
4:30.692,97449,),0,0,0
4:30.733,97464,(,0,0,1
4:30.836,97501,N,0,0,0
4:30.881,97517,),0,0,1
4:30.917,97530,(,0,0,2
4:31.006,97562,t,0,0,0
4:31.092,97593,),0,0,2
4:31.197,97631,(,0,0,0
4:31.242,97647,p,0,0,0
4:31.286,97663,),0,0,0
4:31.325,97677,(,0,0,1
4:31.425,97713,N,0,0,0
4:31.472,97730,),0,0,1
4:31.497,97739,(,0,0,2
4:31.592,97773,t,0,0,0
4:31.681,97805,),0,0,2
4:31.786,97843,(,0,0,0
4:31.828,97858,p,0,0,0
4:31.869,97873,),0,0,0
4:31.922,97892,(,0,0,1
4:32.019,97927,N,0,0,0
4:32.067,97944,),0,0,1
4:32.106,97958,(,0,0,2
4:32.189,97988,t,0,0,0
4:32.278,98020,),0,0,2
4:32.383,98058,(,0,0,0
4:32.425,98073,p,0,0,0
4:32.472,98090,),0,0,0
4:32.517,98106,(,0,0,1
4:32.619,98143,N,0,0,0
4:32.664,98159,),0,0,1
4:32.714,98177,(,0,0,2
4:32.800,98208,t,0,0,0
4:32.900,98244,),0,0,2
4:33.008,98283,(,0,0,0
4:33.050,98298,p,0,0,0
4:33.094,98314,),0,0,0
4:33.147,98333,(,0,0,1
4:33.253,98371,N,0,0,0
4:33.297,98387,),0,0,1
4:33.347,98405,(,0,0,2
4:33.433,98436,t,0,0,0
4:33.533,98472,),0,0,2
4:33.636,98509,(,0,0,0
4:33.686,98527,p,0,0,0
4:33.728,98542,),0,0,0
4:33.775,98559,(,0,0,1
4:33.889,98600,N,0,0,0
4:33.939,98618,),0,0,1
4:33.981,98633,(,0,0,2
4:34.075,98667,t,0,0,0
4:34.172,98702,),0,0,2
4:34.289,98744,(,0,0,0
4:34.333,98760,p,0,0,0
4:34.378,98776,),0,0,0
4:34.422,98792,(,0,0,1
4:34.531,98831,N,0,0,0
4:34.578,98848,),0,0,1
4:34.628,98866,(,0,0,2
4:34.714,98897,t,0,0,0
4:34.811,98932,),0,0,2
4:34.969,98989,(,0,0,0
4:35.011,99004,p,0,0,0
4:35.056,99020,),0,0,0
4:35.100,99036,(,0,0,1
4:35.208,99075,N,0,0,0
4:35.258,99093,),0,0,1
4:35.294,99106,(,0,0,2
4:35.389,99140,t,0,0,0
4:35.481,99173,),0,0,2
4:36.875,99675,(,0,0,0
4:36.917,99690,p,0,0,0
4:36.961,99706,),0,0,0
4:37.025,99729,(,0,0,1
4:37.053,99739,N,0,0,0
4:37.075,99747,),0,0,1
4:37.200,99792,(,0,0,2
4:37.278,99820,t,0,0,0
4:37.378,99856,),0,0,2
4:37.497,99899,(,0,0,0
4:37.542,99915,p,0,0,0
4:37.583,99930,),0,0,0
4:37.644,99952,(,0,0,1
4:37.672,99962,N,0,0,0
4:37.694,99970,),0,0,1
4:37.817,100014,(,0,0,2
4:37.897,100043,t,0,0,0
4:37.992,100077,),0,0,2
4:38.133,100128,(,0,0,0
4:38.172,100142,p,0,0,0
4:38.217,100158,),0,0,0
4:38.278,100180,(,0,0,1
4:38.306,100190,N,0,0,0
4:38.347,100205,),0,0,1
4:38.447,100241,(,0,0,2
4:38.525,100269,t,0,0,0
4:38.617,100302,),0,0,2
4:40.028,100810,(,0,0,0
4:40.069,100825,p,0,0,0
4:40.111,100840,),0,0,0
4:40.178,100864,(,0,0,1
4:40.211,100876,N,0,0,0
4:40.253,100891,),0,0,1
4:40.264,100895,(,0,0,2
4:40.444,100960,t,0,0,0
4:40.542,100995,),0,0,2
4:41.950,101502,(,0,0,0
4:41.992,101517,p,0,0,0
4:42.039,101534,),0,0,0
4:42.092,101553,(,0,0,1
4:42.131,101567,N,0,0,0
4:42.150,101574,),0,0,1
4:42.183,101586,(,0,0,2
4:42.350,101646,t,0,0,0
4:42.442,101679,),0,0,2
4:42.558,101721,(,0,0,0
4:42.594,101734,p,0,0,0
4:42.639,101750,),0,0,0
4:42.711,101776,(,0,0,1
4:42.733,101784,N,0,0,0
4:42.778,101800,),0,0,1
4:42.786,101803,(,0,0,2
4:42.958,101865,t,0,0,0
4:43.050,101898,),0,0,2
4:46.206,103034,(,0,0,0
4:46.247,103049,p,0,0,0
4:46.294,103066,),0,0,0
4:46.361,103090,(,0,0,1
4:46.389,103100,N,0,0,0
4:46.411,103108,),0,0,1
4:46.525,103149,(,0,0,2
4:46.622,103184,t,0,0,0
4:46.714,103217,),0,0,2
4:48.078,103708,(,0,0,0
4:48.119,103723,p,0,0,0
4:48.161,103738,),0,0,0
4:48.228,103762,(,0,0,1
4:48.250,103770,N,0,0,0
4:48.292,103785,),0,0,1
4:48.303,103789,(,0,0,2
4:48.469,103849,t,0,0,0
4:48.556,103880,),0,0,2
4:48.661,103918,(,0,0,0
4:48.700,103932,p,0,0,0
4:48.744,103948,),0,0,0
4:48.808,103971,(,0,0,1
4:48.836,103981,N,0,0,0
4:48.858,103989,),0,0,1
4:48.981,104033,(,0,0,2
4:49.058,104061,t,0,0,0
4:49.147,104093,),0,0,2
4:49.233,104124,(,0,0,0
4:49.278,104140,p,0,0,0
4:49.319,104155,),0,0,0
4:49.361,104170,(,0,0,1
4:49.414,104189,N,0,0,0
4:49.436,104197,),0,0,1
4:49.561,104242,(,0,0,2
4:49.639,104270,t,0,0,0
4:49.733,104304,),0,0,2
4:49.861,104350,(,0,0,0
4:49.903,104365,p,0,0,0
4:49.950,104382,),0,0,0
4:50.011,104404,(,0,0,1
4:50.039,104414,N,0,0,0
4:50.081,104429,),0,0,1
4:50.092,104433,(,0,0,2
4:50.258,104493,t,0,0,0
4:50.344,104524,),0,0,2
4:54.853,106147,(,0,0,0
4:54.892,106161,p,0,0,0
4:54.936,106177,),0,0,0
4:54.997,106199,(,0,0,1
4:55.028,106210,N,0,0,0
4:55.047,106217,),0,0,1
4:55.161,106258,(,0,0,2
4:55.244,106288,t,0,0,0
4:55.331,106319,),0,0,2
4:59.872,107954,(,0,0,0
4:59.911,107968,p,0,0,0
4:59.956,107984,),0,0,0
5:00.017,108006,(,0,0,1
5:00.047,108017,N,0,0,0
5:00.092,108033,),0,0,1
5:00.097,108035,(,0,0,2
5:00.272,108098,t,0,0,5
5:00.361,108130,t,0,0,5
5:00.508,108183,),0,0,2
5:06.917,110490,(,0,0,1
5:06.972,110510,N,0,0,0
5:07.008,110523,),0,0,1
5:07.119,110563,(,0,0,2
5:07.197,110591,t,0,0,0
5:07.292,110625,),0,0,2
5:07.581,110729,(,0,0,1
5:07.608,110739,N,0,0,0
5:07.633,110748,),0,0,1
5:07.764,110795,(,0,0,2
5:07.822,110816,t,0,0,0
5:07.919,110851,),0,0,2
5:10.200,111672,(,0,0,1
5:10.228,111682,N,0,0,0
5:10.250,111690,),0,0,1
5:10.406,111746,(,0,0,2
5:10.464,111767,t,0,0,0
5:10.558,111801,),0,0,2
5:11.622,112184,(,0,0,1
5:11.653,112195,N,0,0,0
5:11.678,112204,),0,0,1
5:11.811,112252,(,0,0,2
5:11.878,112276,t,0,0,5
5:11.967,112308,t,0,0,5
5:11.994,112318,),0,0,2
5:12.972,112670,(,0,0,1
5:13.017,112686,N,0,0,0
5:13.042,112695,),0,0,1
5:13.167,112740,(,0,0,2
5:13.242,112767,t,0,0,0
5:13.306,112790,),0,0,2
5:16.175,113823,(,0,0,1
5:16.208,113835,N,0,0,0
5:16.231,113843,),0,0,1
5:16.378,113896,(,0,0,2
5:16.442,113919,t,0,0,5
5:16.564,113963,t,0,0,5
5:16.606,113978,),0,0,2
5:16.811,114052,(,0,0,1
5:16.864,114071,N,0,0,0
5:16.886,114079,),0,0,1
5:17.025,114129,(,0,0,2
5:17.094,114154,t,0,0,0
5:17.172,114182,),0,0,2
5:17.319,114235,(,0,0,0
5:17.328,114238,p,0,0,0
5:17.381,114257,),0,0,0
5:17.506,114302,(,0,0,1
5:17.533,114312,N,0,0,0
5:17.553,114319,),0,0,1
5:17.650,114354,(,0,0,2
5:17.747,114389,t,0,0,0
5:17.822,114416,),0,0,2
5:18.822,114776,(,0,0,1
5:18.847,114785,N,0,0,0
5:18.867,114792,),0,0,1
5:18.981,114833,(,0,0,2
5:19.047,114857,t,0,0,0
5:19.136,114889,),0,0,2
5:19.442,114999,(,0,0,1
5:19.478,115012,N,0,0,0
5:19.503,115021,),0,0,1
5:19.606,115058,(,0,0,2
5:19.686,115087,t,0,0,0
5:19.772,115118,),0,0,2
5:20.756,115472,(,0,0,1
5:20.778,115480,N,0,0,0
5:20.842,115503,),0,0,1
5:20.933,115536,(,0,0,2
5:20.997,115559,t,0,0,0
5:21.083,115590,),0,0,2
5:21.425,115713,(,0,0,1
5:21.456,115724,N,0,0,0
5:21.481,115733,),0,0,1
5:21.603,115777,(,0,0,2
5:21.681,115805,t,0,0,0
5:21.769,115837,),0,0,2
5:23.422,116432,(,0,0,1
5:23.492,116457,N,0,0,0
5:23.517,116466,),0,0,1
5:23.650,116514,(,0,0,2
5:23.708,116535,t,0,0,0
5:23.792,116565,),0,0,2
5:23.947,116621,(,0,0,0
5:23.989,116636,p,0,0,0
5:24.039,116654,),0,0,0
5:24.089,116672,(,0,0,1
5:24.128,116686,N,0,0,0
5:24.150,116694,),0,0,1
5:24.286,116743,(,0,0,2
5:24.347,116765,t,0,0,0
5:24.406,116786,),0,0,2
5:24.717,116898,(,0,0,1
5:24.750,116910,N,0,0,0
5:24.772,116918,),0,0,1
5:24.919,116971,(,0,0,2
5:24.967,116988,t,0,0,5
5:25.069,117025,t,0,0,5
5:25.122,117044,),0,0,2
5:26.650,117594,(,0,0,1
5:26.700,117612,N,0,0,0
5:26.722,117620,),0,0,1
5:26.833,117660,(,0,0,2
5:26.922,117692,t,0,0,5
5:27.058,117741,t,0,0,5
5:27.108,117759,),0,0,2
5:29.350,118566,(,0,0,1
5:29.383,118578,N,0,0,0
5:29.417,118590,),0,0,1
5:29.564,118643,(,0,0,2
5:29.617,118662,t,0,0,5
5:29.714,118697,t,0,0,5
5:29.753,118711,),0,0,2
5:33.750,120150,(,0,0,1
5:33.781,120161,N,0,0,0
5:33.808,120171,),0,0,1
5:33.914,120209,(,0,0,2
5:34.006,120242,t,0,0,0
5:34.089,120272,),0,0,2
5:34.436,120397,(,0,0,1
5:34.467,120408,N,0,0,0
5:34.514,120425,),0,0,1
5:34.614,120461,(,0,0,2
5:34.700,120492,t,0,0,0
5:34.781,120521,),0,0,2
5:35.069,120625,(,0,0,1
5:35.133,120648,N,0,0,0
5:35.189,120668,),0,0,1
5:35.256,120692,(,0,0,2
5:35.275,120699,t,0,0,4
5:35.328,120718,t,0,0,4
5:35.431,120755,),0,0,2
5:35.739,120866,(,0,0,1
5:35.769,120877,N,0,0,0
5:35.792,120885,),0,0,1
5:35.900,120924,(,0,0,2
5:35.986,120955,t,0,0,5
5:36.089,120992,t,0,0,5
5:36.128,121006,),0,0,2
5:36.861,121270,(,0,0,0
5:36.892,121281,p,0,0,0
5:36.931,121295,),0,0,0
5:36.975,121311,(,0,0,1
5:37.031,121331,N,0,0,0
5:37.050,121338,),0,0,1
5:37.203,121393,(,0,0,2
5:37.250,121410,t,0,0,5
5:37.367,121452,t,0,0,5
5:37.419,121471,),0,0,2
5:38.225,121761,(,0,0,1
5:38.247,121769,N,0,0,0
5:38.272,121778,),0,0,1
5:38.378,121816,(,0,0,2
5:38.414,121829,t,0,0,5
5:38.578,121888,t,0,0,5
5:38.608,121899,),0,0,2
5:39.483,122214,(,0,0,1
5:39.511,122224,N,0,0,0
5:39.561,122242,),0,0,1
5:39.683,122286,(,0,0,2
5:39.739,122306,t,0,0,5
5:39.839,122342,t,0,0,5
5:39.897,122363,),0,0,2
5:40.722,122660,(,0,0,1
5:40.789,122684,N,0,0,0
5:40.808,122691,),0,0,1
5:40.953,122743,(,0,0,2
5:41.022,122768,t,0,0,5
5:41.139,122810,t,0,0,5
5:41.178,122824,),0,0,2
5:41.269,122857,(,0,0,0
5:41.303,122869,p,0,0,0
5:41.342,122883,),0,0,0
5:41.411,122908,(,0,0,1
5:41.453,122923,N,0,0,0
5:41.475,122931,),0,0,1
5:41.633,122988,(,0,0,2
5:41.681,123005,t,0,0,5
5:41.797,123047,t,0,0,5
5:41.853,123067,),0,0,2
5:41.889,123080,(,0,0,0
5:41.931,123095,p,0,0,0
5:41.967,123108,),0,0,0
5:42.053,123139,(,0,0,1
5:42.103,123157,N,0,0,0
5:42.122,123164,),0,0,1
5:42.225,123201,(,0,0,2
5:42.283,123222,t,0,0,5
5:42.389,123260,t,0,0,5
5:42.428,123274,),0,0,2
5:43.242,123567,(,0,0,1
5:43.286,123583,N,0,0,0
5:43.308,123591,),0,0,1
5:43.378,123616,(,0,0,2
5:43.506,123662,t,0,0,5
5:43.589,123692,t,0,0,5
5:43.611,123700,),0,0,2
5:43.900,123804,(,0,0,1
5:43.925,123813,N,0,0,0
5:43.947,123821,),0,0,1
5:44.044,123856,(,0,0,2
5:44.136,123889,t,0,0,5
5:44.278,123940,t,0,0,5
5:44.303,123949,),0,0,2
5:44.525,124029,(,0,0,1
5:44.578,124048,N,0,0,0
5:44.600,124056,),0,0,1
5:44.717,124098,(,0,0,2
5:44.800,124128,t,0,0,5
5:44.892,124161,t,0,0,5
5:44.919,124171,),0,0,2
5:45.836,124501,(,0,0,1
5:45.864,124511,N,0,0,0
5:45.886,124519,),0,0,1
5:46.025,124569,(,0,0,2
5:46.072,124586,t,0,0,5
5:46.175,124623,t,0,0,5
5:46.203,124633,),0,0,2
5:47.744,125188,(,0,0,1
5:47.800,125208,N,0,0,0
5:47.822,125216,),0,0,1
5:47.914,125249,(,0,0,2
5:48.006,125282,t,0,0,5
5:48.117,125322,t,0,0,5
5:48.153,125335,),0,0,2
5:48.347,125405,(,0,0,1
5:48.375,125415,N,0,0,0
5:48.394,125422,),0,0,1
5:48.475,125451,(,0,0,2
5:48.586,125491,t,0,0,5
5:48.686,125527,t,0,0,5
5:48.708,125535,),0,0,2
5:48.917,125610,(,0,0,1
5:48.953,125623,N,0,0,0
5:48.975,125631,),0,0,1
5:49.097,125675,(,0,0,2
5:49.186,125707,t,0,0,0
5:49.281,125741,),0,0,2
5:49.489,125816,(,0,0,1
5:49.536,125833,N,0,0,0
5:49.556,125840,),0,0,1
5:49.708,125895,(,0,0,2
5:49.756,125912,t,0,0,5
5:49.853,125947,t,0,0,5
5:49.886,125959,),0,0,2
5:50.081,126029,(,0,0,1
5:50.108,126039,N,0,0,0
5:50.131,126047,),0,0,1
5:50.272,126098,(,0,0,2
5:50.331,126119,t,0,0,0
5:50.431,126155,),0,0,2
5:51.247,126449,(,0,0,1
5:51.369,126493,N,0,0,0
5:51.392,126501,),0,0,1
5:51.536,126553,(,0,0,2
5:51.606,126578,t,0,0,0
5:51.711,126616,),0,0,2
5:52.000,126720,(,0,0,1
5:52.033,126732,N,0,0,0
5:52.056,126740,),0,0,1
5:52.211,126796,(,0,0,2
5:52.256,126812,t,0,0,0
5:52.361,126850,),0,0,2
5:52.461,126886,(,0,0,0
5:52.478,126892,p,0,0,0
5:52.489,126896,),0,0,0
5:52.647,126953,(,0,0,1
5:52.706,126974,N,0,0,0
5:52.728,126982,),0,0,1
5:52.761,126994,(,0,0,2
5:52.947,127061,t,0,0,0
5:53.031,127091,),0,0,2
5:54.131,127487,(,0,0,0
5:54.186,127507,p,0,0,0
5:54.264,127535,),0,0,0
5:54.442,127599,(,0,0,1
5:54.567,127644,N,0,0,0
5:54.592,127653,),0,0,1
5:54.753,127711,(,0,0,2
5:54.794,127726,t,0,0,5
5:54.897,127763,t,0,0,5
5:54.928,127774,),0,0,2
5:55.039,127814,(,0,0,1
5:55.158,127857,N,0,0,0
5:55.200,127872,),0,0,1
5:55.278,127900,(,0,0,2
5:55.383,127938,t,0,0,5
5:55.517,127986,t,0,0,5
5:55.556,128000,),0,0,2
5:57.644,128752,(,0,0,1
5:57.664,128759,N,0,0,0
5:57.711,128776,),0,0,1
5:57.819,128815,(,0,0,2
5:57.900,128844,t,0,0,0
5:58.022,128888,),0,0,2
5:58.292,128985,(,0,0,1
5:58.325,128997,N,0,0,0
5:58.347,129005,),0,0,1
5:58.481,129053,(,0,0,2
5:58.572,129086,t,0,0,0
5:58.656,129116,),0,0,2
5:58.681,129125,(,0,0,0
5:58.756,129152,p,0,0,0
5:58.842,129183,),0,0,0
5:58.958,129225,(,0,0,1
5:58.986,129235,N,0,0,0
5:59.008,129243,),0,0,1
5:59.144,129292,(,0,0,2
5:59.219,129319,t,0,0,0
5:59.306,129350,),0,0,2
5:59.436,129397,(,0,0,0
5:59.475,129411,p,0,0,0
5:59.558,129441,),0,0,0
5:59.578,129448,(,0,0,1
5:59.622,129464,N,0,0,0
5:59.644,129472,),0,0,1
5:59.744,129508,(,0,0,2
5:59.858,129549,t,0,0,0
5:59.931,129575,),0,0,2
6:00.656,129836,(,0,0,0
6:00.706,129854,p,0,0,0
6:00.744,129868,),0,0,0
6:00.811,129892,(,0,0,1
6:00.836,129901,N,0,0,0
6:00.878,129916,),0,0,1
6:00.989,129956,(,0,0,2
6:01.053,129979,t,0,0,0
6:01.144,130012,),0,0,2
6:02.644,130552,(,0,0,1
6:02.667,130560,N,0,0,0
6:02.689,130568,),0,0,1
6:02.789,130604,(,0,0,2
6:02.897,130643,t,0,0,0
6:02.981,130673,),0,0,2
6:09.144,132892,(,0,0,1
6:09.178,132904,N,0,0,0
6:09.225,132921,),0,0,1
6:09.353,132967,(,0,0,2
6:09.425,132993,t,0,0,0
6:09.511,133024,),0,0,2
6:12.883,134238,(,0,0,0
6:12.922,134252,p,0,0,0
6:12.967,134268,),0,0,0
6:13.028,134290,(,0,0,1
6:13.058,134301,N,0,0,0
6:13.078,134308,),0,0,1
6:13.108,134319,(,0,0,2
6:13.283,134382,t,0,0,0
6:13.378,134416,),0,0,2
6:17.506,135902,(,0,0,0
6:17.547,135917,p,0,0,0
6:17.594,135934,),0,0,0
6:17.661,135958,(,0,0,1
6:17.689,135968,N,0,0,0
6:17.711,135976,),0,0,1
6:17.744,135988,(,0,0,2
6:17.917,136050,t,0,0,0
6:18.011,136084,),0,0,2
6:18.744,136348,(,0,0,0
6:18.783,136362,p,0,0,0
6:18.831,136379,),0,0,0
6:18.886,136399,(,0,0,1
6:18.914,136409,N,0,0,0
6:18.958,136425,),0,0,1
6:18.969,136429,(,0,0,2
6:19.139,136490,t,0,0,0
6:19.233,136524,),0,0,2
6:19.922,136772,(,0,0,0
6:19.964,136787,p,0,0,0
6:20.008,136803,),0,0,0
6:20.069,136825,(,0,0,1
6:20.097,136835,N,0,0,0
6:20.142,136851,),0,0,1
6:20.150,136854,(,0,0,2
6:20.317,136914,t,0,0,0
6:20.414,136949,),0,0,2
6:24.064,138263,(,0,0,1
6:24.092,138273,N,0,0,0
6:24.114,138281,),0,0,1
6:24.258,138333,(,0,0,2
6:24.311,138352,t,0,0,0
6:24.403,138385,),0,0,2
6:24.678,138484,(,0,0,1
6:24.731,138503,N,0,0,0
6:24.775,138519,),0,0,1
6:24.881,138557,(,0,0,2
6:24.953,138583,t,0,0,0
6:25.031,138611,),0,0,2
6:26.592,139173,(,0,0,1
6:26.617,139182,N,0,0,0
6:26.639,139190,),0,0,1
6:26.792,139245,(,0,0,2
6:26.839,139262,t,0,0,0
6:26.933,139296,),0,0,2
6:27.075,139347,(,0,0,0
6:27.108,139359,p,0,0,0
6:27.153,139375,),0,0,0
6:27.231,139403,(,0,0,1
6:27.256,139412,N,0,0,0
6:27.403,139465,),0,0,1
6:27.406,139466,(,0,0,2
6:27.503,139501,t,0,0,5
6:27.600,139536,t,0,0,5
6:27.633,139548,),0,0,2
6:27.658,139557,(,0,0,0
6:27.669,139561,p,0,0,0
6:27.756,139592,),0,0,0
6:27.844,139624,(,0,0,1
6:27.906,139646,N,0,0,0
6:27.947,139661,),0,0,1
6:28.081,139709,(,0,0,2
6:28.139,139730,t,0,0,0
6:28.239,139766,),0,0,2
6:28.542,139875,(,0,0,1
6:28.569,139885,N,0,0,0
6:28.614,139901,),0,0,1
6:28.728,139942,(,0,0,2
6:28.817,139974,t,0,0,0
6:28.911,140008,),0,0,2
6:29.239,140126,(,0,0,1
6:29.272,140138,N,0,0,0
6:29.319,140155,),0,0,1
6:29.464,140207,(,0,0,2
6:29.522,140228,t,0,0,0
6:29.589,140252,),0,0,2
6:29.906,140366,(,0,0,1
6:29.922,140372,N,0,0,0
6:29.975,140391,),0,0,1
6:30.069,140425,(,0,0,2
6:30.144,140452,t,0,0,5
6:30.239,140486,t,0,0,5
6:30.267,140496,),0,0,2
6:30.517,140586,(,0,0,1
6:30.550,140598,N,0,0,0
6:30.569,140605,),0,0,1
6:30.711,140656,(,0,0,2
6:30.778,140680,t,0,0,0
6:30.867,140712,),0,0,2
6:31.025,140769,(,0,0,0
6:31.033,140772,p,0,0,0
6:31.069,140785,),0,0,0
6:31.131,140807,(,0,0,1
6:31.164,140819,N,0,0,0
6:31.183,140826,),0,0,1
6:31.336,140881,(,0,0,2
6:31.386,140899,t,0,0,0
6:31.489,140936,),0,0,2
6:31.736,141025,(,0,0,1
6:31.806,141050,N,0,0,0
6:31.825,141057,),0,0,1
6:31.942,141099,(,0,0,2
6:32.025,141129,t,0,0,0
6:32.133,141168,),0,0,2
6:32.422,141272,(,0,0,1
6:32.447,141281,N,0,0,0
6:32.469,141289,),0,0,1
6:32.603,141337,(,0,0,2
6:32.672,141362,t,0,0,0
6:32.756,141392,),0,0,2
6:33.056,141500,(,0,0,1
6:33.086,141511,N,0,0,0
6:33.139,141530,),0,0,1
6:33.269,141577,(,0,0,2
6:33.328,141598,t,0,0,0
6:33.428,141634,),0,0,2
6:33.753,141751,(,0,0,1
6:33.781,141761,N,0,0,0
6:33.803,141769,),0,0,1
6:33.950,141822,(,0,0,2
6:34.031,141851,t,0,0,0
6:34.139,141890,),0,0,2
6:34.444,142000,(,0,0,1
6:34.481,142013,N,0,0,0
6:34.503,142021,),0,0,1
6:34.644,142072,(,0,0,2
6:34.719,142099,t,0,0,0
6:34.806,142130,),0,0,2
6:35.125,142245,(,0,0,1
6:35.150,142254,N,0,0,0
6:35.172,142262,),0,0,1
6:35.344,142324,(,0,0,2
6:35.389,142340,t,0,0,0
6:35.481,142373,),0,0,2
6:35.811,142492,(,0,0,1
6:35.831,142499,N,0,0,0
6:35.850,142506,),0,0,1
6:35.997,142559,(,0,0,2
6:36.053,142579,t,0,0,5
6:36.178,142624,t,0,0,5
6:36.208,142635,),0,0,2
6:36.442,142719,(,0,0,1
6:36.506,142742,N,0,0,0
6:36.544,142756,),0,0,1
6:36.661,142798,(,0,0,2
6:36.728,142822,t,0,0,0
6:36.828,142858,),0,0,2
6:37.142,142971,(,0,0,1
6:37.172,142982,N,0,0,0
6:37.192,142989,),0,0,1
6:37.353,143047,(,0,0,2
6:37.406,143066,t,0,0,0
6:37.511,143104,),0,0,2
6:37.747,143189,(,0,0,1
6:37.817,143214,N,0,0,0
6:37.839,143222,),0,0,1
6:37.964,143267,(,0,0,2
6:38.039,143294,t,0,0,5
6:38.172,143342,t,0,0,5
6:38.208,143355,),0,0,2
6:38.428,143434,(,0,0,1
6:38.453,143443,N,0,0,0
6:38.475,143451,),0,0,1
6:38.617,143502,(,0,0,2
6:38.678,143524,t,0,0,0
6:38.769,143557,),0,0,2
6:39.072,143666,(,0,0,1
6:39.086,143671,N,0,0,0
6:39.106,143678,),0,0,1
6:39.267,143736,(,0,0,2
6:39.325,143757,t,0,0,5
6:39.433,143796,t,0,0,5
6:39.461,143806,),0,0,2
6:40.400,144144,(,0,0,1
6:40.428,144154,N,0,0,0
6:40.467,144168,),0,0,1
6:40.597,144215,(,0,0,2
6:40.664,144239,t,0,0,5
6:40.792,144285,t,0,0,5
6:40.814,144293,),0,0,2
6:41.044,144376,(,0,0,1
6:41.072,144386,N,0,0,0
6:41.094,144394,),0,0,1
6:41.233,144444,(,0,0,2
6:41.325,144477,t,0,0,0
6:41.386,144499,),0,0,2
6:41.675,144603,(,0,0,1
6:41.700,144612,N,0,0,0
6:41.725,144621,),0,0,1
6:41.856,144668,(,0,0,2
6:41.933,144696,t,0,0,0
6:42.011,144724,),0,0,2
6:42.106,144758,(,0,0,0
6:42.147,144773,p,0,0,0
6:42.192,144789,),0,0,0
6:42.281,144821,(,0,0,1
6:42.336,144841,N,0,0,0
6:42.375,144855,),0,0,1
6:42.489,144896,(,0,0,2
6:42.553,144919,t,0,0,0
6:42.631,144947,),0,0,2
6:43.572,145286,(,0,0,1
6:43.597,145295,N,0,0,0
6:43.636,145309,),0,0,1
6:43.764,145355,(,0,0,2
6:43.808,145371,t,0,0,0
6:43.908,145407,),0,0,2
6:43.964,145427,(,0,0,0
6:44.036,145453,p,0,0,0
6:44.078,145468,),0,0,0
6:44.153,145495,(,0,0,1
6:44.222,145520,N,0,0,0
6:44.264,145535,),0,0,1
6:44.406,145586,(,0,0,2
6:44.450,145602,t,0,0,0
6:44.547,145637,),0,0,2
6:44.694,145690,(,0,0,0
6:44.742,145707,p,0,0,0
6:44.811,145732,),0,0,0
6:44.842,145743,(,0,0,1
6:44.889,145760,N,0,0,0
6:44.911,145768,),0,0,1
6:45.069,145825,(,0,0,2
6:45.128,145846,t,0,0,0
6:45.236,145885,),0,0,2
6:45.567,146004,(,0,0,1
6:45.603,146017,N,0,0,0
6:45.625,146025,),0,0,1
6:45.792,146085,(,0,0,2
6:45.847,146105,t,0,0,0
6:45.956,146144,),0,0,2
6:48.842,147183,(,0,0,1
6:48.872,147194,N,0,0,0
6:48.892,147201,),0,0,1
6:49.022,147248,(,0,0,2
6:49.094,147274,t,0,0,0
6:49.183,147306,),0,0,2
6:49.319,147355,(,0,0,0
6:49.331,147359,p,0,0,0
6:49.344,147364,),0,0,0
6:49.458,147405,(,0,0,1
6:49.486,147415,N,0,0,0
6:49.528,147430,),0,0,1
6:49.628,147466,(,0,0,2
6:49.708,147495,t,0,0,5
6:49.814,147533,t,0,0,5
6:49.842,147543,),0,0,2
6:49.928,147574,(,0,0,0
6:49.950,147582,p,0,0,0
6:49.981,147593,),0,0,0
6:50.072,147626,(,0,0,1
6:50.125,147645,N,0,0,0
6:50.150,147654,),0,0,1
6:50.258,147693,(,0,0,2
6:50.361,147730,t,0,0,0
6:50.450,147762,),0,0,2
6:50.761,147874,(,0,0,1
6:50.789,147884,N,0,0,0
6:50.814,147893,),0,0,1
6:50.961,147946,(,0,0,2
6:51.022,147968,t,0,0,0
6:51.122,148004,),0,0,2
6:51.414,148109,(,0,0,1
6:51.447,148121,N,0,0,0
6:51.469,148129,),0,0,1
6:51.608,148179,(,0,0,2
6:51.683,148206,t,0,0,0
6:51.769,148237,),0,0,2
6:52.019,148327,(,0,0,1
6:52.111,148360,N,0,0,0
6:52.244,148408,),0,0,1
6:52.250,148410,(,0,0,2
6:52.353,148447,t,0,0,5
6:52.458,148485,t,0,0,5
6:52.489,148496,),0,0,2
6:52.769,148597,(,0,0,1
6:52.792,148605,N,0,0,0
6:52.839,148622,),0,0,1
6:52.967,148668,(,0,0,2
6:53.036,148693,t,0,0,5
6:53.144,148732,t,0,0,5
6:53.169,148741,),0,0,2
6:58.892,150801,(,0,0,1
6:58.911,150808,N,0,0,0
6:58.933,150816,),0,0,1
6:59.072,150866,(,0,0,2
6:59.153,150895,t,0,0,0
6:59.258,150933,),0,0,2
7:00.681,151445,(,0,0,1
7:00.739,151466,N,0,0,0
7:00.758,151473,),0,0,1
7:00.889,151520,(,0,0,2
7:00.953,151543,t,0,0,5
7:01.106,151598,t,0,0,5
7:01.197,151631,),0,0,2
7:03.078,152308,(,0,0,1
7:03.103,152317,N,0,0,0
7:03.128,152326,),0,0,1
7:03.286,152383,(,0,0,2
7:03.344,152404,t,0,0,0
7:03.422,152432,),0,0,2
7:03.628,152506,(,0,0,1
7:03.706,152534,N,0,0,0
7:03.731,152543,),0,0,1
7:03.864,152591,(,0,0,2
7:03.933,152616,t,0,0,5
7:04.044,152656,t,0,0,5
7:04.072,152666,),0,0,2
7:04.936,152977,(,0,0,1
7:04.961,152986,N,0,0,0
7:05.097,153035,),0,0,1
7:05.108,153039,(,0,0,2
7:05.167,153060,t,0,0,5
7:05.297,153107,t,0,0,5
7:05.331,153119,),0,0,2
7:05.553,153199,(,0,0,1
7:05.581,153209,N,0,0,0
7:05.617,153222,),0,0,1
7:05.722,153260,(,0,0,2
7:05.814,153293,t,0,0,0
7:05.875,153315,),0,0,2
7:06.142,153411,(,0,0,1
7:06.169,153421,N,0,0,0
7:06.192,153429,),0,0,1
7:06.358,153489,(,0,0,2
7:06.400,153504,t,0,0,0
7:06.500,153540,),0,0,2
7:06.706,153614,(,0,0,1
7:06.756,153632,N,0,0,0
7:06.878,153676,),0,0,1
7:06.892,153681,(,0,0,2
7:06.958,153705,t,0,0,5
7:07.117,153762,t,0,0,5
7:07.200,153792,),0,0,2
7:09.053,154459,(,0,0,1
7:09.089,154472,N,0,0,0
7:09.111,154480,),0,0,1
7:09.267,154536,(,0,0,2
7:09.322,154556,t,0,0,5
7:09.436,154597,t,0,0,5
7:09.478,154612,),0,0,2
7:09.572,154646,(,0,0,0
7:09.614,154661,p,0,0,0
7:09.675,154683,),0,0,0
7:09.725,154701,(,0,0,1
7:09.756,154712,N,0,0,0
7:09.778,154720,),0,0,1
7:09.931,154775,(,0,0,2
7:09.994,154798,t,0,0,5
7:10.097,154835,t,0,0,5
7:10.142,154851,),0,0,2
7:10.403,154945,(,0,0,1
7:10.433,154956,N,0,0,0
7:10.481,154973,),0,0,1
7:10.597,155015,(,0,0,2
7:10.672,155042,t,0,0,0
7:10.786,155083,),0,0,2
7:11.078,155188,(,0,0,1
7:11.106,155198,N,0,0,0
7:11.128,155206,),0,0,1
7:11.272,155258,(,0,0,2
7:11.317,155274,t,0,0,5
7:11.433,155316,t,0,0,5
7:11.458,155325,),0,0,2
7:12.769,155797,(,0,0,0
7:12.803,155809,p,0,0,0
7:12.839,155822,),0,0,0
7:12.903,155845,(,0,0,1
7:12.931,155855,N,0,0,0
7:12.950,155862,),0,0,1
7:13.064,155903,(,0,0,2
7:13.156,155936,t,0,0,0
7:13.228,155962,),0,0,2
7:13.636,156109,(,0,0,0
7:13.725,156141,p,0,0,0
7:13.800,156168,),0,0,0
7:13.986,156235,(,0,0,1
7:14.069,156265,N,0,0,0
7:14.089,156272,),0,0,1
7:14.208,156315,(,0,0,2
7:14.300,156348,t,0,0,0
7:14.394,156382,),0,0,2
7:15.811,156892,(,0,0,1
7:15.839,156902,N,0,0,0
7:15.864,156911,),0,0,1
7:16.028,156970,(,0,0,2
7:16.075,156987,t,0,0,0
7:16.175,157023,),0,0,2
7:16.414,157109,(,0,0,1
7:16.450,157122,N,0,0,0
7:16.489,157136,),0,0,1
7:16.583,157170,(,0,0,2
7:16.692,157209,t,0,0,5
7:16.803,157249,t,0,0,5
7:16.825,157257,),0,0,2
7:18.292,157785,(,0,0,1
7:18.339,157802,N,0,0,0
7:18.386,157819,),0,0,1
7:18.500,157860,(,0,0,2
7:18.564,157883,t,0,0,5
7:18.664,157919,t,0,0,5
7:18.694,157930,),0,0,2
7:20.083,158430,(,0,0,1
7:20.142,158451,N,0,0,0
7:20.164,158459,),0,0,1
7:20.292,158505,(,0,0,2
7:20.372,158534,t,0,0,0
7:20.456,158564,),0,0,2
7:20.750,158670,(,0,0,1
7:20.767,158676,N,0,0,0
7:20.789,158684,),0,0,1
7:20.906,158726,(,0,0,2
7:21.003,158761,t,0,0,0
7:21.103,158797,),0,0,2
7:22.022,159128,(,0,0,1
7:22.047,159137,N,0,0,0
7:22.067,159144,),0,0,1
7:22.203,159193,(,0,0,2
7:22.294,159226,t,0,0,5
7:22.394,159262,t,0,0,5
7:22.436,159277,),0,0,2
7:22.653,159355,(,0,0,1
7:22.692,159369,N,0,0,0
7:22.714,159377,),0,0,1
7:22.903,159445,(,0,0,2
7:22.944,159460,t,0,0,5
7:23.058,159501,t,0,0,5
7:23.119,159523,),0,0,2
7:23.164,159539,(,0,0,0
7:23.197,159551,p,0,0,0
7:23.239,159566,),0,0,0
7:23.311,159592,(,0,0,1
7:23.336,159601,N,0,0,0
7:23.378,159616,),0,0,1
7:23.506,159662,(,0,0,2
7:23.558,159681,t,0,0,0
7:23.667,159720,),0,0,2
7:23.783,159762,(,0,0,0
7:23.819,159775,p,0,0,0
7:23.886,159799,),0,0,0
7:23.933,159816,(,0,0,1
7:23.964,159827,N,0,0,0
7:23.983,159834,),0,0,1
7:24.119,159883,(,0,0,2
7:24.183,159906,t,0,0,0
7:24.281,159941,),0,0,2
7:24.522,160028,(,0,0,1
7:24.553,160039,N,0,0,0
7:24.575,160047,),0,0,1
7:24.706,160094,(,0,0,2
7:24.767,160116,t,0,0,0
7:24.856,160148,),0,0,2
7:25.086,160231,(,0,0,1
7:25.142,160251,N,0,0,0
7:25.164,160259,),0,0,1
7:25.261,160294,(,0,0,2
7:25.369,160333,t,0,0,5
7:25.461,160366,t,0,0,5
7:25.483,160374,),0,0,2
7:26.308,160671,(,0,0,1
7:26.336,160681,N,0,0,0
7:26.383,160698,),0,0,1
7:26.517,160746,(,0,0,2
7:26.561,160762,t,0,0,0
7:26.661,160798,),0,0,2
7:26.708,160815,(,0,0,0
7:26.731,160823,p,0,0,0
7:26.822,160856,),0,0,0
7:26.903,160885,(,0,0,1
7:26.964,160907,N,0,0,0
7:27.003,160921,),0,0,1
7:27.122,160964,(,0,0,2
7:27.183,160986,t,0,0,0
7:27.275,161019,),0,0,2
7:27.508,161103,(,0,0,1
7:27.575,161127,N,0,0,0
7:27.597,161135,),0,0,1
7:27.739,161186,(,0,0,2
7:27.811,161212,t,0,0,0
7:27.903,161245,),0,0,2
7:28.139,161330,(,0,0,1
7:28.211,161356,N,0,0,0
7:28.233,161364,),0,0,1
7:28.367,161412,(,0,0,2
7:28.453,161443,t,0,0,0
7:28.542,161475,),0,0,2
7:28.803,161569,(,0,0,1
7:28.861,161590,N,0,0,0
7:28.881,161597,),0,0,1
7:29.039,161654,(,0,0,2
7:29.100,161676,t,0,0,0
7:29.194,161710,),0,0,2
7:30.050,162018,(,0,0,1
7:30.108,162039,N,0,0,0
7:30.131,162047,),0,0,1
7:30.244,162088,(,0,0,2
7:30.328,162118,t,0,0,0
7:30.414,162149,),0,0,2
7:30.633,162228,(,0,0,1
7:30.711,162256,N,0,0,0
7:30.733,162264,),0,0,1
7:30.872,162314,(,0,0,2
7:30.936,162337,t,0,0,5
7:31.050,162378,t,0,0,5
7:31.083,162390,),0,0,2
7:31.272,162458,(,0,0,1
7:31.308,162471,N,0,0,0
7:31.328,162478,),0,0,1
7:31.456,162524,(,0,0,2
7:31.522,162548,t,0,0,0
7:31.642,162591,),0,0,2
7:32.961,163066,(,0,0,0
7:32.989,163076,p,0,0,0
7:33.047,163097,),0,0,0
7:33.097,163115,(,0,0,1
7:33.128,163126,N,0,0,0
7:33.150,163134,),0,0,1
7:33.186,163147,(,0,0,2
7:33.369,163213,t,0,0,0
7:33.467,163248,),0,0,2
7:34.225,163521,(,0,0,0
7:34.278,163540,p,0,0,0
7:34.347,163565,),0,0,0
7:34.358,163569,(,0,0,1
7:34.417,163590,N,0,0,0
7:34.439,163598,),0,0,1
7:34.472,163610,(,0,0,2
7:34.614,163661,t,0,0,0
7:34.756,163712,),0,0,2
7:35.228,163882,(,0,0,0
7:35.283,163902,p,0,0,0
7:35.369,163933,),0,0,0
7:35.556,164000,(,0,0,1
7:35.653,164035,N,0,0,0
7:35.672,164042,),0,0,1
7:35.822,164096,(,0,0,2
7:35.867,164112,t,0,0,0
7:35.961,164146,),0,0,2
7:37.431,164675,(,0,0,1
7:37.461,164686,N,0,0,0
7:37.483,164694,),0,0,1
7:37.600,164736,(,0,0,2
7:37.692,164769,t,0,0,5
7:37.800,164808,t,0,0,5
7:37.839,164822,),0,0,2
7:38.050,164898,(,0,0,1
7:38.072,164906,N,0,0,0
7:38.119,164923,),0,0,1
7:38.219,164959,(,0,0,2
7:38.292,164985,t,0,0,5
7:38.425,165033,t,0,0,5
7:38.456,165044,),0,0,2
7:39.939,165578,(,0,0,1
7:40.011,165604,N,0,0,0
7:40.033,165612,),0,0,1
7:40.214,165677,(,0,0,2
7:40.253,165691,t,0,0,5
7:40.356,165728,t,0,0,5
7:40.383,165738,),0,0,2
7:41.111,166000,(,0,0,0
7:41.139,166010,p,0,0,0
7:41.186,166027,),0,0,0
7:41.247,166049,(,0,0,1
7:41.278,166060,N,0,0,0
7:41.303,166069,),0,0,1
7:41.439,166118,(,0,0,2
7:41.519,166147,t,0,0,0
7:41.631,166187,),0,0,2
7:43.064,166703,(,0,0,1
7:43.128,166726,N,0,0,0
7:43.172,166742,),0,0,1
7:43.278,166780,(,0,0,2
7:43.344,166804,t,0,0,0
7:43.436,166837,),0,0,2
7:43.700,166932,(,0,0,1
7:43.725,166941,N,0,0,0
7:43.747,166949,),0,0,1
7:43.869,166993,(,0,0,2
7:43.947,167021,t,0,0,0
7:44.047,167057,),0,0,2
7:44.258,167133,(,0,0,1
7:44.353,167167,N,0,0,0
7:44.372,167174,),0,0,1
7:44.506,167222,(,0,0,2
7:44.583,167250,t,0,0,0
7:44.694,167290,),0,0,2
7:44.786,167323,(,0,0,0
7:44.792,167325,p,0,0,0
7:44.842,167343,),0,0,0
7:44.964,167387,(,0,0,1
7:44.992,167397,N,0,0,0
7:45.011,167404,),0,0,1
7:45.122,167444,(,0,0,2
7:45.225,167481,t,0,0,5
7:45.328,167518,t,0,0,5
7:45.361,167530,),0,0,2
7:45.581,167609,(,0,0,1
7:45.619,167623,N,0,0,0
7:45.644,167632,),0,0,1
7:45.786,167683,(,0,0,2
7:45.853,167707,t,0,0,5
7:45.956,167744,t,0,0,5
7:45.981,167753,),0,0,2
7:46.264,167855,(,0,0,1
7:46.297,167867,N,0,0,0
7:46.319,167875,),0,0,1
7:46.350,167886,(,0,0,2
7:46.442,167919,t,0,0,5
7:46.650,167994,t,0,0,5
7:46.711,168016,),0,0,2
7:46.769,168037,(,0,0,0
7:46.825,168057,p,0,0,0
7:46.867,168072,),0,0,0
7:46.947,168101,(,0,0,1
7:46.972,168110,N,0,0,0
7:47.025,168129,),0,0,1
7:47.156,168176,(,0,0,2
7:47.208,168195,t,0,0,0
7:47.314,168233,),0,0,2
7:47.592,168333,(,0,0,1
7:47.614,168341,N,0,0,0
7:47.633,168348,),0,0,1
7:47.808,168411,(,0,0,2
7:47.847,168425,t,0,0,0
7:47.936,168457,),0,0,2
7:49.450,169002,(,0,0,1
7:49.483,169014,N,0,0,0
7:49.531,169031,),0,0,1
7:49.644,169072,(,0,0,2
7:49.708,169095,t,0,0,5
7:49.839,169142,t,0,0,5
7:49.883,169158,),0,0,2
7:50.031,169211,(,0,0,1
7:50.106,169238,N,0,0,0
7:50.147,169253,),0,0,1
7:50.256,169292,(,0,0,2
7:50.328,169318,t,0,0,0
7:50.417,169350,),0,0,2
7:50.569,169405,(,0,0,0
7:50.583,169410,p,0,0,0
7:50.600,169416,),0,0,0
7:50.708,169455,(,0,0,1
7:50.742,169467,N,0,0,0
7:50.764,169475,),0,0,1
7:50.925,169533,(,0,0,2
7:50.981,169553,t,0,0,0
7:51.061,169582,),0,0,2
7:51.406,169706,(,0,0,1
7:51.428,169714,N,0,0,0
7:51.447,169721,),0,0,1
7:51.611,169780,(,0,0,2
7:51.669,169801,t,0,0,0
7:51.733,169824,),0,0,2
7:52.008,169923,(,0,0,1
7:52.103,169957,N,0,0,0
7:52.147,169973,),0,0,1
7:52.275,170019,(,0,0,2
7:52.339,170042,t,0,0,5
7:52.453,170083,t,0,0,5
7:52.481,170093,),0,0,2
7:54.664,170879,(,0,0,1
7:54.689,170888,N,0,0,0
7:54.711,170896,),0,0,1
7:54.842,170943,(,0,0,2
7:54.919,170971,t,0,0,5
7:55.011,171004,t,0,0,5
7:55.050,171018,),0,0,2
7:55.253,171091,(,0,0,1
7:55.283,171102,N,0,0,0
7:55.303,171109,),0,0,1
7:55.333,171120,(,0,0,2
7:55.500,171180,t,0,0,0
7:55.594,171214,),0,0,2
7:55.681,171245,(,0,0,0
7:55.733,171264,p,0,0,0
7:55.772,171278,),0,0,0
7:55.847,171305,(,0,0,1
7:55.869,171313,N,0,0,0
7:55.892,171321,),0,0,1
7:55.925,171333,(,0,0,2
7:56.089,171392,t,0,0,0
7:56.183,171426,),0,0,2
7:56.283,171462,(,0,0,0
7:56.325,171477,p,0,0,0
7:56.369,171493,),0,0,0
7:56.431,171515,(,0,0,1
7:56.461,171526,N,0,0,0
7:56.506,171542,),0,0,1
7:56.517,171546,(,0,0,2
7:56.689,171608,t,0,0,0
7:56.783,171642,),0,0,2
7:56.886,171679,(,0,0,0
7:56.928,171694,p,0,0,0
7:56.972,171710,),0,0,0
7:57.036,171733,(,0,0,1
7:57.067,171744,N,0,0,0
7:57.089,171752,),0,0,1
7:57.125,171765,(,0,0,2
7:57.306,171830,t,0,0,0
7:57.408,171867,),0,0,2
7:57.533,171912,(,0,0,0
7:57.578,171928,p,0,0,0
7:57.625,171945,),0,0,0
7:57.664,171959,(,0,0,1
7:57.722,171980,N,0,0,0
7:57.767,171996,),0,0,1
7:57.867,172032,(,0,0,2
7:57.969,172069,t,0,0,0
7:58.075,172107,),0,0,2
7:58.261,172174,(,0,0,0
7:58.311,172192,p,0,0,0
7:58.353,172207,),0,0,0
7:58.411,172228,(,0,0,1
7:58.453,172243,N,0,0,0
7:58.522,172268,),0,0,1
7:58.664,172319,(,0,0,2
7:58.700,172332,t,0,0,5
7:58.794,172366,t,0,0,5
7:58.828,172378,),0,0,2
8:00.950,173142,(,0,0,1
8:01.019,173167,N,0,0,0
8:01.064,173183,),0,0,1
8:01.169,173221,(,0,0,2
8:01.236,173245,t,0,0,5
8:01.372,173294,t,0,0,5
8:01.403,173305,),0,0,2
8:02.633,173748,(,0,0,0
8:02.672,173762,p,0,0,0
8:02.717,173778,),0,0,0
8:02.769,173797,(,0,0,1
8:02.822,173816,N,0,0,0
8:02.844,173824,),0,0,1
8:02.967,173868,(,0,0,2
8:03.047,173897,t,0,0,0
8:03.156,173936,),0,0,2
8:03.453,174043,(,0,0,1
8:03.475,174051,N,0,0,0
8:03.497,174059,),0,0,1
8:03.658,174117,(,0,0,2
8:03.722,174140,t,0,0,5
8:03.842,174183,t,0,0,5
8:03.878,174196,),0,0,2
8:04.758,174513,(,0,0,1
8:04.825,174537,N,0,0,0
8:04.861,174550,),0,0,1
8:04.978,174592,(,0,0,2
8:05.061,174622,t,0,0,5
8:05.178,174664,t,0,0,5
8:05.225,174681,),0,0,2
8:05.253,174691,(,0,0,0
8:05.264,174695,p,0,0,0
8:05.353,174727,),0,0,0
8:05.481,174773,(,0,0,1
8:05.503,174781,N,0,0,0
8:05.525,174789,),0,0,1
8:05.669,174841,(,0,0,2
8:05.733,174864,t,0,0,0
8:05.842,174903,),0,0,2
8:06.172,175022,(,0,0,1
8:06.197,175031,N,0,0,0
8:06.242,175047,),0,0,1
8:06.342,175083,(,0,0,2
8:06.419,175111,t,0,0,5
8:06.561,175162,t,0,0,5
8:06.592,175173,),0,0,2
8:06.711,175216,(,0,0,1
8:06.836,175261,N,0,0,0
8:06.886,175279,),0,0,1
8:06.992,175317,(,0,0,2
8:07.053,175339,t,0,0,0
8:07.153,175375,),0,0,2
8:07.900,175644,(,0,0,0
8:07.933,175656,p,0,0,0
8:07.981,175673,),0,0,0
8:08.033,175692,(,0,0,1
8:08.061,175702,N,0,0,0
8:08.083,175710,),0,0,1
8:08.194,175750,(,0,0,2
8:08.286,175783,t,0,0,5
8:08.389,175820,t,0,0,5
8:08.428,175834,),0,0,2
8:08.644,175912,(,0,0,1
8:08.703,175933,N,0,0,0
8:08.725,175941,),0,0,1
8:08.864,175991,(,0,0,2
8:08.936,176017,t,0,0,5
8:09.075,176067,t,0,0,5
8:09.103,176077,),0,0,2
8:11.314,176873,(,0,0,1
8:11.356,176888,N,0,0,0
8:11.408,176907,),0,0,1
8:11.533,176952,(,0,0,2
8:11.589,176972,t,0,0,0
8:11.681,177005,),0,0,2
8:12.011,177124,(,0,0,1
8:12.039,177134,N,0,0,0
8:12.061,177142,),0,0,1
8:12.092,177153,(,0,0,2
8:12.267,177216,t,0,0,0
8:12.358,177249,),0,0,2
8:16.500,178740,(,0,0,1
8:16.581,178769,N,0,0,0
8:16.628,178786,),0,0,1
8:16.767,178836,(,0,0,2
8:16.808,178851,t,0,0,0
8:16.919,178891,),0,0,2
8:16.972,178910,(,0,0,0
8:16.983,178914,p,0,0,0
8:16.992,178917,),0,0,0
8:17.208,178995,(,0,0,1
8:17.233,179004,N,0,0,0
8:17.283,179022,),0,0,1
8:17.417,179070,(,0,0,2
8:17.472,179090,t,0,0,5
8:17.581,179129,t,0,0,5
8:17.611,179140,),0,0,2
8:18.464,179447,(,0,0,1
8:18.489,179456,N,0,0,0
8:18.556,179480,),0,0,1
8:18.656,179516,(,0,0,2
8:18.719,179539,t,0,0,5
8:18.839,179582,t,0,0,5
8:18.878,179596,),0,0,2
8:19.039,179654,(,0,0,1
8:19.111,179680,N,0,0,0
8:19.133,179688,),0,0,1
8:19.281,179741,(,0,0,2
8:19.331,179759,t,0,0,0
8:19.433,179796,),0,0,2
8:19.600,179856,(,0,0,0
8:19.636,179869,p,0,0,0
8:19.675,179883,),0,0,0
8:19.744,179908,(,0,0,1
8:19.764,179915,N,0,0,0
8:19.786,179923,),0,0,1
8:19.903,179965,(,0,0,2
8:19.989,179996,t,0,0,0
8:20.072,180026,),0,0,2
8:20.392,180141,(,0,0,1
8:20.417,180150,N,0,0,0
8:20.456,180164,),0,0,1
8:20.586,180211,(,0,0,2
8:20.639,180230,t,0,0,0
8:20.742,180267,),0,0,2
8:20.908,180327,(,0,0,0
8:20.944,180340,p,0,0,0
8:20.986,180355,),0,0,0
8:21.058,180381,(,0,0,1
8:21.086,180391,N,0,0,0
8:21.119,180403,),0,0,1
8:21.222,180440,(,0,0,2
8:21.336,180481,t,0,0,5
8:21.422,180512,t,0,0,5
8:21.444,180520,),0,0,2
8:21.708,180615,(,0,0,1
8:21.792,180645,N,0,0,0
8:21.842,180663,),0,0,1
8:21.922,180692,(,0,0,2
8:22.017,180726,t,0,0,0
8:22.128,180766,),0,0,2
8:23.044,181096,(,0,0,1
8:23.108,181119,N,0,0,0
8:23.131,181127,),0,0,1
8:23.278,181180,(,0,0,2
