Elapsedtime,sample,Type,Sub,Chan,Num
0:00.419,151,(,0,0,0
0:00.514,185,p,0,0,0
0:00.572,206,),0,0,0
0:00.633,228,(,0,0,1
0:00.700,252,N,0,0,0
0:00.747,269,),0,0,1
0:00.842,303,(,0,0,2
0:00.931,335,t,0,0,0
0:01.028,370,),0,0,2
0:01.158,417,(,0,0,0
0:01.194,430,p,0,0,0
0:01.231,443,),0,0,0
0:01.289,464,(,0,0,1
0:01.325,477,N,0,0,0
0:01.372,494,),0,0,1
0:01.464,527,(,0,0,2
0:01.589,572,t,0,0,0
0:01.669,601,),0,0,2
0:01.697,611,(,0,0,0
0:01.728,622,p,0,0,0
0:01.769,637,),0,0,0
0:01.831,659,(,0,0,1
0:01.867,672,N,0,0,0
0:01.917,690,),0,0,1
0:02.011,724,(,0,0,2
0:02.122,764,t,0,0,0
0:02.228,802,),0,0,2
0:02.247,809,(,0,0,0
0:02.281,821,p,0,0,0
0:02.319,835,),0,0,0
0:02.383,858,(,0,0,1
0:02.422,872,N,0,0,0
0:02.472,890,),0,0,1
0:02.564,923,(,0,0,2
0:02.678,964,t,0,0,0
0:02.789,1004,),0,0,2
0:02.817,1014,(,0,0,0
0:02.850,1026,p,0,0,0
0:02.889,1040,),0,0,0
0:02.950,1062,(,0,0,1
0:02.986,1075,N,0,0,0
0:03.036,1093,),0,0,1
0:03.117,1122,(,0,0,2
0:03.233,1164,t,0,0,0
0:03.331,1199,),0,0,2
0:03.361,1210,(,0,0,0
0:03.394,1222,p,0,0,0
0:03.433,1236,),0,0,0
0:03.494,1258,(,0,0,1
0:03.531,1271,N,0,0,0
0:03.583,1290,),0,0,1
0:03.681,1325,(,0,0,2
0:03.789,1364,t,0,0,0
0:03.881,1397,),0,0,2
0:03.906,1406,(,0,0,0
0:03.936,1417,p,0,0,0
0:03.975,1431,),0,0,0
0:04.036,1453,(,0,0,1
0:04.069,1465,N,0,0,0
0:04.117,1482,),0,0,1
0:04.211,1516,(,0,0,2
0:04.308,1551,t,0,0,0
0:04.408,1587,),0,0,2
0:04.428,1594,(,0,0,0
0:04.458,1605,p,0,0,0
0:04.494,1618,),0,0,0
0:04.533,1632,(,0,0,1
0:04.594,1654,N,0,0,0
0:04.644,1672,),0,0,1
0:04.731,1703,(,0,0,2
0:04.842,1743,t,0,0,0
0:04.947,1781,),0,0,2
0:04.972,1790,(,0,0,0
0:05.006,1802,p,0,0,0
0:05.039,1814,),0,0,0
0:05.100,1836,(,0,0,1
0:05.133,1848,N,0,0,0
0:05.186,1867,),0,0,1
0:05.275,1899,(,0,0,2
0:05.383,1938,t,0,0,0
0:05.481,1973,),0,0,2
0:05.506,1982,(,0,0,0
0:05.544,1996,p,0,0,0
0:05.581,2009,),0,0,0
0:05.644,2032,(,0,0,1
0:05.683,2046,N,0,0,0
0:05.731,2063,),0,0,1
0:05.828,2098,(,0,0,2
0:05.931,2135,t,0,0,0
0:06.019,2167,),0,0,2
0:06.042,2175,(,0,0,0
0:06.072,2186,p,0,0,0
0:06.111,2200,),0,0,0
0:06.172,2222,(,0,0,1
0:06.211,2236,N,0,0,0
0:06.256,2252,),0,0,1
0:06.336,2281,(,0,0,2
0:06.450,2322,t,0,0,0
0:06.561,2362,),0,0,2
0:06.586,2371,(,0,0,0
0:06.619,2383,p,0,0,0
0:06.658,2397,),0,0,0
0:06.722,2420,(,0,0,1
0:06.756,2432,N,0,0,0
0:06.808,2451,),0,0,1
0:06.892,2481,(,0,0,2
0:07.006,2522,t,0,0,0
0:07.103,2557,),0,0,2
0:07.131,2567,(,0,0,0
0:07.167,2580,p,0,0,0
0:07.206,2594,),0,0,0
0:07.269,2617,(,0,0,1
0:07.306,2630,N,0,0,0
0:07.358,2649,),0,0,1
0:07.458,2685,(,0,0,2
0:07.567,2724,t,0,0,0
0:07.667,2760,),0,0,2
0:07.689,2768,(,0,0,0
0:07.722,2780,p,0,0,0
0:07.764,2795,),0,0,0
0:07.828,2818,(,0,0,1
0:07.867,2832,N,0,0,0
0:07.914,2849,),0,0,1
0:08.003,2881,(,0,0,2
0:08.106,2918,t,0,0,0
0:08.200,2952,),0,0,2
0:08.225,2961,(,0,0,0
0:08.258,2973,p,0,0,0
0:08.294,2986,),0,0,0
0:08.353,3007,(,0,0,1
0:08.389,3020,N,0,0,0
0:08.439,3038,),0,0,1
0:08.525,3069,(,0,0,2
0:08.631,3107,t,0,0,0
0:08.742,3147,),0,0,2
0:08.767,3156,(,0,0,0
0:08.803,3169,p,0,0,0
0:08.839,3182,),0,0,0
0:08.903,3205,(,0,0,1
0:08.939,3218,N,0,0,0
0:08.989,3236,),0,0,1
0:09.072,3266,(,0,0,2
0:09.178,3304,t,0,0,0
0:09.272,3338,),0,0,2
0:09.297,3347,(,0,0,0
0:09.331,3359,p,0,0,0
0:09.369,3373,),0,0,0
0:09.428,3394,(,0,0,1
0:09.464,3407,N,0,0,0
0:09.514,3425,),0,0,1
0:09.611,3460,(,0,0,2
0:09.714,3497,t,0,0,0
0:09.811,3532,),0,0,2
0:09.833,3540,(,0,0,0
0:09.867,3552,p,0,0,0
0:09.906,3566,),0,0,0
0:09.969,3589,(,0,0,1
0:10.006,3602,N,0,0,0
0:10.056,3620,),0,0,1
0:10.139,3650,(,0,0,2
0:10.256,3692,t,0,0,0
0:10.372,3734,),0,0,2
0:10.394,3742,(,0,0,0
0:10.428,3754,p,0,0,0
0:10.464,3767,),0,0,0
0:10.533,3792,(,0,0,1
0:10.569,3805,N,0,0,0
0:10.622,3824,),0,0,1
0:10.711,3856,(,0,0,2
0:10.828,3898,t,0,0,0
0:10.933,3936,),0,0,2
0:10.956,3944,(,0,0,0
0:10.989,3956,p,0,0,0
0:11.028,3970,),0,0,0
0:11.092,3993,(,0,0,1
0:11.128,4006,N,0,0,0
0:11.178,4024,),0,0,1
0:11.272,4058,(,0,0,2
0:11.378,4096,t,0,0,0
0:11.478,4132,),0,0,2
0:11.500,4140,(,0,0,0
0:11.528,4150,p,0,0,0
0:11.567,4164,),0,0,0
0:11.628,4186,(,0,0,1
0:11.664,4199,N,0,0,0
0:11.717,4218,),0,0,1
0:11.806,4250,(,0,0,2
0:11.919,4291,t,0,0,0
0:12.031,4331,),0,0,2
0:12.053,4339,(,0,0,0
0:12.086,4351,p,0,0,0
0:12.122,4364,),0,0,0
0:12.186,4387,(,0,0,1
0:12.222,4400,N,0,0,0
0:12.272,4418,),0,0,1
0:12.353,4447,(,0,0,2
0:12.464,4487,t,0,0,0
0:12.558,4521,),0,0,2
0:12.583,4530,(,0,0,0
0:12.617,4542,p,0,0,0
0:12.656,4556,),0,0,0
0:12.714,4577,(,0,0,1
0:12.753,4591,N,0,0,0
0:12.803,4609,),0,0,1
0:12.903,4645,(,0,0,2
0:13.008,4683,t,0,0,0
0:13.103,4717,),0,0,2
0:13.125,4725,(,0,0,0
0:13.153,4735,p,0,0,0
0:13.192,4749,),0,0,0
0:13.253,4771,(,0,0,1
0:13.286,4783,N,0,0,0
0:13.333,4800,),0,0,1
0:13.428,4834,(,0,0,2
0:13.533,4872,t,0,0,0
0:13.628,4906,),0,0,2
0:13.650,4914,(,0,0,0
0:13.681,4925,p,0,0,0
0:13.719,4939,),0,0,0
0:13.781,4961,(,0,0,1
0:13.819,4975,N,0,0,0
0:13.872,4994,),0,0,1
0:13.958,5025,(,0,0,2
0:14.067,5064,t,0,0,0
0:14.172,5102,),0,0,2
0:14.200,5112,(,0,0,0
0:14.233,5124,p,0,0,0
0:14.269,5137,),0,0,0
0:14.331,5159,(,0,0,1
0:14.364,5171,N,0,0,0
0:14.417,5190,),0,0,1
0:14.500,5220,(,0,0,2
0:14.617,5262,t,0,0,0
0:14.717,5298,),0,0,2
0:14.747,5309,(,0,0,0
0:14.783,5322,p,0,0,0
0:14.822,5336,),0,0,0
0:14.889,5360,(,0,0,1
0:14.925,5373,N,0,0,0
0:14.978,5392,),0,0,1
0:15.072,5426,(,0,0,2
0:15.181,5465,t,0,0,0
0:15.275,5499,),0,0,2
0:15.300,5508,(,0,0,0
0:15.331,5519,p,0,0,0
0:15.369,5533,),0,0,0
0:15.408,5547,(,0,0,1
0:15.472,5570,N,0,0,0
0:15.522,5588,),0,0,1
0:15.619,5623,(,0,0,2
0:15.725,5661,t,0,0,0
0:15.833,5700,),0,0,2
0:15.853,5707,(,0,0,0
0:15.889,5720,p,0,0,0
0:15.928,5734,),0,0,0
0:15.994,5758,(,0,0,1
0:16.028,5770,N,0,0,0
0:16.078,5788,),0,0,1
0:16.158,5817,(,0,0,2
0:16.264,5855,t,0,0,0
0:16.364,5891,),0,0,2
0:16.394,5902,(,0,0,0
0:16.425,5913,p,0,0,0
0:16.464,5927,),0,0,0
0:16.522,5948,(,0,0,1
0:16.561,5962,N,0,0,0
0:16.611,5980,),0,0,1
0:16.700,6012,(,0,0,2
0:16.814,6053,t,0,0,0
0:16.906,6086,),0,0,2
0:16.931,6095,(,0,0,0
0:16.961,6106,p,0,0,0
0:17.000,6120,),0,0,0
0:17.061,6142,(,0,0,1
0:17.097,6155,N,0,0,0
0:17.147,6173,),0,0,1
0:17.239,6206,(,0,0,2
0:17.339,6242,t,0,0,0
0:17.436,6277,),0,0,2
0:17.461,6286,(,0,0,0
0:17.492,6297,p,0,0,0
0:17.531,6311,),0,0,0
0:17.592,6333,(,0,0,1
0:17.628,6346,N,0,0,0
0:17.675,6363,),0,0,1
0:17.756,6392,(,0,0,2
0:17.867,6432,t,0,0,0
0:17.978,6472,),0,0,2
0:18.003,6481,(,0,0,0
0:18.036,6493,p,0,0,0
0:18.075,6507,),0,0,0
0:18.111,6520,(,0,0,1
0:18.172,6542,N,0,0,0
0:18.225,6561,),0,0,1
0:18.308,6591,(,0,0,2
0:18.422,6632,t,0,0,0
0:18.522,6668,),0,0,2
0:18.550,6678,(,0,0,0
0:18.586,6691,p,0,0,0
0:18.625,6705,),0,0,0
0:18.686,6727,(,0,0,1
0:18.725,6741,N,0,0,0
0:18.775,6759,),0,0,1
0:18.869,6793,(,0,0,2
0:18.978,6832,t,0,0,0
0:19.081,6869,),0,0,2
0:19.106,6878,(,0,0,0
0:19.139,6890,p,0,0,0
0:19.178,6904,),0,0,0
0:19.242,6927,(,0,0,1
0:19.281,6941,N,0,0,0
0:19.328,6958,),0,0,1
0:19.417,6990,(,0,0,2
0:19.525,7029,t,0,0,0
0:19.628,7066,),0,0,2
0:19.647,7073,(,0,0,0
0:19.681,7085,p,0,0,0
0:19.717,7098,),0,0,0
0:19.778,7120,(,0,0,1
0:19.817,7134,N,0,0,0
0:19.864,7151,),0,0,1
0:19.953,7183,(,0,0,2
0:20.067,7224,t,0,0,0
0:20.178,7264,),0,0,2
0:20.200,7272,(,0,0,0
0:20.236,7285,p,0,0,0
0:20.272,7298,),0,0,0
0:20.333,7320,(,0,0,1
0:20.367,7332,N,0,0,0
0:20.417,7350,),0,0,1
0:20.500,7380,(,0,0,2
0:20.603,7417,t,0,0,0
0:20.697,7451,),0,0,2
0:20.722,7460,(,0,0,0
0:20.756,7472,p,0,0,0
0:20.792,7485,),0,0,0
0:20.856,7508,(,0,0,1
0:20.892,7521,N,0,0,0
0:20.939,7538,),0,0,1
0:21.033,7572,(,0,0,2
0:21.142,7611,t,0,0,0
0:21.242,7647,),0,0,2
0:21.267,7656,(,0,0,0
0:21.297,7667,p,0,0,0
0:21.333,7680,),0,0,0
0:21.389,7700,(,0,0,1
0:21.428,7714,N,0,0,0
0:21.478,7732,),0,0,1
0:21.564,7763,(,0,0,2
0:21.672,7802,t,0,0,0
0:21.781,7841,),0,0,2
0:21.806,7850,(,0,0,0
0:21.842,7863,p,0,0,0
0:21.881,7877,),0,0,0
0:21.944,7900,(,0,0,1
0:21.981,7913,N,0,0,0
0:22.033,7932,),0,0,1
0:22.122,7964,(,0,0,2
0:22.233,8004,t,0,0,0
0:22.325,8037,),0,0,2
0:22.353,8047,(,0,0,0
0:22.383,8058,p,0,0,0
0:22.419,8071,),0,0,0
0:22.481,8093,(,0,0,1
0:22.517,8106,N,0,0,0
0:22.567,8124,),0,0,1
0:22.664,8159,(,0,0,2
0:22.767,8196,t,0,0,0
0:22.867,8232,),0,0,2
0:22.889,8240,(,0,0,0
0:22.919,8251,p,0,0,0
0:22.958,8265,),0,0,0
0:23.019,8287,(,0,0,1
0:23.058,8301,N,0,0,0
0:23.108,8319,),0,0,1
0:23.206,8354,(,0,0,2
0:23.308,8391,t,0,0,0
0:23.408,8427,),0,0,2
0:23.428,8434,(,0,0,0
0:23.458,8445,p,0,0,0
0:23.497,8459,),0,0,0
0:23.564,8483,(,0,0,1
0:23.600,8496,N,0,0,0
0:23.653,8515,),0,0,1
0:23.750,8550,(,0,0,2
0:23.858,8589,t,0,0,0
0:23.967,8628,),0,0,2
0:23.989,8636,(,0,0,0
0:24.022,8648,p,0,0,0
0:24.061,8662,),0,0,0
0:24.125,8685,(,0,0,1
0:24.161,8698,N,0,0,0
0:24.214,8717,),0,0,1
0:24.300,8748,(,0,0,2
0:24.411,8788,t,0,0,0
0:24.511,8824,),0,0,2
0:24.547,8837,(,0,0,0
0:24.581,8849,p,0,0,0
0:24.614,8861,),0,0,0
0:24.681,8885,(,0,0,1
0:24.717,8898,N,0,0,0
0:24.767,8916,),0,0,1
0:24.861,8950,(,0,0,2
0:24.969,8989,t,0,0,0
0:25.064,9023,),0,0,2
0:25.089,9032,(,0,0,0
0:25.122,9044,p,0,0,0
0:25.158,9057,),0,0,0
0:25.225,9081,(,0,0,1
0:25.261,9094,N,0,0,0
0:25.311,9112,),0,0,1
0:25.403,9145,(,0,0,2
0:25.503,9181,t,0,0,0
0:25.603,9217,),0,0,2
0:25.622,9224,(,0,0,0
0:25.653,9235,p,0,0,0
0:25.692,9249,),0,0,0
0:25.753,9271,(,0,0,1
0:25.786,9283,N,0,0,0
0:25.833,9300,),0,0,1
0:25.922,9332,(,0,0,2
0:26.025,9369,t,0,0,0
0:26.136,9409,),0,0,2
0:26.161,9418,(,0,0,0
0:26.194,9430,p,0,0,0
0:26.231,9443,),0,0,0
0:26.297,9467,(,0,0,1
0:26.333,9480,N,0,0,0
0:26.386,9499,),0,0,1
0:26.472,9530,(,0,0,2
0:26.583,9570,t,0,0,0
0:26.681,9605,),0,0,2
0:26.714,9617,(,0,0,0
0:26.747,9629,p,0,0,0
0:26.786,9643,),0,0,0
0:26.850,9666,(,0,0,1
0:26.892,9681,N,0,0,0
0:26.939,9698,),0,0,1
0:27.033,9732,(,0,0,2
0:27.147,9773,t,0,0,0
0:27.247,9809,),0,0,2
0:27.272,9818,(,0,0,0
0:27.306,9830,p,0,0,0
0:27.347,9845,),0,0,0
0:27.411,9868,(,0,0,1
0:27.447,9881,N,0,0,0
0:27.494,9898,),0,0,1
0:27.594,9934,(,0,0,2
0:27.694,9970,t,0,0,0
0:27.797,10007,),0,0,2
0:27.817,10014,(,0,0,0
0:27.847,10025,p,0,0,0
0:27.883,10038,),0,0,0
0:27.947,10061,(,0,0,1
0:27.981,10073,N,0,0,0
0:28.033,10092,),0,0,1
0:28.117,10122,(,0,0,2
0:28.228,10162,t,0,0,0
0:28.336,10201,),0,0,2
0:28.364,10211,(,0,0,0
0:28.400,10224,p,0,0,0
0:28.436,10237,),0,0,0
0:28.497,10259,(,0,0,1
0:28.533,10272,N,0,0,0
0:28.586,10291,),0,0,1
0:28.672,10322,(,0,0,2
0:28.775,10359,t,0,0,0
0:28.867,10392,),0,0,2
0:28.892,10401,(,0,0,0
0:28.925,10413,p,0,0,0
0:28.964,10427,),0,0,0
0:29.022,10448,(,0,0,1
0:29.058,10461,N,0,0,0
0:29.106,10478,),0,0,1
0:29.206,10514,(,0,0,2
0:29.311,10552,t,0,0,0
0:29.414,10589,),0,0,2
0:29.436,10597,(,0,0,0
0:29.467,10608,p,0,0,0
0:29.503,10621,),0,0,0
0:29.558,10641,(,0,0,1
0:29.597,10655,N,0,0,0
0:29.644,10672,),0,0,1
0:29.725,10701,(,0,0,2
0:29.831,10739,t,0,0,0
0:29.942,10779,),0,0,2
0:29.964,10787,(,0,0,0
0:30.000,10800,p,0,0,0
0:30.039,10814,),0,0,0
0:30.100,10836,(,0,0,1
0:30.136,10849,N,0,0,0
0:30.186,10867,),0,0,1
0:30.272,10898,(,0,0,2
0:30.383,10938,t,0,0,0
0:30.483,10974,),0,0,2
0:30.508,10983,(,0,0,0
0:30.542,10995,p,0,0,0
0:30.578,11008,),0,0,0
0:30.636,11029,(,0,0,1
0:30.669,11041,N,0,0,0
0:30.717,11058,),0,0,1
0:30.806,11090,(,0,0,2
0:30.914,11129,t,0,0,0
0:31.011,11164,),0,0,2
0:31.033,11172,(,0,0,0
0:31.067,11184,p,0,0,0
0:31.106,11198,),0,0,0
0:31.172,11222,(,0,0,1
0:31.208,11235,N,0,0,0
0:31.261,11254,),0,0,1
0:31.356,11288,(,0,0,2
0:31.461,11326,t,0,0,0
0:31.569,11365,),0,0,2
0:31.589,11372,(,0,0,0
0:31.619,11383,p,0,0,0
0:31.658,11397,),0,0,0
0:31.717,11418,(,0,0,1
0:31.756,11432,N,0,0,0
0:31.808,11451,),0,0,1
0:31.897,11483,(,0,0,2
0:32.011,11524,t,0,0,0
0:32.117,11562,),0,0,2
0:32.147,11573,(,0,0,0
0:32.183,11586,p,0,0,0
0:32.219,11599,),0,0,0
0:32.283,11622,(,0,0,1
0:32.319,11635,N,0,0,0
0:32.369,11653,),0,0,1
0:32.464,11687,(,0,0,2
0:32.569,11725,t,0,0,0
0:32.664,11759,),0,0,2
0:32.686,11767,(,0,0,0
0:32.714,11777,p,0,0,0
0:32.753,11791,),0,0,0
0:32.814,11813,(,0,0,1
0:32.850,11826,N,0,0,0
0:32.900,11844,),0,0,1
0:32.992,11877,(,0,0,2
0:33.097,11915,t,0,0,0
0:33.200,11952,),0,0,2
0:33.219,11959,(,0,0,0
0:33.253,11971,p,0,0,0
0:33.292,11985,),0,0,0
0:33.350,12006,(,0,0,1
0:33.389,12020,N,0,0,0
0:33.439,12038,),0,0,1
0:33.528,12070,(,0,0,2
0:33.631,12107,t,0,0,0
0:33.736,12145,),0,0,2
0:33.758,12153,(,0,0,0
0:33.792,12165,p,0,0,0
0:33.825,12177,),0,0,0
0:33.889,12200,(,0,0,1
0:33.925,12213,N,0,0,0
0:33.975,12231,),0,0,1
0:34.067,12264,(,0,0,2
0:34.169,12301,t,0,0,0
0:34.275,12339,),0,0,2
0:34.297,12347,(,0,0,0
0:34.331,12359,p,0,0,0
0:34.369,12373,),0,0,0
0:34.431,12395,(,0,0,1
0:34.467,12408,N,0,0,0
0:34.519,12427,),0,0,1
0:34.619,12463,(,0,0,2
0:34.722,12500,t,0,0,0
0:34.819,12535,),0,0,2
0:34.844,12544,(,0,0,0
0:34.878,12556,p,0,0,0
0:34.917,12570,),0,0,0
0:34.978,12592,(,0,0,1
0:35.014,12605,N,0,0,0
0:35.064,12623,),0,0,1
0:35.161,12658,(,0,0,2
0:35.267,12696,t,0,0,0
0:35.378,12736,),0,0,2
0:35.397,12743,(,0,0,0
0:35.433,12756,p,0,0,0
0:35.472,12770,),0,0,0
0:35.539,12794,(,0,0,1
0:35.575,12807,N,0,0,0
0:35.628,12826,),0,0,1
0:35.717,12858,(,0,0,2
0:35.825,12897,t,0,0,0
0:35.931,12935,),0,0,2
0:35.958,12945,(,0,0,0
0:35.992,12957,p,0,0,0
0:36.025,12969,),0,0,0
0:36.086,12991,(,0,0,1
0:36.122,13004,N,0,0,0
0:36.175,13023,),0,0,1
0:36.269,13057,(,0,0,2
0:36.372,13094,t,0,0,0
0:36.472,13130,),0,0,2
0:36.497,13139,(,0,0,0
0:36.533,13152,p,0,0,0
0:36.572,13166,),0,0,0
0:36.636,13189,(,0,0,1
0:36.672,13202,N,0,0,0
0:36.722,13220,),0,0,1
0:36.811,13252,(,0,0,2
0:36.911,13288,t,0,0,0
0:37.017,13326,),0,0,2
0:37.036,13333,(,0,0,0
0:37.067,13344,p,0,0,0
0:37.103,13357,),0,0,0
0:37.158,13377,(,0,0,1
0:37.194,13390,N,0,0,0
0:37.242,13407,),0,0,1
0:37.331,13439,(,0,0,2
0:37.442,13479,t,0,0,0
0:37.550,13518,),0,0,2
0:37.569,13525,(,0,0,0
0:37.603,13537,p,0,0,0
0:37.639,13550,),0,0,0
0:37.697,13571,(,0,0,1
0:37.733,13584,N,0,0,0
0:37.781,13601,),0,0,1
0:37.861,13630,(,0,0,2
0:37.969,13669,t,0,0,0
0:38.081,13709,),0,0,2
0:38.106,13718,(,0,0,0
0:38.139,13730,p,0,0,0
0:38.178,13744,),0,0,0
0:38.242,13767,(,0,0,1
0:38.278,13780,N,0,0,0
0:38.331,13799,),0,0,1
0:38.419,13831,(,0,0,2
0:38.533,13872,t,0,0,0
0:38.633,13908,),0,0,2
0:38.661,13918,(,0,0,0
0:38.694,13930,p,0,0,0
0:38.731,13943,),0,0,0
0:38.789,13964,(,0,0,1
0:38.825,13977,N,0,0,0
0:38.875,13995,),0,0,1
0:38.967,14028,(,0,0,2
0:39.069,14065,t,0,0,0
0:39.167,14100,),0,0,2
0:39.194,14110,(,0,0,0
0:39.228,14122,p,0,0,0
0:39.267,14136,),0,0,0
0:39.328,14158,(,0,0,1
0:39.367,14172,N,0,0,0
0:39.417,14190,),0,0,1
0:39.519,14227,(,0,0,2
0:39.625,14265,t,0,0,0
0:39.725,14301,),0,0,2
0:39.747,14309,(,0,0,0
0:39.778,14320,p,0,0,0
0:39.817,14334,),0,0,0
0:39.875,14355,(,0,0,1
0:39.911,14368,N,0,0,0
0:39.961,14386,),0,0,1
0:40.053,14419,(,0,0,2
0:40.156,14456,t,0,0,0
0:40.267,14496,),0,0,2
0:40.294,14506,(,0,0,0
0:40.328,14518,p,0,0,0
0:40.364,14531,),0,0,0
0:40.428,14554,(,0,0,1
0:40.464,14567,N,0,0,0
0:40.517,14586,),0,0,1
0:40.608,14619,(,0,0,2
0:40.719,14659,t,0,0,0
0:40.814,14693,),0,0,2
0:40.839,14702,(,0,0,0
0:40.872,14714,p,0,0,0
0:40.911,14728,),0,0,0
0:40.969,14749,(,0,0,1
0:41.006,14762,N,0,0,0
0:41.056,14780,),0,0,1
0:41.150,14814,(,0,0,2
0:41.253,14851,t,0,0,0
0:41.353,14887,),0,0,2
0:41.375,14895,(,0,0,0
0:41.406,14906,p,0,0,0
0:41.444,14920,),0,0,0
0:41.506,14942,(,0,0,1
0:41.544,14956,N,0,0,0
0:41.594,14974,),0,0,1
0:41.686,15007,(,0,0,2
0:41.789,15044,t,0,0,0
0:41.889,15080,),0,0,2
0:41.908,15087,(,0,0,0
0:41.936,15097,p,0,0,0
0:41.975,15111,),0,0,0
0:42.033,15132,(,0,0,1
0:42.069,15145,N,0,0,0
0:42.117,15162,),0,0,1
0:42.200,15192,(,0,0,2
0:42.308,15231,t,0,0,0
0:42.417,15270,),0,0,2
0:42.439,15278,(,0,0,0
0:42.469,15289,p,0,0,0
0:42.506,15302,),0,0,0
0:42.567,15324,(,0,0,1
0:42.606,15338,N,0,0,0
0:42.656,15356,),0,0,1
0:42.742,15387,(,0,0,2
0:42.853,15427,t,0,0,0
0:42.953,15463,),0,0,2
0:42.981,15473,(,0,0,0
0:43.011,15484,p,0,0,0
0:43.053,15499,),0,0,0
0:43.114,15521,(,0,0,1
0:43.150,15534,N,0,0,0
0:43.203,15553,),0,0,1
0:43.300,15588,(,0,0,2
0:43.411,15628,t,0,0,0
0:43.511,15664,),0,0,2
0:43.533,15672,(,0,0,0
0:43.567,15684,p,0,0,0
0:43.606,15698,),0,0,0
0:43.672,15722,(,0,0,1
0:43.708,15735,N,0,0,0
0:43.761,15754,),0,0,1
0:43.861,15790,(,0,0,2
0:43.967,15828,t,0,0,0
0:44.061,15862,),0,0,2
0:44.081,15869,(,0,0,0
0:44.108,15879,p,0,0,0
0:44.147,15893,),0,0,0
0:44.208,15915,(,0,0,1
0:44.244,15928,N,0,0,0
0:44.292,15945,),0,0,1
0:44.383,15978,(,0,0,2
0:44.489,16016,t,0,0,0
0:44.597,16055,),0,0,2
0:44.622,16064,(,0,0,0
0:44.653,16075,p,0,0,0
0:44.692,16089,),0,0,0
0:44.758,16113,(,0,0,1
0:44.794,16126,N,0,0,0
0:44.847,16145,),0,0,1
0:44.931,16175,(,0,0,2
0:45.036,16213,t,0,0,0
0:45.142,16251,),0,0,2
0:45.167,16260,(,0,0,0
0:45.200,16272,p,0,0,0
0:45.236,16285,),0,0,0
0:45.297,16307,(,0,0,1
0:45.331,16319,N,0,0,0
0:45.378,16336,),0,0,1
0:45.469,16369,(,0,0,2
0:45.578,16408,t,0,0,0
0:45.672,16442,),0,0,2
0:45.694,16450,(,0,0,0
0:45.728,16462,p,0,0,0
0:45.767,16476,),0,0,0
0:45.828,16498,(,0,0,1
0:45.864,16511,N,0,0,0
0:45.914,16529,),0,0,1
0:46.003,16561,(,0,0,2
0:46.108,16599,t,0,0,0
0:46.208,16635,),0,0,2
0:46.231,16643,(,0,0,0
0:46.264,16655,p,0,0,0
0:46.300,16668,),0,0,0
0:46.367,16692,(,0,0,1
0:46.403,16705,N,0,0,0
0:46.453,16723,),0,0,1
0:46.544,16756,(,0,0,2
0:46.656,16796,t,0,0,0
0:46.761,16834,),0,0,2
0:46.789,16844,(,0,0,0
0:46.822,16856,p,0,0,0
0:46.861,16870,),0,0,0
0:46.922,16892,(,0,0,1
0:46.956,16904,N,0,0,0
0:47.003,16921,),0,0,1
0:47.092,16953,(,0,0,2
0:47.194,16990,t,0,0,0
0:47.294,17026,),0,0,2
0:47.314,17033,(,0,0,0
0:47.344,17044,p,0,0,0
0:47.383,17058,),0,0,0
0:47.447,17081,(,0,0,1
0:47.483,17094,N,0,0,0
0:47.533,17112,),0,0,1
0:47.633,17148,(,0,0,2
0:47.742,17187,t,0,0,0
0:47.853,17227,),0,0,2
0:47.872,17234,(,0,0,0
0:47.906,17246,p,0,0,0
0:47.944,17260,),0,0,0
0:48.006,17282,(,0,0,1
0:48.042,17295,N,0,0,0
0:48.092,17313,),0,0,1
0:48.175,17343,(,0,0,2
0:48.289,17384,t,0,0,0
0:48.397,17423,),0,0,2
0:48.431,17435,(,0,0,0
0:48.467,17448,p,0,0,0
0:48.503,17461,),0,0,0
0:48.569,17485,(,0,0,1
0:48.606,17498,N,0,0,0
0:48.656,17516,),0,0,1
0:48.753,17551,(,0,0,2
0:48.867,17592,t,0,0,0
0:48.964,17627,),0,0,2
0:48.986,17635,(,0,0,0
0:49.017,17646,p,0,0,0
0:49.056,17660,),0,0,0
0:49.114,17681,(,0,0,1
0:49.150,17694,N,0,0,0
0:49.197,17711,),0,0,1
0:49.286,17743,(,0,0,2
0:49.389,17780,t,0,0,0
0:49.492,17817,),0,0,2
0:49.517,17826,(,0,0,0
0:49.547,17837,p,0,0,0
0:49.586,17851,),0,0,0
0:49.642,17871,(,0,0,1
0:49.681,17885,N,0,0,0
0:49.733,17904,),0,0,1
0:49.819,17935,(,0,0,2
0:49.931,17975,t,0,0,0
0:50.031,18011,),0,0,2
0:50.056,18020,(,0,0,0
0:50.086,18031,p,0,0,0
0:50.125,18045,),0,0,0
0:50.186,18067,(,0,0,1
0:50.219,18079,N,0,0,0
0:50.272,18098,),0,0,1
0:50.361,18130,(,0,0,2
0:50.469,18169,t,0,0,0
0:50.567,18204,),0,0,2
0:50.589,18212,(,0,0,0
0:50.619,18223,p,0,0,0
0:50.658,18237,),0,0,0
0:50.717,18258,(,0,0,1
0:50.753,18271,N,0,0,0
0:50.803,18289,),0,0,1
0:50.892,18321,(,0,0,2
0:51.003,18361,t,0,0,0
0:51.111,18400,),0,0,2
0:51.136,18409,(,0,0,0
0:51.169,18421,p,0,0,0
0:51.203,18433,),0,0,0
0:51.269,18457,(,0,0,1
0:51.306,18470,N,0,0,0
0:51.361,18490,),0,0,1
0:51.450,18522,(,0,0,2
0:51.564,18563,t,0,0,0
0:51.661,18598,),0,0,2
0:51.689,18608,(,0,0,0
0:51.722,18620,p,0,0,0
0:51.764,18635,),0,0,0
0:51.825,18657,(,0,0,1
0:51.861,18670,N,0,0,0
0:51.911,18688,),0,0,1
0:52.019,18727,(,0,0,2
0:52.122,18764,t,0,0,0
0:52.217,18798,),0,0,2
0:52.239,18806,(,0,0,0
0:52.267,18816,p,0,0,0
0:52.306,18830,),0,0,0
0:52.367,18852,(,0,0,1
0:52.403,18865,N,0,0,0
0:52.450,18882,),0,0,1
0:52.547,18917,(,0,0,2
0:52.650,18954,t,0,0,0
0:52.747,18989,),0,0,2
0:52.767,18996,(,0,0,0
0:52.800,19008,p,0,0,0
0:52.842,19023,),0,0,0
0:52.903,19045,(,0,0,1
0:52.944,19060,N,0,0,0
0:52.994,19078,),0,0,1
0:53.081,19109,(,0,0,2
0:53.189,19148,t,0,0,0
0:53.297,19187,),0,0,2
0:53.319,19195,(,0,0,0
0:53.353,19207,p,0,0,0
0:53.386,19219,),0,0,0
0:53.442,19239,(,0,0,1
0:53.478,19252,N,0,0,0
0:53.531,19271,),0,0,1
0:53.608,19299,(,0,0,2
0:53.717,19338,t,0,0,0
0:53.814,19373,),0,0,2
0:53.842,19383,(,0,0,0
0:53.878,19396,p,0,0,0
0:53.914,19409,),0,0,0
0:53.978,19432,(,0,0,1
0:54.014,19445,N,0,0,0
0:54.064,19463,),0,0,1
0:54.158,19497,(,0,0,2
0:54.261,19534,t,0,0,0
0:54.353,19567,),0,0,2
0:54.375,19575,(,0,0,0
0:54.406,19586,p,0,0,0
0:54.444,19600,),0,0,0
0:54.503,19621,(,0,0,1
0:54.542,19635,N,0,0,0
0:54.589,19652,),0,0,1
0:54.672,19682,(,0,0,2
0:54.783,19722,t,0,0,0
0:54.892,19761,),0,0,2
0:54.922,19772,(,0,0,0
0:54.956,19784,p,0,0,0
0:54.994,19798,),0,0,0
0:55.056,19820,(,0,0,1
0:55.092,19833,N,0,0,0
0:55.142,19851,),0,0,1
0:55.225,19881,(,0,0,2
0:55.333,19920,t,0,0,0
0:55.428,19954,),0,0,2
0:55.453,19963,(,0,0,0
0:55.486,19975,p,0,0,0
0:55.525,19989,),0,0,0
0:55.589,20012,(,0,0,1
0:55.625,20025,N,0,0,0
0:55.672,20042,),0,0,1
0:55.769,20077,(,0,0,2
0:55.881,20117,t,0,0,0
0:55.978,20152,),0,0,2
0:56.003,20161,(,0,0,0
0:56.036,20173,p,0,0,0
0:56.072,20186,),0,0,0
0:56.133,20208,(,0,0,1
0:56.169,20221,N,0,0,0
0:56.219,20239,),0,0,1
0:56.306,20270,(,0,0,2
0:56.414,20309,t,0,0,0
0:56.519,20347,),0,0,2
0:56.542,20355,(,0,0,0
0:56.575,20367,p,0,0,0
0:56.614,20381,),0,0,0
0:56.678,20404,(,0,0,1
0:56.714,20417,N,0,0,0
0:56.761,20434,),0,0,1
0:56.861,20470,(,0,0,2
0:56.969,20509,t,0,0,0
0:57.075,20547,),0,0,2
0:57.097,20555,(,0,0,0
0:57.125,20565,p,0,0,0
0:57.164,20579,),0,0,0
0:57.225,20601,(,0,0,1
0:57.261,20614,N,0,0,0
0:57.311,20632,),0,0,1
0:57.392,20661,(,0,0,2
0:57.497,20699,t,0,0,0
0:57.606,20738,),0,0,2
0:57.633,20748,(,0,0,0
0:57.667,20760,p,0,0,0
0:57.700,20772,),0,0,0
0:57.764,20795,(,0,0,1
0:57.800,20808,N,0,0,0
0:57.853,20827,),0,0,1
0:57.936,20857,(,0,0,2
0:58.053,20899,t,0,0,0
0:58.147,20933,),0,0,2
0:58.175,20943,(,0,0,0
0:58.206,20954,p,0,0,0
0:58.244,20968,),0,0,0
0:58.306,20990,(,0,0,1
0:58.342,21003,N,0,0,0
0:58.389,21020,),0,0,1
0:58.483,21054,(,0,0,2
0:58.589,21092,t,0,0,0
0:58.683,21126,),0,0,2
0:58.706,21134,(,0,0,0
0:58.733,21144,p,0,0,0
0:58.769,21157,),0,0,0
0:58.828,21178,(,0,0,1
0:58.864,21191,N,0,0,0
0:58.914,21209,),0,0,1
0:59.008,21243,(,0,0,2
0:59.114,21281,t,0,0,0
0:59.217,21318,),0,0,2
0:59.236,21325,(,0,0,0
0:59.269,21337,p,0,0,0
0:59.308,21351,),0,0,0
0:59.369,21373,(,0,0,1
0:59.406,21386,N,0,0,0
0:59.458,21405,),0,0,1
0:59.556,21440,(,0,0,2
0:59.664,21479,t,0,0,0
0:59.775,21519,),0,0,2
0:59.797,21527,(,0,0,0
0:59.831,21539,p,0,0,0
0:59.869,21553,),0,0,0
0:59.936,21577,(,0,0,1
0:59.972,21590,N,0,0,0
1:00.025,21609,),0,0,1
1:00.117,21642,(,0,0,2
1:00.231,21683,t,0,0,0
1:00.336,21721,),0,0,2
1:00.369,21733,(,0,0,0
1:00.403,21745,p,0,0,0
1:00.439,21758,),0,0,0
1:00.478,21772,(,0,0,1
1:00.528,21790,N,0,0,0
1:00.581,21809,),0,0,1
1:00.675,21843,(,0,0,2
1:00.778,21880,t,0,0,0
1:00.858,21909,),0,0,2
1:00.906,21926,(,0,0,0
1:00.942,21939,p,0,0,0
1:00.981,21953,),0,0,0
1:01.044,21976,(,0,0,1
1:01.081,21989,N,0,0,0
1:01.131,22007,),0,0,1
1:01.233,22044,(,0,0,2
1:01.339,22082,t,0,0,0
1:01.433,22116,),0,0,2
1:01.456,22124,(,0,0,0
1:01.489,22136,p,0,0,0
1:01.528,22150,),0,0,0
1:01.589,22172,(,0,0,1
1:01.622,22184,N,0,0,0
1:01.667,22200,),0,0,1
1:01.758,22233,(,0,0,2
1:01.858,22269,t,0,0,0
1:01.953,22303,),0,0,2
1:01.978,22312,(,0,0,0
1:02.011,22324,p,0,0,0
1:02.047,22337,),0,0,0
1:02.108,22359,(,0,0,1
1:02.147,22373,N,0,0,0
1:02.197,22391,),0,0,1
1:02.289,22424,(,0,0,2
1:02.394,22462,t,0,0,0
1:02.497,22499,),0,0,2
1:02.528,22510,(,0,0,0
1:02.561,22522,p,0,0,0
1:02.597,22535,),0,0,0
1:02.658,22557,(,0,0,1
1:02.694,22570,N,0,0,0
1:02.747,22589,),0,0,1
1:02.797,22607,t,0,0,2
1:02.942,22659,),0,0,2
1:03.089,22712,(,0,0,1
1:03.131,22727,N,0,0,0
1:03.181,22745,),0,0,1
1:03.281,22781,(,0,0,2
1:03.369,22813,t,0,0,0
1:03.464,22847,),0,0,2
1:03.589,22892,(,0,0,0
1:03.625,22905,p,0,0,0
1:03.658,22917,),0,0,0
1:03.717,22938,(,0,0,1
1:03.756,22952,N,0,0,0
1:03.803,22969,),0,0,1
1:03.906,23006,(,0,0,2
1:04.025,23049,t,0,0,0
1:04.114,23081,),0,0,2
1:04.139,23090,(,0,0,0
1:04.172,23102,p,0,0,0
1:04.214,23117,),0,0,0
1:04.278,23140,(,0,0,1
1:04.314,23153,N,0,0,0
1:04.364,23171,),0,0,1
1:04.453,23203,(,0,0,2
1:04.561,23242,t,0,0,0
1:04.664,23279,),0,0,2
1:04.683,23286,(,0,0,0
1:04.719,23299,p,0,0,0
1:04.761,23314,),0,0,0
1:04.819,23335,(,0,0,1
1:04.861,23350,N,0,0,0
1:04.911,23368,),0,0,1
1:04.997,23399,(,0,0,2
1:05.111,23440,t,0,0,0
1:05.222,23480,),0,0,2
1:05.253,23491,(,0,0,0
1:05.289,23504,p,0,0,0
1:05.328,23518,),0,0,0
1:05.389,23540,(,0,0,1
1:05.425,23553,N,0,0,0
1:05.475,23571,),0,0,1
1:05.561,23602,(,0,0,2
1:05.664,23639,t,0,0,0
1:05.756,23672,),0,0,2
1:05.781,23681,(,0,0,0
1:05.817,23694,p,0,0,0
1:05.856,23708,),0,0,0
1:05.914,23729,(,0,0,1
1:05.953,23743,N,0,0,0
1:06.000,23760,),0,0,1
1:06.092,23793,(,0,0,2
1:06.200,23832,t,0,0,0
1:06.297,23867,),0,0,2
1:06.319,23875,(,0,0,0
1:06.353,23887,p,0,0,0
1:06.394,23902,),0,0,0
1:06.450,23922,(,0,0,1
1:06.486,23935,N,0,0,0
1:06.536,23953,),0,0,1
1:06.619,23983,(,0,0,2
1:06.722,24020,t,0,0,0
1:06.828,24058,),0,0,2
1:06.850,24066,(,0,0,0
1:06.883,24078,p,0,0,0
1:06.919,24091,),0,0,0
1:06.981,24113,(,0,0,1
1:07.017,24126,N,0,0,0
1:07.067,24144,),0,0,1
1:07.150,24174,(,0,0,2
1:07.267,24216,t,0,0,0
1:07.364,24251,),0,0,2
1:07.397,24263,(,0,0,0
1:07.433,24276,p,0,0,0
1:07.472,24290,),0,0,0
1:07.536,24313,(,0,0,1
1:07.575,24327,N,0,0,0
1:07.625,24345,),0,0,1
1:07.717,24378,(,0,0,2
1:07.828,24418,t,0,0,0
1:07.928,24454,),0,0,2
1:07.953,24463,(,0,0,0
1:07.986,24475,p,0,0,0
1:08.025,24489,),0,0,0
1:08.089,24512,(,0,0,1
1:08.125,24525,N,0,0,0
1:08.175,24543,),0,0,1
1:08.275,24579,(,0,0,2
1:08.383,24618,t,0,0,0
1:08.486,24655,),0,0,2
1:08.508,24663,(,0,0,0
1:08.539,24674,p,0,0,0
1:08.581,24689,),0,0,0
1:08.614,24701,(,0,0,1
1:08.678,24724,N,0,0,0
1:08.728,24742,),0,0,1
1:08.811,24772,(,0,0,2
1:08.919,24811,t,0,0,0
1:09.025,24849,),0,0,2
1:09.053,24859,(,0,0,0
1:09.086,24871,p,0,0,0
1:09.119,24883,),0,0,0
1:09.183,24906,(,0,0,1
1:09.219,24919,N,0,0,0
1:09.272,24938,),0,0,1
1:09.358,24969,(,0,0,2
1:09.472,25010,t,0,0,0
1:09.572,25046,),0,0,2
1:09.600,25056,(,0,0,0
1:09.633,25068,p,0,0,0
1:09.672,25082,),0,0,0
1:09.728,25102,(,0,0,1
1:09.764,25115,N,0,0,0
1:09.811,25132,),0,0,1
1:09.906,25166,(,0,0,2
1:10.006,25202,t,0,0,0
1:10.097,25235,),0,0,2
1:10.119,25243,(,0,0,0
1:10.147,25253,p,0,0,0
1:10.186,25267,),0,0,0
1:10.253,25291,(,0,0,1
1:10.289,25304,N,0,0,0
1:10.339,25322,),0,0,1
1:10.442,25359,(,0,0,2
1:10.544,25396,t,0,0,0
1:10.642,25431,),0,0,2
1:10.661,25438,(,0,0,0
1:10.692,25449,p,0,0,0
1:10.731,25463,),0,0,0
1:10.789,25484,(,0,0,1
1:10.822,25496,N,0,0,0
1:10.875,25515,),0,0,1
1:10.958,25545,(,0,0,2
1:11.067,25584,t,0,0,0
1:11.181,25625,),0,0,2
1:11.203,25633,(,0,0,0
1:11.236,25645,p,0,0,0
1:11.275,25659,),0,0,0
1:11.336,25681,(,0,0,1
1:11.375,25695,N,0,0,0
1:11.428,25714,),0,0,1
1:11.511,25744,(,0,0,2
1:11.631,25787,t,0,0,0
1:11.728,25822,),0,0,2
1:11.753,25831,(,0,0,0
1:11.786,25843,p,0,0,0
1:11.825,25857,),0,0,0
1:11.886,25879,(,0,0,1
1:11.925,25893,N,0,0,0
1:11.975,25911,),0,0,1
1:12.069,25945,(,0,0,2
1:12.175,25983,t,0,0,0
1:12.275,26019,),0,0,2
1:12.294,26026,(,0,0,0
1:12.331,26039,p,0,0,0
1:12.369,26053,),0,0,0
1:12.436,26077,(,0,0,1
1:12.472,26090,N,0,0,0
1:12.525,26109,),0,0,1
1:12.625,26145,(,0,0,2
1:12.728,26182,t,0,0,0
1:12.825,26217,),0,0,2
1:12.847,26225,(,0,0,0
1:12.878,26236,p,0,0,0
1:12.919,26251,),0,0,0
1:12.981,26273,(,0,0,1
1:13.019,26287,N,0,0,0
1:13.067,26304,),0,0,1
1:13.164,26339,(,0,0,2
1:13.275,26379,t,0,0,0
1:13.381,26417,),0,0,2
1:13.400,26424,(,0,0,0
1:13.428,26434,p,0,0,0
1:13.467,26448,),0,0,0
1:13.528,26470,(,0,0,1
1:13.569,26485,N,0,0,0
1:13.619,26503,),0,0,1
1:13.703,26533,(,0,0,2
1:13.806,26570,t,0,0,0
1:13.914,26609,),0,0,2
1:13.944,26620,(,0,0,0
1:13.975,26631,p,0,0,0
1:14.011,26644,),0,0,0
1:14.072,26666,(,0,0,1
1:14.108,26679,N,0,0,0
1:14.161,26698,),0,0,1
1:14.244,26728,(,0,0,2
1:14.361,26770,t,0,0,0
1:14.461,26806,),0,0,2
1:14.492,26817,(,0,0,0
1:14.528,26830,p,0,0,0
1:14.567,26844,),0,0,0
1:14.631,26867,(,0,0,1
1:14.667,26880,N,0,0,0
1:14.714,26897,),0,0,1
1:14.803,26929,(,0,0,2
1:14.911,26968,t,0,0,0
1:15.000,27000,),0,0,2
1:15.022,27008,(,0,0,0
1:15.053,27019,p,0,0,0
1:15.092,27033,),0,0,0
1:15.153,27055,(,0,0,1
1:15.189,27068,N,0,0,0
1:15.236,27085,),0,0,1
1:15.333,27120,(,0,0,2
1:15.436,27157,t,0,0,0
1:15.536,27193,),0,0,2
1:15.558,27201,(,0,0,0
1:15.592,27213,p,0,0,0
1:15.628,27226,),0,0,0
1:15.689,27248,(,0,0,1
1:15.725,27261,N,0,0,0
1:15.775,27279,),0,0,1
1:15.861,27310,(,0,0,2
1:15.975,27351,t,0,0,0
1:16.083,27390,),0,0,2
1:16.108,27399,(,0,0,0
1:16.144,27412,p,0,0,0
1:16.181,27425,),0,0,0
1:16.242,27447,(,0,0,1
1:16.278,27460,N,0,0,0
1:16.331,27479,),0,0,1
1:16.422,27512,(,0,0,2
1:16.536,27553,t,0,0,0
1:16.639,27590,),0,0,2
1:16.661,27598,(,0,0,0
1:16.697,27611,p,0,0,0
1:16.736,27625,),0,0,0
1:16.800,27648,(,0,0,1
1:16.836,27661,N,0,0,0
1:16.886,27679,),0,0,1
1:16.981,27713,(,0,0,2
1:17.083,27750,t,0,0,0
1:17.181,27785,),0,0,2
1:17.203,27793,(,0,0,0
1:17.233,27804,p,0,0,0
1:17.275,27819,),0,0,0
1:17.333,27840,(,0,0,1
1:17.372,27854,N,0,0,0
1:17.419,27871,),0,0,1
1:17.511,27904,(,0,0,2
1:17.619,27943,t,0,0,0
1:17.728,27982,),0,0,2
1:17.750,27990,(,0,0,0
1:17.781,28001,p,0,0,0
1:17.817,28014,),0,0,0
1:17.878,28036,(,0,0,1
1:17.914,28049,N,0,0,0
1:17.964,28067,),0,0,1
1:18.047,28097,(,0,0,2
1:18.153,28135,t,0,0,0
1:18.250,28170,),0,0,2
1:18.278,28180,(,0,0,0
1:18.311,28192,p,0,0,0
1:18.350,28206,),0,0,0
1:18.408,28227,(,0,0,1
1:18.444,28240,N,0,0,0
1:18.494,28258,),0,0,1
1:18.594,28294,(,0,0,2
1:18.700,28332,t,0,0,0
1:18.794,28366,),0,0,2
1:18.817,28374,(,0,0,0
1:18.847,28385,p,0,0,0
1:18.886,28399,),0,0,0
1:18.947,28421,(,0,0,1
1:18.983,28434,N,0,0,0
1:19.031,28451,),0,0,1
1:19.125,28485,(,0,0,2
1:19.228,28522,t,0,0,0
1:19.333,28560,),0,0,2
1:19.353,28567,(,0,0,0
1:19.381,28577,p,0,0,0
1:19.419,28591,),0,0,0
1:19.486,28615,(,0,0,1
1:19.522,28628,N,0,0,0
1:19.572,28646,),0,0,1
1:19.664,28679,(,0,0,2
1:19.769,28717,t,0,0,0
1:19.881,28757,),0,0,2
1:19.903,28765,(,0,0,0
1:19.936,28777,p,0,0,0
1:19.969,28789,),0,0,0
1:20.028,28810,(,0,0,1
1:20.064,28823,N,0,0,0
1:20.117,28842,),0,0,1
1:20.197,28871,(,0,0,2
1:20.308,28911,t,0,0,0
1:20.406,28946,),0,0,2
1:20.431,28955,(,0,0,0
1:20.467,28968,p,0,0,0
1:20.506,28982,),0,0,0
1:20.572,29006,(,0,0,1
1:20.608,29019,N,0,0,0
1:20.658,29037,),0,0,1
1:20.758,29073,(,0,0,2
1:20.864,29111,t,0,0,0
1:20.961,29146,),0,0,2
1:20.983,29154,(,0,0,0
1:21.014,29165,p,0,0,0
1:21.053,29179,),0,0,0
1:21.117,29202,(,0,0,1
1:21.153,29215,N,0,0,0
1:21.203,29233,),0,0,1
1:21.308,29271,(,0,0,2
1:21.411,29308,t,0,0,0
1:21.519,29347,),0,0,2
1:21.539,29354,(,0,0,0
1:21.572,29366,p,0,0,0
1:21.611,29380,),0,0,0
1:21.678,29404,(,0,0,1
1:21.711,29416,N,0,0,0
1:21.764,29435,),0,0,1
1:21.853,29467,(,0,0,2
1:21.958,29505,t,0,0,0
1:22.064,29543,),0,0,2
1:22.097,29555,(,0,0,0
1:22.133,29568,p,0,0,0
1:22.169,29581,),0,0,0
1:22.231,29603,(,0,0,1
1:22.267,29616,N,0,0,0
1:22.317,29634,),0,0,1
1:22.414,29669,(,0,0,2
1:22.519,29707,t,0,0,0
1:22.614,29741,),0,0,2
1:22.639,29750,(,0,0,0
1:22.672,29762,p,0,0,0
1:22.714,29777,),0,0,0
1:22.772,29798,(,0,0,1
1:22.811,29812,N,0,0,0
1:22.858,29829,),0,0,1
1:22.958,29865,(,0,0,2
1:23.061,29902,t,0,0,0
1:23.158,29937,),0,0,2
1:23.181,29945,(,0,0,0
1:23.211,29956,p,0,0,0
1:23.250,29970,),0,0,0
1:23.308,29991,(,0,0,1
1:23.347,30005,N,0,0,0
1:23.394,30022,),0,0,1
1:23.483,30054,(,0,0,2
1:23.592,30093,t,0,0,0
1:23.700,30132,),0,0,2
1:23.731,30143,(,0,0,0
1:23.764,30155,p,0,0,0
1:23.803,30169,),0,0,0
1:23.867,30192,(,0,0,1
1:23.903,30205,N,0,0,0
1:23.953,30223,),0,0,1
1:24.044,30256,(,0,0,2
1:24.156,30296,t,0,0,0
1:24.253,30331,),0,0,2
1:24.286,30343,(,0,0,0
1:24.319,30355,p,0,0,0
1:24.358,30369,),0,0,0
1:24.422,30392,(,0,0,1
1:24.458,30405,N,0,0,0
1:24.511,30424,),0,0,1
1:24.611,30460,(,0,0,2
1:24.722,30500,t,0,0,0
1:24.822,30536,),0,0,2
1:24.850,30546,(,0,0,0
1:24.881,30557,p,0,0,0
1:24.922,30572,),0,0,0
1:24.989,30596,(,0,0,1
1:25.025,30609,N,0,0,0
1:25.072,30626,),0,0,1
1:25.172,30662,(,0,0,2
1:25.272,30698,t,0,0,0
1:25.372,30734,),0,0,2
1:25.392,30741,(,0,0,0
1:25.425,30753,p,0,0,0
1:25.461,30766,),0,0,0
1:25.494,30778,(,0,0,1
1:25.558,30801,N,0,0,0
1:25.608,30819,),0,0,1
1:25.692,30849,(,0,0,2
1:25.806,30890,t,0,0,0
1:25.917,30930,),0,0,2
1:25.950,30942,(,0,0,0
1:25.983,30954,p,0,0,0
1:26.019,30967,),0,0,0
1:26.081,30989,(,0,0,1
1:26.117,31002,N,0,0,0
1:26.169,31021,),0,0,1
1:26.264,31055,(,0,0,2
1:26.367,31092,t,0,0,0
1:26.458,31125,),0,0,2
1:26.481,31133,(,0,0,0
1:26.511,31144,p,0,0,0
1:26.550,31158,),0,0,0
1:26.611,31180,(,0,0,1
1:26.647,31193,N,0,0,0
1:26.697,31211,),0,0,1
1:26.794,31246,(,0,0,2
1:26.900,31284,t,0,0,0
1:27.000,31320,),0,0,2
1:27.022,31328,(,0,0,0
1:27.056,31340,p,0,0,0
1:27.094,31354,),0,0,0
1:27.153,31375,(,0,0,1
1:27.189,31388,N,0,0,0
1:27.239,31406,),0,0,1
1:27.325,31437,(,0,0,2
1:27.431,31475,t,0,0,0
1:27.539,31514,),0,0,2
1:27.564,31523,(,0,0,0
1:27.597,31535,p,0,0,0
1:27.633,31548,),0,0,0
1:27.700,31572,(,0,0,1
1:27.736,31585,N,0,0,0
1:27.789,31604,),0,0,1
1:27.883,31638,(,0,0,2
1:27.992,31677,t,0,0,0
1:28.083,31710,),0,0,2
1:28.114,31721,(,0,0,0
1:28.147,31733,p,0,0,0
1:28.183,31746,),0,0,0
1:28.244,31768,(,0,0,1
1:28.281,31781,N,0,0,0
1:28.331,31799,),0,0,1
1:28.422,31832,(,0,0,2
1:28.525,31869,t,0,0,0
1:28.625,31905,),0,0,2
1:28.650,31914,(,0,0,0
1:28.681,31925,p,0,0,0
1:28.722,31940,),0,0,0
1:28.786,31963,(,0,0,1
1:28.822,31976,N,0,0,0
1:28.872,31994,),0,0,1
1:28.967,32028,(,0,0,2
1:29.075,32067,t,0,0,0
1:29.186,32107,),0,0,2
1:29.208,32115,(,0,0,0
1:29.242,32127,p,0,0,0
1:29.281,32141,),0,0,0
1:29.336,32161,(,0,0,1
1:29.378,32176,N,0,0,0
1:29.428,32194,),0,0,1
1:29.514,32225,(,0,0,2
1:29.628,32266,t,0,0,0
1:29.731,32303,),0,0,2
1:29.758,32313,(,0,0,0
1:29.794,32326,p,0,0,0
1:29.831,32339,),0,0,0
1:29.897,32363,(,0,0,1
1:29.936,32377,N,0,0,0
1:29.986,32395,),0,0,1
1:30.078,32428,(,0,0,2
1:30.183,32466,t,0,0,0
1:30.281,32501,),0,0,2
1:30.303,32509,(,0,0,0
1:30.333,32520,p,0,0,0
1:30.372,32534,),0,0,0
1:30.433,32556,(,0,0,1
1:30.467,32568,N,0,0,0
1:30.517,32586,),0,0,1
1:30.611,32620,(,0,0,2
1:30.717,32658,t,0,0,0
1:30.817,32694,),0,0,2
1:30.839,32702,(,0,0,0
1:30.872,32714,p,0,0,0
1:30.908,32727,),0,0,0
1:30.967,32748,(,0,0,1
1:31.008,32763,N,0,0,0
1:31.058,32781,),0,0,1
1:31.144,32812,(,0,0,2
1:31.253,32851,t,0,0,0
1:31.361,32890,),0,0,2
1:31.389,32900,(,0,0,0
1:31.422,32912,p,0,0,0
1:31.458,32925,),0,0,0
1:31.517,32946,(,0,0,1
1:31.553,32959,N,0,0,0
1:31.606,32978,),0,0,1
1:31.689,33008,(,0,0,2
1:31.797,33047,t,0,0,0
1:31.894,33082,),0,0,2
1:31.919,33091,(,0,0,0
1:31.953,33103,p,0,0,0
1:31.992,33117,),0,0,0
1:32.053,33139,(,0,0,1
1:32.089,33152,N,0,0,0
1:32.136,33169,),0,0,1
1:32.225,33201,(,0,0,2
1:32.333,33240,t,0,0,0
1:32.439,33278,),0,0,2
1:32.458,33285,(,0,0,0
1:32.489,33296,p,0,0,0
1:32.528,33310,),0,0,0
1:32.594,33334,(,0,0,1
1:32.631,33347,N,0,0,0
1:32.678,33364,),0,0,1
1:32.781,33401,(,0,0,2
1:32.886,33439,t,0,0,0
1:32.994,33478,),0,0,2
1:33.019,33487,(,0,0,0
1:33.050,33498,p,0,0,0
1:33.089,33512,),0,0,0
1:33.153,33535,(,0,0,1
1:33.189,33548,N,0,0,0
1:33.242,33567,),0,0,1
1:33.331,33599,(,0,0,2
1:33.439,33638,t,0,0,0
1:33.544,33676,),0,0,2
1:33.572,33686,(,0,0,0
1:33.608,33699,p,0,0,0
1:33.647,33713,),0,0,0
1:33.706,33734,(,0,0,1
1:33.742,33747,N,0,0,0
1:33.792,33765,),0,0,1
1:33.883,33798,(,0,0,2
1:33.997,33839,t,0,0,0
1:34.094,33874,),0,0,2
1:34.117,33882,(,0,0,0
1:34.150,33894,p,0,0,0
1:34.189,33908,),0,0,0
1:34.253,33931,(,0,0,1
1:34.289,33944,N,0,0,0
1:34.339,33962,),0,0,1
1:34.439,33998,(,0,0,2
1:34.536,34033,t,0,0,0
1:34.636,34069,),0,0,2
1:34.658,34077,(,0,0,0
1:34.689,34088,p,0,0,0
1:34.722,34100,),0,0,0
1:34.786,34123,(,0,0,1
1:34.817,34134,N,0,0,0
1:34.864,34151,),0,0,1
1:34.953,34183,(,0,0,2
1:35.061,34222,t,0,0,0
1:35.161,34258,),0,0,2
1:35.197,34271,(,0,0,0
1:35.233,34284,p,0,0,0
1:35.272,34298,),0,0,0
1:35.333,34320,(,0,0,1
1:35.369,34333,N,0,0,0
1:35.419,34351,),0,0,1
1:35.517,34386,(,0,0,2
1:35.622,34424,t,0,0,0
1:35.717,34458,),0,0,2
1:35.739,34466,(,0,0,0
1:35.772,34478,p,0,0,0
1:35.811,34492,),0,0,0
1:35.875,34515,(,0,0,1
1:35.914,34529,N,0,0,0
1:35.964,34547,),0,0,1
1:36.067,34584,(,0,0,2
1:36.172,34622,t,0,0,0
1:36.278,34660,),0,0,2
1:36.300,34668,(,0,0,0
1:36.331,34679,p,0,0,0
1:36.369,34693,),0,0,0
1:36.428,34714,(,0,0,1
1:36.461,34726,N,0,0,0
1:36.511,34744,),0,0,1
1:36.597,34775,(,0,0,2
1:36.703,34813,t,0,0,0
1:36.811,34852,),0,0,2
1:36.842,34863,(,0,0,0
1:36.878,34876,p,0,0,0
1:36.917,34890,),0,0,0
1:36.981,34913,(,0,0,1
1:37.017,34926,N,0,0,0
1:37.069,34945,),0,0,1
1:37.161,34978,(,0,0,2
1:37.272,35018,t,0,0,0
1:37.369,35053,),0,0,2
1:37.392,35061,(,0,0,0
1:37.422,35072,p,0,0,0
1:37.464,35087,),0,0,0
1:37.522,35108,(,0,0,1
1:37.561,35122,N,0,0,0
1:37.611,35140,),0,0,1
1:37.706,35174,(,0,0,2
1:37.811,35212,t,0,0,0
1:37.917,35250,),0,0,2
1:37.939,35258,(,0,0,0
1:37.972,35270,p,0,0,0
1:38.014,35285,),0,0,0
1:38.081,35309,(,0,0,1
1:38.117,35322,N,0,0,0
1:38.167,35340,),0,0,1
1:38.258,35373,(,0,0,2
1:38.369,35413,t,0,0,0
1:38.478,35452,),0,0,2
1:38.503,35461,(,0,0,0
1:38.536,35473,p,0,0,0
1:38.572,35486,),0,0,0
1:38.636,35509,(,0,0,1
1:38.672,35522,N,0,0,0
1:38.719,35539,),0,0,1
1:38.797,35567,(,0,0,2
1:38.917,35610,t,0,0,0
1:39.017,35646,),0,0,2
1:39.044,35656,(,0,0,0
1:39.081,35669,p,0,0,0
1:39.119,35683,),0,0,0
1:39.183,35706,(,0,0,1
1:39.219,35719,N,0,0,0
1:39.269,35737,),0,0,1
1:39.367,35772,(,0,0,2
1:39.469,35809,t,0,0,0
1:39.567,35844,),0,0,2
1:39.589,35852,(,0,0,0
1:39.619,35863,p,0,0,0
1:39.656,35876,),0,0,0
1:39.717,35898,(,0,0,1
1:39.753,35911,N,0,0,0
1:39.800,35928,),0,0,1
1:39.883,35958,(,0,0,2
1:39.989,35996,t,0,0,0
1:40.100,36036,),0,0,2
1:40.122,36044,(,0,0,0
1:40.156,36056,p,0,0,0
1:40.192,36069,),0,0,0
1:40.253,36091,(,0,0,1
1:40.289,36104,N,0,0,0
1:40.342,36123,),0,0,1
1:40.425,36153,(,0,0,2
1:40.542,36195,t,0,0,0
1:40.642,36231,),0,0,2
1:40.667,36240,(,0,0,0
1:40.703,36253,p,0,0,0
1:40.742,36267,),0,0,0
1:40.803,36289,(,0,0,1
1:40.842,36303,N,0,0,0
1:40.894,36322,),0,0,1
1:40.997,36359,(,0,0,2
1:41.103,36397,t,0,0,0
1:41.206,36434,),0,0,2
1:41.231,36443,(,0,0,0
1:41.261,36454,p,0,0,0
1:41.303,36469,),0,0,0
1:41.367,36492,(,0,0,1
1:41.403,36505,N,0,0,0
1:41.450,36522,),0,0,1
1:41.547,36557,(,0,0,2
1:41.653,36595,t,0,0,0
1:41.756,36632,),0,0,2
1:41.772,36638,(,0,0,0
1:41.803,36649,p,0,0,0
1:41.839,36662,),0,0,0
1:41.900,36684,(,0,0,1
1:41.933,36696,N,0,0,0
1:41.983,36714,),0,0,1
1:42.067,36744,(,0,0,2
1:42.178,36784,t,0,0,0
1:42.289,36824,),0,0,2
1:42.322,36836,(,0,0,0
1:42.356,36848,p,0,0,0
1:42.394,36862,),0,0,0
1:42.458,36885,(,0,0,1
1:42.494,36898,N,0,0,0
1:42.544,36916,),0,0,1
1:42.639,36950,(,0,0,2
1:42.747,36989,t,0,0,0
1:42.831,37019,),0,0,2
1:42.853,37027,(,0,0,0
1:42.883,37038,p,0,0,0
1:42.919,37051,),0,0,0
1:42.983,37074,(,0,0,1
1:43.019,37087,N,0,0,0
1:43.064,37103,),0,0,1
1:43.164,37139,(,0,0,2
1:43.267,37176,t,0,0,0
1:43.369,37213,),0,0,2
1:43.392,37221,(,0,0,0
1:43.419,37231,p,0,0,0
1:43.461,37246,),0,0,0
1:43.525,37269,(,0,0,1
1:43.561,37282,N,0,0,0
1:43.611,37300,),0,0,1
1:43.706,37334,(,0,0,2
1:43.814,37373,t,0,0,0
1:43.908,37407,),0,0,2
1:43.928,37414,(,0,0,0
1:43.961,37426,p,0,0,0
1:44.000,37440,),0,0,0
1:44.064,37463,(,0,0,1
1:44.100,37476,N,0,0,0
1:44.147,37493,),0,0,1
1:44.231,37523,(,0,0,2
1:44.344,37564,t,0,0,0
1:44.456,37604,),0,0,2
1:44.483,37614,(,0,0,0
1:44.517,37626,p,0,0,0
1:44.556,37640,),0,0,0
1:44.617,37662,(,0,0,1
1:44.653,37675,N,0,0,0
1:44.703,37693,),0,0,1
1:44.781,37721,(,0,0,2
1:44.894,37762,t,0,0,0
1:44.994,37798,),0,0,2
1:45.019,37807,(,0,0,0
1:45.056,37820,p,0,0,0
1:45.094,37834,),0,0,0
1:45.158,37857,(,0,0,1
1:45.197,37871,N,0,0,0
1:45.247,37889,),0,0,1
1:45.353,37927,(,0,0,2
1:45.458,37965,t,0,0,0
1:45.553,37999,),0,0,2
1:45.575,38007,(,0,0,0
1:45.606,38018,p,0,0,0
1:45.647,38033,),0,0,0
1:45.708,38055,(,0,0,1
1:45.744,38068,N,0,0,0
1:45.794,38086,),0,0,1
1:45.894,38122,(,0,0,2
1:46.000,38160,t,0,0,0
1:46.100,38196,),0,0,2
1:46.122,38204,(,0,0,0
1:46.156,38216,p,0,0,0
1:46.192,38229,),0,0,0
1:46.258,38253,(,0,0,1
1:46.297,38267,N,0,0,0
1:46.347,38285,),0,0,1
1:46.433,38316,(,0,0,2
1:46.547,38357,t,0,0,0
1:46.661,38398,),0,0,2
1:46.686,38407,(,0,0,0
1:46.719,38419,p,0,0,0
1:46.753,38431,),0,0,0
1:46.814,38453,(,0,0,1
1:46.847,38465,N,0,0,0
1:46.900,38484,),0,0,1
1:46.986,38515,(,0,0,2
1:47.094,38554,t,0,0,0
1:47.192,38589,),0,0,2
1:47.214,38597,(,0,0,0
1:47.250,38610,p,0,0,0
1:47.289,38624,),0,0,0
1:47.353,38647,(,0,0,1
1:47.389,38660,N,0,0,0
1:47.442,38679,),0,0,1
1:47.542,38715,(,0,0,2
1:47.650,38754,t,0,0,0
1:47.742,38787,),0,0,2
1:47.767,38796,(,0,0,0
1:47.794,38806,p,0,0,0
1:47.833,38820,),0,0,0
1:47.894,38842,(,0,0,1
1:47.931,38855,N,0,0,0
1:47.981,38873,),0,0,1
1:48.075,38907,(,0,0,2
1:48.181,38945,t,0,0,0
1:48.278,38980,),0,0,2
1:48.300,38988,(,0,0,0
1:48.333,39000,p,0,0,0
1:48.369,39013,),0,0,0
1:48.431,39035,(,0,0,1
1:48.467,39048,N,0,0,0
1:48.517,39066,),0,0,1
1:48.606,39098,(,0,0,2
1:48.714,39137,t,0,0,0
1:48.822,39176,),0,0,2
1:48.853,39187,(,0,0,0
1:48.886,39199,p,0,0,0
1:48.922,39212,),0,0,0
1:48.983,39234,(,0,0,1
1:49.022,39248,N,0,0,0
1:49.075,39267,),0,0,1
1:49.161,39298,(,0,0,2
1:49.278,39340,t,0,0,0
1:49.375,39375,),0,0,2
1:49.400,39384,(,0,0,0
1:49.433,39396,p,0,0,0
1:49.472,39410,),0,0,0
1:49.536,39433,(,0,0,1
1:49.572,39446,N,0,0,0
1:49.622,39464,),0,0,1
1:49.722,39500,(,0,0,2
1:49.828,39538,t,0,0,0
1:49.928,39574,),0,0,2
1:49.947,39581,(,0,0,0
1:49.978,39592,p,0,0,0
1:50.017,39606,),0,0,0
1:50.081,39629,(,0,0,1
1:50.117,39642,N,0,0,0
1:50.164,39659,),0,0,1
1:50.250,39690,(,0,0,2
1:50.361,39730,t,0,0,0
1:50.475,39771,),0,0,2
1:50.497,39779,(,0,0,0
1:50.531,39791,p,0,0,0
1:50.569,39805,),0,0,0
1:50.636,39829,(,0,0,1
1:50.672,39842,N,0,0,0
1:50.722,39860,),0,0,1
1:50.817,39894,(,0,0,2
1:50.931,39935,t,0,0,0
1:51.025,39969,),0,0,2
1:51.047,39977,(,0,0,0
1:51.081,39989,p,0,0,0
1:51.117,40002,),0,0,0
1:51.175,40023,(,0,0,1
1:51.208,40035,N,0,0,0
1:51.258,40053,),0,0,1
1:51.350,40086,(,0,0,2
1:51.458,40125,t,0,0,0
1:51.556,40160,),0,0,2
1:51.575,40167,(,0,0,0
1:51.608,40179,p,0,0,0
1:51.644,40192,),0,0,0
1:51.708,40215,(,0,0,1
1:51.747,40229,N,0,0,0
1:51.794,40246,),0,0,1
1:51.886,40279,(,0,0,2
1:51.989,40316,t,0,0,0
1:52.092,40353,),0,0,2
1:52.111,40360,(,0,0,0
1:52.142,40371,p,0,0,0
1:52.178,40384,),0,0,0
1:52.242,40407,(,0,0,1
1:52.278,40420,N,0,0,0
1:52.328,40438,),0,0,1
1:52.414,40469,(,0,0,2
1:52.525,40509,t,0,0,0
1:52.636,40549,),0,0,2
1:52.664,40559,(,0,0,0
1:52.700,40572,p,0,0,0
1:52.739,40586,),0,0,0
1:52.800,40608,(,0,0,1
1:52.833,40620,N,0,0,0
1:52.886,40639,),0,0,1
1:52.972,40670,(,0,0,2
1:53.078,40708,t,0,0,0
1:53.167,40740,),0,0,2
1:53.189,40748,(,0,0,0
1:53.222,40760,p,0,0,0
1:53.261,40774,),0,0,0
1:53.322,40796,(,0,0,1
1:53.361,40810,N,0,0,0
1:53.408,40827,),0,0,1
1:53.508,40863,(,0,0,2
1:53.617,40902,t,0,0,0
1:53.717,40938,),0,0,2
1:53.739,40946,(,0,0,0
1:53.772,40958,p,0,0,0
1:53.806,40970,),0,0,0
1:53.867,40992,(,0,0,1
1:53.903,41005,N,0,0,0
1:53.956,41024,),0,0,1
1:54.036,41053,(,0,0,2
1:54.147,41093,t,0,0,0
1:54.256,41132,),0,0,2
1:54.283,41142,(,0,0,0
1:54.319,41155,p,0,0,0
1:54.356,41168,),0,0,0
1:54.419,41191,(,0,0,1
1:54.458,41205,N,0,0,0
1:54.511,41224,),0,0,1
1:54.606,41258,(,0,0,2
1:54.717,41298,t,0,0,0
1:54.811,41332,),0,0,2
1:54.836,41341,(,0,0,0
1:54.867,41352,p,0,0,0
1:54.906,41366,),0,0,0
1:54.967,41388,(,0,0,1
1:55.003,41401,N,0,0,0
1:55.053,41419,),0,0,1
1:55.142,41451,(,0,0,2
1:55.244,41488,t,0,0,0
1:55.347,41525,),0,0,2
1:55.367,41532,(,0,0,0
1:55.400,41544,p,0,0,0
1:55.439,41558,),0,0,0
1:55.503,41581,(,0,0,1
1:55.539,41594,N,0,0,0
1:55.589,41612,),0,0,1
1:55.678,41644,(,0,0,2
1:55.786,41683,t,0,0,0
1:55.897,41723,),0,0,2
1:55.919,41731,(,0,0,0
1:55.953,41743,p,0,0,0
1:55.989,41756,),0,0,0
1:56.047,41777,(,0,0,1
1:56.083,41790,N,0,0,0
1:56.131,41807,),0,0,1
1:56.211,41836,(,0,0,2
1:56.322,41876,t,0,0,0
1:56.417,41910,),0,0,2
1:56.442,41919,(,0,0,0
1:56.475,41931,p,0,0,0
1:56.514,41945,),0,0,0
1:56.575,41967,(,0,0,1
1:56.611,41980,N,0,0,0
1:56.661,41998,),0,0,1
1:56.756,42032,(,0,0,2
1:56.861,42070,t,0,0,0
1:56.964,42107,),0,0,2
1:56.986,42115,(,0,0,0
1:57.017,42126,p,0,0,0
1:57.056,42140,),0,0,0
1:57.119,42163,(,0,0,1
1:57.156,42176,N,0,0,0
1:57.208,42195,),0,0,1
1:57.306,42230,(,0,0,2
1:57.419,42271,t,0,0,0
1:57.522,42308,),0,0,2
1:57.544,42316,(,0,0,0
1:57.581,42329,p,0,0,0
1:57.617,42342,),0,0,0
1:57.683,42366,(,0,0,1
1:57.719,42379,N,0,0,0
1:57.772,42398,),0,0,1
1:57.864,42431,(,0,0,2
1:57.972,42470,t,0,0,0
1:58.086,42511,),0,0,2
1:58.111,42520,(,0,0,0
1:58.144,42532,p,0,0,0
1:58.181,42545,),0,0,0
1:58.244,42568,(,0,0,1
1:58.281,42581,N,0,0,0
1:58.331,42599,),0,0,1
1:58.431,42635,(,0,0,2
1:58.536,42673,t,0,0,0
1:58.631,42707,),0,0,2
1:58.653,42715,(,0,0,0
1:58.683,42726,p,0,0,0
1:58.722,42740,),0,0,0
1:58.783,42762,(,0,0,1
1:58.822,42776,N,0,0,0
1:58.872,42794,),0,0,1
1:58.969,42829,(,0,0,2
1:59.078,42868,t,0,0,0
1:59.175,42903,),0,0,2
1:59.197,42911,(,0,0,0
1:59.228,42922,p,0,0,0
1:59.267,42936,),0,0,0
1:59.294,42946,(,0,0,1
1:59.356,42968,N,0,0,0
1:59.397,42983,),0,0,1
1:59.403,42985,(,0,0,2
1:59.492,43017,t,0,0,4
1:59.622,43064,t,0,0,4
1:59.694,43090,),0,0,2
1:59.722,43100,(,0,0,0
1:59.764,43115,p,0,0,0
1:59.803,43129,),0,0,0
1:59.864,43151,(,0,0,1
1:59.897,43163,N,0,0,0
1:59.953,43183,),0,0,1
2:00.036,43213,(,0,0,2
2:00.144,43252,t,0,0,0
2:00.250,43290,),0,0,2
2:00.283,43302,(,0,0,0
2:00.317,43314,p,0,0,0
2:00.358,43329,),0,0,0
2:00.383,43338,(,0,0,1
2:00.447,43361,N,0,0,0
2:00.489,43376,),0,0,1
2:00.494,43378,(,0,0,2
2:00.592,43413,t,0,0,4
2:00.728,43462,t,0,0,4
2:00.800,43488,),0,0,2
2:00.825,43497,(,0,0,0
2:00.861,43510,p,0,0,0
2:00.897,43523,),0,0,0
2:00.961,43546,(,0,0,1
2:00.997,43559,N,0,0,0
2:01.047,43577,),0,0,1
2:01.142,43611,(,0,0,2
2:01.244,43648,t,0,0,0
2:01.342,43683,),0,0,2
2:01.367,43692,(,0,0,0
2:01.394,43702,p,0,0,0
2:01.431,43715,),0,0,0
2:01.442,43719,(,0,0,1
2:01.508,43743,N,0,0,0
2:01.569,43765,),0,0,1
2:01.575,43767,(,0,0,2
2:01.664,43799,t,0,0,1
2:01.800,43848,),0,0,2
2:01.914,43889,(,0,0,0
2:01.950,43902,p,0,0,0
2:01.986,43915,),0,0,0
2:02.053,43939,(,0,0,1
2:02.089,43952,N,0,0,0
2:02.139,43970,),0,0,1
2:02.217,43998,(,0,0,2
2:02.339,44042,t,0,0,0
2:02.442,44079,),0,0,2
2:02.486,44095,(,0,0,0
2:02.522,44108,p,0,0,0
2:02.569,44125,),0,0,0
2:02.589,44132,(,0,0,1
2:02.658,44157,N,0,0,0
2:02.703,44173,),0,0,1
2:02.708,44175,(,0,0,2
2:02.806,44210,t,0,0,4
2:02.944,44260,t,0,0,4
2:03.011,44284,),0,0,2
2:03.039,44294,(,0,0,0
2:03.072,44306,p,0,0,0
2:03.111,44320,),0,0,0
2:03.169,44341,(,0,0,1
2:03.206,44354,N,0,0,0
2:03.256,44372,),0,0,1
2:03.347,44405,(,0,0,2
2:03.453,44443,t,0,0,0
2:03.550,44478,),0,0,2
2:03.575,44487,(,0,0,0
2:03.608,44499,p,0,0,0
2:03.647,44513,),0,0,0
2:03.697,44531,(,0,0,1
2:03.747,44549,N,0,0,0
2:03.786,44563,),0,0,1
2:03.911,44608,(,0,0,2
2:04.011,44644,t,0,0,0
2:04.094,44674,),0,0,2
2:04.128,44686,(,0,0,0
2:04.164,44699,p,0,0,0
2:04.200,44712,),0,0,0
2:04.258,44733,(,0,0,1
2:04.294,44746,N,0,0,0
2:04.344,44764,),0,0,1
2:04.439,44798,(,0,0,2
2:04.542,44835,t,0,0,0
2:04.636,44869,),0,0,2
2:04.658,44877,(,0,0,0
2:04.692,44889,p,0,0,0
2:04.731,44903,),0,0,0
2:04.792,44925,(,0,0,1
2:04.828,44938,N,0,0,0
2:04.864,44951,),0,0,1
2:04.986,44995,(,0,0,2
2:05.092,45033,t,0,0,0
2:05.175,45063,),0,0,2
2:05.197,45071,(,0,0,0
2:05.231,45083,p,0,0,0
2:05.269,45097,),0,0,0
2:05.333,45120,(,0,0,1
2:05.372,45134,N,0,0,0
2:05.419,45151,),0,0,1
2:05.517,45186,(,0,0,2
2:05.628,45226,t,0,0,0
2:05.731,45263,),0,0,2
2:05.750,45270,(,0,0,0
2:05.781,45281,p,0,0,0
2:05.822,45296,),0,0,0
2:05.883,45318,(,0,0,1
2:05.922,45332,N,0,0,0
2:05.969,45349,),0,0,1
2:06.072,45386,(,0,0,2
2:06.183,45426,t,0,0,0
2:06.281,45461,),0,0,2
2:06.303,45469,(,0,0,0
2:06.333,45480,p,0,0,0
2:06.372,45494,),0,0,0
2:06.433,45516,(,0,0,1
2:06.469,45529,N,0,0,0
2:06.514,45545,),0,0,1
2:06.611,45580,(,0,0,2
2:06.725,45621,t,0,0,0
2:06.822,45656,),0,0,2
2:06.844,45664,(,0,0,0
2:06.878,45676,p,0,0,0
2:06.919,45691,),0,0,0
2:06.983,45714,(,0,0,1
2:07.022,45728,N,0,0,0
2:07.056,45740,),0,0,1
2:07.156,45776,(,0,0,2
2:07.275,45819,t,0,0,0
2:07.372,45854,),0,0,2
2:07.397,45863,(,0,0,0
2:07.428,45874,p,0,0,0
2:07.464,45887,),0,0,0
2:07.519,45907,(,0,0,1
2:07.556,45920,N,0,0,0
2:07.608,45939,),0,0,1
2:07.689,45968,(,0,0,2
2:07.803,46009,t,0,0,0
2:07.903,46045,),0,0,2
2:07.942,46059,(,0,0,0
2:07.975,46071,p,0,0,0
2:08.017,46086,),0,0,0
2:08.078,46108,(,0,0,1
2:08.114,46121,N,0,0,0
2:08.161,46138,),0,0,1
2:08.267,46176,(,0,0,2
2:08.372,46214,t,0,0,0
2:08.444,46240,),0,0,2
2:08.461,46246,(,0,0,0
2:08.486,46255,p,0,0,0
2:08.525,46269,),0,0,0
2:08.589,46292,(,0,0,1
2:08.625,46305,N,0,0,0
2:08.672,46322,),0,0,1
2:08.772,46358,(,0,0,2
2:08.883,46398,t,0,0,0
2:08.992,46437,),0,0,2
2:09.017,46446,(,0,0,0
2:09.047,46457,p,0,0,0
2:09.086,46471,),0,0,0
2:09.144,46492,(,0,0,1
2:09.183,46506,N,0,0,0
2:09.231,46523,),0,0,1
2:09.325,46557,(,0,0,2
2:09.436,46597,t,0,0,0
2:09.525,46629,),0,0,2
2:09.550,46638,(,0,0,0
2:09.586,46651,p,0,0,0
2:09.622,46664,),0,0,0
2:09.683,46686,(,0,0,1
2:09.722,46700,N,0,0,0
2:09.775,46719,),0,0,1
2:09.864,46751,(,0,0,2
2:09.972,46790,t,0,0,0
2:10.081,46829,),0,0,2
2:10.114,46841,(,0,0,0
2:10.150,46854,p,0,0,0
2:10.186,46867,),0,0,0
2:10.250,46890,(,0,0,1
2:10.283,46902,N,0,0,0
2:10.331,46919,),0,0,1
2:10.431,46955,(,0,0,2
2:10.542,46995,t,0,0,0
2:10.633,47028,),0,0,2
2:10.661,47038,(,0,0,0
2:10.697,47051,p,0,0,0
2:10.736,47065,),0,0,0
2:10.797,47087,(,0,0,1
2:10.833,47100,N,0,0,0
2:10.886,47119,),0,0,1
2:11.000,47160,(,0,0,2
2:11.106,47198,t,0,0,0
2:11.181,47225,),0,0,2
2:11.206,47234,(,0,0,0
2:11.236,47245,p,0,0,0
2:11.275,47259,),0,0,0
2:11.339,47282,(,0,0,1
2:11.375,47295,N,0,0,0
2:11.419,47311,),0,0,1
2:11.519,47347,(,0,0,2
2:11.633,47388,t,0,0,0
2:11.717,47418,),0,0,2
2:11.742,47427,(,0,0,0
2:11.775,47439,p,0,0,0
2:11.814,47453,),0,0,0
2:11.878,47476,(,0,0,1
2:11.911,47488,N,0,0,0
2:11.961,47506,),0,0,1
2:12.058,47541,(,0,0,2
2:12.164,47579,t,0,0,0
2:12.261,47614,),0,0,2
2:12.286,47623,(,0,0,0
2:12.317,47634,p,0,0,0
2:12.353,47647,),0,0,0
2:12.403,47665,(,0,0,1
2:12.450,47682,N,0,0,0
2:12.489,47696,),0,0,1
2:12.606,47738,(,0,0,2
2:12.706,47774,t,0,0,0
2:12.783,47802,),0,0,2
2:12.819,47815,(,0,0,0
2:12.853,47827,p,0,0,0
2:12.889,47840,),0,0,0
2:12.953,47863,(,0,0,1
2:12.986,47875,N,0,0,0
2:13.039,47894,),0,0,1
2:13.119,47923,(,0,0,2
2:13.233,47964,t,0,0,0
2:13.328,47998,),0,0,2
2:13.364,48011,(,0,0,0
2:13.397,48023,p,0,0,0
2:13.436,48037,),0,0,0
2:13.489,48056,(,0,0,1
2:13.531,48071,N,0,0,0
2:13.569,48085,),0,0,1
2:13.694,48130,(,0,0,2
2:13.794,48166,t,0,0,0
2:13.883,48198,),0,0,2
2:13.908,48207,(,0,0,0
2:13.939,48218,p,0,0,0
2:13.978,48232,),0,0,0
2:14.042,48255,(,0,0,1
2:14.081,48269,N,0,0,0
2:14.131,48287,),0,0,1
2:14.231,48323,(,0,0,2
2:14.339,48362,t,0,0,0
2:14.442,48399,),0,0,2
2:14.464,48407,(,0,0,0
2:14.497,48419,p,0,0,0
2:14.533,48432,),0,0,0
2:14.589,48452,(,0,0,1
2:14.633,48468,N,0,0,0
2:14.669,48481,),0,0,1
2:14.792,48525,(,0,0,2
2:14.894,48562,t,0,0,0
2:14.983,48594,),0,0,2
2:15.008,48603,(,0,0,0
2:15.044,48616,p,0,0,0
2:15.081,48629,),0,0,0
2:15.144,48652,(,0,0,1
2:15.181,48665,N,0,0,0
2:15.233,48684,),0,0,1
2:15.325,48717,(,0,0,2
2:15.433,48756,t,0,0,0
2:15.528,48790,),0,0,2
2:15.553,48799,(,0,0,0
2:15.586,48811,p,0,0,0
2:15.622,48824,),0,0,0
2:15.686,48847,(,0,0,1
2:15.719,48859,N,0,0,0
2:15.756,48872,),0,0,1
2:15.872,48914,(,0,0,2
2:15.978,48952,t,0,0,0
2:16.064,48983,),0,0,2
2:16.086,48991,(,0,0,0
2:16.117,49002,p,0,0,0
2:16.156,49016,),0,0,0
2:16.217,49038,(,0,0,1
2:16.253,49051,N,0,0,0
2:16.303,49069,),0,0,1
2:16.397,49103,(,0,0,2
2:16.500,49140,t,0,0,0
2:16.597,49175,),0,0,2
2:16.622,49184,(,0,0,0
2:16.653,49195,p,0,0,0
2:16.692,49209,),0,0,0
2:16.731,49223,(,0,0,1
2:16.783,49242,N,0,0,0
2:16.822,49256,),0,0,1
2:16.956,49304,(,0,0,2
2:17.053,49339,t,0,0,0
2:17.133,49368,),0,0,2
2:17.169,49381,(,0,0,0
2:17.206,49394,p,0,0,0
2:17.242,49407,),0,0,0
2:17.308,49431,(,0,0,1
2:17.342,49443,N,0,0,0
2:17.394,49462,),0,0,1
2:17.483,49494,(,0,0,2
2:17.583,49530,t,0,0,0
2:17.672,49562,),0,0,2
2:17.697,49571,(,0,0,0
2:17.733,49584,p,0,0,0
2:17.772,49598,),0,0,0
2:17.800,49608,(,0,0,1
2:17.861,49630,N,0,0,0
2:17.903,49645,),0,0,1
2:17.908,49647,(,0,0,2
2:18.008,49683,t,0,0,4
2:18.142,49731,t,0,0,4
2:18.211,49756,),0,0,2
2:18.244,49768,(,0,0,0
2:18.281,49781,p,0,0,0
2:18.319,49795,),0,0,0
2:18.381,49817,(,0,0,1
2:18.417,49830,N,0,0,0
2:18.464,49847,),0,0,1
2:18.553,49879,(,0,0,2
2:18.664,49919,t,0,0,0
2:18.775,49959,),0,0,2
2:18.839,49982,(,0,0,1
2:18.936,50017,N,0,0,0
2:19.008,50043,),0,0,1
2:19.050,50058,(,0,0,2
2:19.106,50078,t,0,0,1
2:19.228,50122,),0,0,2
2:19.358,50169,(,0,0,0
2:19.394,50182,p,0,0,0
2:19.433,50196,),0,0,0
2:19.492,50217,(,0,0,1
2:19.531,50231,N,0,0,0
2:19.581,50249,),0,0,1
2:19.664,50279,(,0,0,2
2:19.778,50320,t,0,0,0
2:19.867,50352,),0,0,2
2:19.892,50361,(,0,0,0
2:19.928,50374,p,0,0,0
2:19.969,50389,),0,0,0
2:19.994,50398,(,0,0,1
2:20.061,50422,N,0,0,0
2:20.100,50436,),0,0,1
2:20.106,50438,(,0,0,2
2:20.206,50474,t,0,0,4
2:20.339,50522,t,0,0,4
2:20.397,50543,),0,0,2
2:20.433,50556,(,0,0,0
2:20.469,50569,p,0,0,0
2:20.506,50582,),0,0,0
2:20.564,50603,(,0,0,1
2:20.603,50617,N,0,0,0
2:20.653,50635,),0,0,1
2:20.739,50666,(,0,0,2
2:20.847,50705,t,0,0,0
2:20.956,50744,),0,0,2
2:20.981,50753,(,0,0,0
2:21.017,50766,p,0,0,0
2:21.053,50779,),0,0,0
2:21.103,50797,(,0,0,1
2:21.150,50814,N,0,0,0
2:21.189,50828,),0,0,1
2:21.317,50874,(,0,0,2
2:21.419,50911,t,0,0,0
2:21.497,50939,),0,0,2
2:21.519,50947,(,0,0,0
2:21.553,50959,p,0,0,0
2:21.592,50973,),0,0,0
2:21.656,50996,(,0,0,1
2:21.692,51009,N,0,0,0
2:21.742,51027,),0,0,1
2:21.831,51059,(,0,0,2
2:21.944,51100,t,0,0,0
2:22.044,51136,),0,0,2
2:22.069,51145,(,0,0,0
2:22.103,51157,p,0,0,0
2:22.144,51172,),0,0,0
2:22.203,51193,(,0,0,1
2:22.247,51209,N,0,0,0
2:22.286,51223,),0,0,1
2:22.411,51268,(,0,0,2
2:22.511,51304,t,0,0,0
2:22.600,51336,),0,0,2
2:22.631,51347,(,0,0,0
2:22.667,51360,p,0,0,0
2:22.706,51374,),0,0,0
2:22.761,51394,(,0,0,1
2:22.800,51408,N,0,0,0
2:22.850,51426,),0,0,1
2:22.936,51457,(,0,0,2
2:23.044,51496,t,0,0,0
2:23.142,51531,),0,0,2
2:23.169,51541,(,0,0,0
2:23.206,51554,p,0,0,0
2:23.242,51567,),0,0,0
2:23.303,51589,(,0,0,1
2:23.342,51603,N,0,0,0
2:23.394,51622,),0,0,1
2:23.489,51656,(,0,0,2
2:23.600,51696,t,0,0,0
2:23.703,51733,),0,0,2
2:23.719,51739,(,0,0,0
2:23.753,51751,p,0,0,0
2:23.792,51765,),0,0,0
2:23.850,51786,(,0,0,1
2:23.886,51799,N,0,0,0
2:23.933,51816,),0,0,1
2:24.022,51848,(,0,0,2
2:24.125,51885,t,0,0,0
2:24.233,51924,),0,0,2
2:24.256,51932,(,0,0,0
2:24.289,51944,p,0,0,0
2:24.325,51957,),0,0,0
2:24.389,51980,(,0,0,1
2:24.425,51993,N,0,0,0
2:24.478,52012,),0,0,1
2:24.564,52043,(,0,0,2
2:24.675,52083,t,0,0,0
2:24.778,52120,),0,0,2
2:24.803,52129,(,0,0,0
2:24.836,52141,p,0,0,0
2:24.872,52154,),0,0,0
2:24.931,52175,(,0,0,1
2:24.967,52188,N,0,0,0
2:25.017,52206,),0,0,1
2:25.106,52238,(,0,0,2
2:25.217,52278,t,0,0,0
2:25.317,52314,),0,0,2
2:25.339,52322,(,0,0,0
2:25.372,52334,p,0,0,0
2:25.411,52348,),0,0,0
2:25.469,52369,(,0,0,1
2:25.508,52383,N,0,0,0
2:25.556,52400,),0,0,1
2:25.653,52435,(,0,0,2
2:25.753,52471,t,0,0,0
2:25.853,52507,),0,0,2
2:25.872,52514,(,0,0,0
2:25.903,52525,p,0,0,0
2:25.942,52539,),0,0,0
2:26.000,52560,(,0,0,1
2:26.036,52573,N,0,0,0
2:26.086,52591,),0,0,1
2:26.181,52625,(,0,0,2
2:26.289,52664,t,0,0,0
2:26.406,52706,),0,0,2
2:26.431,52715,(,0,0,0
2:26.464,52727,p,0,0,0
2:26.500,52740,),0,0,0
2:26.564,52763,(,0,0,1
2:26.600,52776,N,0,0,0
2:26.650,52794,),0,0,1
2:26.736,52825,(,0,0,2
2:26.850,52866,t,0,0,0
2:26.944,52900,),0,0,2
2:26.972,52910,(,0,0,0
2:27.008,52923,p,0,0,0
2:27.044,52936,),0,0,0
2:27.108,52959,(,0,0,1
2:27.144,52972,N,0,0,0
2:27.197,52991,),0,0,1
2:27.294,53026,(,0,0,2
2:27.403,53065,t,0,0,0
2:27.503,53101,),0,0,2
2:27.525,53109,(,0,0,0
2:27.558,53121,p,0,0,0
2:27.597,53135,),0,0,0
2:27.661,53158,(,0,0,1
2:27.697,53171,N,0,0,0
2:27.886,53239,),0,0,1
2:27.894,53242,(,0,0,2
2:27.950,53262,t,0,0,0
2:28.042,53295,),0,0,2
2:28.061,53302,(,0,0,0
2:28.094,53314,p,0,0,0
2:28.131,53327,),0,0,0
2:28.186,53347,(,0,0,1
2:28.225,53361,N,0,0,0
2:28.275,53379,),0,0,1
2:28.367,53412,(,0,0,2
2:28.472,53450,t,0,0,0
2:28.575,53487,),0,0,2
2:28.606,53498,(,0,0,0
2:28.642,53511,p,0,0,0
2:28.678,53524,),0,0,0
2:28.725,53541,(,0,0,1
2:28.775,53559,N,0,0,0
2:28.814,53573,),0,0,1
2:28.939,53618,(,0,0,2
2:29.039,53654,t,0,0,0
2:29.114,53681,),0,0,2
2:29.136,53689,(,0,0,0
2:29.169,53701,p,0,0,0
2:29.206,53714,),0,0,0
2:29.267,53736,(,0,0,1
2:29.303,53749,N,0,0,0
2:29.350,53766,),0,0,1
2:29.442,53799,(,0,0,2
2:29.544,53836,t,0,0,0
2:29.636,53869,),0,0,2
2:29.664,53879,(,0,0,0
2:29.697,53891,p,0,0,0
2:29.736,53905,),0,0,0
2:29.756,53912,(,0,0,1
2:29.825,53937,N,0,0,0
2:29.869,53953,),0,0,1
2:29.919,53971,(,0,0,2
2:29.972,53990,t,0,0,4
2:30.103,54037,t,0,0,4
2:30.164,54059,),0,0,2
2:30.211,54076,(,0,0,0
2:30.250,54090,p,0,0,0
2:30.286,54103,),0,0,0
2:30.353,54127,(,0,0,1
2:30.389,54140,N,0,0,0
2:30.442,54159,),0,0,1
2:30.533,54192,(,0,0,2
2:30.650,54234,t,0,0,0
2:30.747,54269,),0,0,2
2:30.775,54279,(,0,0,0
2:30.808,54291,p,0,0,0
2:30.844,54304,),0,0,0
2:30.858,54309,(,0,0,1
2:30.919,54331,N,0,0,0
2:30.983,54354,),0,0,1
2:30.989,54356,(,0,0,2
2:31.078,54388,t,0,0,4
2:31.208,54435,t,0,0,4
2:31.261,54454,),0,0,2
2:31.306,54470,(,0,0,0
2:31.344,54484,p,0,0,0
2:31.383,54498,),0,0,0
2:31.444,54520,(,0,0,1
2:31.483,54534,N,0,0,0
2:31.533,54552,),0,0,1
2:31.625,54585,(,0,0,2
2:31.739,54626,t,0,0,0
2:31.842,54663,),0,0,2
2:31.914,54689,(,0,0,1
2:32.000,54720,N,0,0,0
2:32.069,54745,),0,0,1
2:32.075,54747,(,0,0,2
2:32.156,54776,t,0,0,4
2:32.281,54821,t,0,0,4
2:32.331,54839,),0,0,2
2:32.392,54861,(,0,0,0
2:32.425,54873,p,0,0,0
2:32.461,54886,),0,0,0
2:32.525,54909,(,0,0,1
2:32.561,54922,N,0,0,0
2:32.614,54941,),0,0,1
2:32.706,54974,(,0,0,2
2:32.814,55013,t,0,0,0
2:32.900,55044,),0,0,2
2:32.925,55053,(,0,0,0
2:32.958,55065,p,0,0,0
2:32.997,55079,),0,0,0
2:33.053,55099,(,0,0,1
2:33.089,55112,N,0,0,0
2:33.125,55125,),0,0,1
2:33.244,55168,(,0,0,2
2:33.353,55207,t,0,0,0
2:33.442,55239,),0,0,2
2:33.464,55247,(,0,0,0
2:33.497,55259,p,0,0,0
2:33.533,55272,),0,0,0
2:33.597,55295,(,0,0,1
2:33.636,55309,N,0,0,0
2:33.686,55327,),0,0,1
2:33.775,55359,(,0,0,2
2:33.878,55396,t,0,0,0
2:33.978,55432,),0,0,2
2:34.011,55444,(,0,0,0
2:34.044,55456,p,0,0,0
2:34.081,55469,),0,0,0
2:34.139,55490,(,0,0,1
2:34.178,55504,N,0,0,0
2:34.228,55522,),0,0,1
2:34.319,55555,(,0,0,2
2:34.436,55597,t,0,0,0
2:34.528,55630,),0,0,2
2:34.550,55638,(,0,0,0
2:34.581,55649,p,0,0,0
2:34.622,55664,),0,0,0
2:34.683,55686,(,0,0,1
2:34.722,55700,N,0,0,0
2:34.772,55718,),0,0,1
2:34.864,55751,(,0,0,2
2:34.969,55789,t,0,0,0
2:35.069,55825,),0,0,2
2:35.089,55832,(,0,0,0
2:35.117,55842,p,0,0,0
2:35.158,55857,),0,0,0
2:35.222,55880,(,0,0,1
2:35.258,55893,N,0,0,0
2:35.303,55909,),0,0,1
2:35.417,55950,(,0,0,2
2:35.525,55989,t,0,0,0
2:35.625,56025,),0,0,2
2:35.656,56036,(,0,0,0
2:35.689,56048,p,0,0,0
2:35.725,56061,),0,0,0
2:35.792,56085,(,0,0,1
2:35.825,56097,N,0,0,0
2:35.875,56115,),0,0,1
2:35.969,56149,(,0,0,2
2:36.078,56188,t,0,0,0
2:36.167,56220,),0,0,2
2:36.189,56228,(,0,0,0
2:36.219,56239,p,0,0,0
2:36.261,56254,),0,0,0
2:36.322,56276,(,0,0,1
2:36.358,56289,N,0,0,0
2:36.394,56302,),0,0,1
2:36.514,56345,(,0,0,2
2:36.622,56384,t,0,0,0
2:36.708,56415,),0,0,2
2:36.728,56422,(,0,0,0
2:36.761,56434,p,0,0,0
2:36.800,56448,),0,0,0
2:36.864,56471,(,0,0,1
2:36.897,56483,N,0,0,0
2:36.947,56501,),0,0,1
2:37.036,56533,(,0,0,2
2:37.136,56569,t,0,0,0
2:37.242,56607,),0,0,2
2:37.264,56615,(,0,0,0
2:37.297,56627,p,0,0,0
2:37.333,56640,),0,0,0
2:37.386,56659,(,0,0,1
2:37.431,56675,N,0,0,0
2:37.467,56688,),0,0,1
2:37.592,56733,(,0,0,2
2:37.692,56769,t,0,0,0
2:37.769,56797,),0,0,2
2:37.797,56807,(,0,0,0
2:37.833,56820,p,0,0,0
2:37.869,56833,),0,0,0
2:37.933,56856,(,0,0,1
2:37.969,56869,N,0,0,0
2:38.022,56888,),0,0,1
2:38.122,56924,(,0,0,2
2:38.228,56962,t,0,0,0
2:38.325,56997,),0,0,2
2:38.347,57005,(,0,0,0
2:38.381,57017,p,0,0,0
2:38.419,57031,),0,0,0
2:38.461,57046,(,0,0,1
2:38.519,57067,N,0,0,0
2:38.561,57082,),0,0,1
2:38.567,57084,(,0,0,2
2:38.661,57118,t,0,0,4
2:38.797,57167,t,0,0,4
2:38.872,57194,),0,0,2
2:38.900,57204,(,0,0,0
2:38.939,57218,p,0,0,0
2:38.978,57232,),0,0,0
2:39.039,57254,(,0,0,1
2:39.075,57267,N,0,0,0
2:39.125,57285,),0,0,1
2:39.206,57314,(,0,0,2
2:39.314,57353,t,0,0,0
2:39.422,57392,),0,0,2
2:39.489,57416,(,0,0,1
2:39.569,57445,N,0,0,0
2:39.650,57474,),0,0,1
2:39.689,57488,(,0,0,2
2:39.736,57505,t,0,0,1
2:39.858,57549,),0,0,2
2:39.992,57597,(,0,0,0
2:40.025,57609,p,0,0,0
2:40.064,57623,),0,0,0
2:40.125,57645,(,0,0,1
2:40.161,57658,N,0,0,0
2:40.208,57675,),0,0,1
2:40.303,57709,(,0,0,2
2:40.406,57746,t,0,0,0
2:40.489,57776,),0,0,2
2:40.514,57785,(,0,0,0
2:40.544,57796,p,0,0,0
2:40.586,57811,),0,0,0
2:40.639,57830,(,0,0,1
2:40.686,57847,N,0,0,0
2:40.722,57860,),0,0,1
2:40.847,57905,(,0,0,2
2:40.956,57944,t,0,0,0
2:41.036,57973,),0,0,2
2:41.058,57981,(,0,0,0
2:41.092,57993,p,0,0,0
2:41.128,58006,),0,0,0
2:41.183,58026,(,0,0,1
2:41.219,58039,N,0,0,0
2:41.269,58057,),0,0,1
2:41.356,58088,(,0,0,2
2:41.464,58127,t,0,0,0
2:41.567,58164,),0,0,2
2:41.597,58175,(,0,0,0
2:41.631,58187,p,0,0,0
2:41.672,58202,),0,0,0
2:41.736,58225,(,0,0,1
2:41.769,58237,N,0,0,0
2:41.814,58253,),0,0,1
2:41.925,58293,(,0,0,2
2:42.031,58331,t,0,0,0
2:42.111,58360,),0,0,2
2:42.131,58367,(,0,0,0
2:42.158,58377,p,0,0,0
2:42.197,58391,),0,0,0
2:42.256,58412,(,0,0,1
2:42.292,58425,N,0,0,0
2:42.342,58443,),0,0,1
2:42.436,58477,(,0,0,2
2:42.544,58516,t,0,0,0
2:42.650,58554,),0,0,2
2:42.672,58562,(,0,0,0
2:42.706,58574,p,0,0,0
2:42.744,58588,),0,0,0
2:42.808,58611,(,0,0,1
2:42.842,58623,N,0,0,0
2:42.875,58635,),0,0,1
2:42.986,58675,(,0,0,2
2:43.097,58715,t,0,0,0
2:43.194,58750,),0,0,2
2:43.219,58759,(,0,0,0
2:43.253,58771,p,0,0,0
2:43.292,58785,),0,0,0
2:43.356,58808,(,0,0,1
2:43.392,58821,N,0,0,0
2:43.444,58840,),0,0,1
2:43.533,58872,(,0,0,2
2:43.653,58915,t,0,0,0
2:43.747,58949,),0,0,2
2:43.781,58961,(,0,0,0
2:43.814,58973,p,0,0,0
2:43.853,58987,),0,0,0
2:43.917,59010,(,0,0,1
2:43.953,59023,N,0,0,0
2:44.000,59040,),0,0,1
2:44.100,59076,(,0,0,2
2:44.203,59113,t,0,0,0
2:44.294,59146,),0,0,2
2:44.314,59153,(,0,0,0
2:44.344,59164,p,0,0,0
2:44.381,59177,),0,0,0
2:44.439,59198,(,0,0,1
2:44.475,59211,N,0,0,0
2:44.525,59229,),0,0,1
2:44.625,59265,(,0,0,2
2:44.728,59302,t,0,0,0
2:44.828,59338,),0,0,2
2:44.847,59345,(,0,0,0
2:44.883,59358,p,0,0,0
2:44.919,59371,),0,0,0
2:44.983,59394,(,0,0,1
2:45.019,59407,N,0,0,0
2:45.056,59420,),0,0,1
2:45.175,59463,(,0,0,2
2:45.275,59499,t,0,0,0
2:45.369,59533,),0,0,2
2:45.397,59543,(,0,0,0
2:45.431,59555,p,0,0,0
2:45.464,59567,),0,0,0
2:45.525,59589,(,0,0,1
2:45.558,59601,N,0,0,0
2:45.611,59620,),0,0,1
2:45.703,59653,(,0,0,2
2:45.806,59690,t,0,0,0
2:45.897,59723,),0,0,2
2:45.925,59733,(,0,0,0
2:45.958,59745,p,0,0,0
2:45.997,59759,),0,0,0
2:46.053,59779,(,0,0,1
2:46.097,59795,N,0,0,0
2:46.136,59809,),0,0,1
2:46.261,59854,(,0,0,2
2:46.367,59892,t,0,0,0
2:46.450,59922,),0,0,2
2:46.475,59931,(,0,0,0
2:46.511,59944,p,0,0,0
2:46.547,59957,),0,0,0
2:46.611,59980,(,0,0,1
2:46.650,59994,N,0,0,0
2:46.703,60013,),0,0,1
2:46.750,60030,t,0,0,2
2:46.892,60081,),0,0,2
2:46.931,60095,(,0,0,0
2:47.022,60128,p,0,0,0
2:47.067,60144,),0,0,0
2:47.083,60150,(,0,0,1
2:47.178,60184,N,0,0,0
2:47.250,60210,),0,0,1
2:47.256,60212,(,0,0,2
2:47.342,60243,t,0,0,4
2:47.478,60292,t,0,0,4
2:47.528,60310,),0,0,2
2:47.592,60333,(,0,0,0
2:47.625,60345,p,0,0,0
2:47.664,60359,),0,0,0
2:47.728,60382,(,0,0,1
2:47.764,60395,N,0,0,0
2:47.817,60414,),0,0,1
2:47.906,60446,(,0,0,2
2:48.025,60489,t,0,0,0
2:48.117,60522,),0,0,2
2:48.144,60532,(,0,0,0
2:48.178,60544,p,0,0,0
2:48.214,60557,),0,0,0
2:48.228,60562,(,0,0,1
2:48.294,60586,N,0,0,0
2:48.353,60607,),0,0,1
2:48.358,60609,(,0,0,2
2:48.444,60640,t,0,0,4
2:48.575,60687,t,0,0,4
2:48.625,60705,),0,0,2
2:48.672,60722,(,0,0,0
2:48.708,60735,p,0,0,0
2:48.744,60748,),0,0,0
2:48.806,60770,(,0,0,1
2:48.842,60783,N,0,0,0
2:48.892,60801,),0,0,1
2:48.975,60831,(,0,0,2
2:49.094,60874,t,0,0,0
2:49.194,60910,),0,0,2
2:49.228,60922,(,0,0,0
2:49.261,60934,p,0,0,0
2:49.306,60950,),0,0,0
2:49.325,60957,(,0,0,1
2:49.389,60980,N,0,0,0
2:49.433,60996,),0,0,1
2:49.439,60998,(,0,0,2
2:49.531,61031,t,0,0,4
2:49.661,61078,t,0,0,4
2:49.728,61102,),0,0,2
2:49.756,61112,(,0,0,0
2:49.792,61125,p,0,0,0
2:49.831,61139,),0,0,0
2:49.894,61162,(,0,0,1
2:49.931,61175,N,0,0,0
2:49.983,61194,),0,0,1
2:50.075,61227,(,0,0,2
2:50.186,61267,t,0,0,0
2:50.283,61302,),0,0,2
2:50.308,61311,(,0,0,0
2:50.339,61322,p,0,0,0
2:50.378,61336,),0,0,0
2:50.411,61348,(,0,0,1
2:50.472,61370,N,0,0,0
2:50.519,61387,),0,0,1
2:50.603,61417,(,0,0,2
2:50.717,61458,t,0,0,0
2:50.822,61496,),0,0,2
2:50.850,61506,(,0,0,0
2:50.886,61519,p,0,0,0
2:50.922,61532,),0,0,0
2:50.983,61554,(,0,0,1
2:51.022,61568,N,0,0,0
2:51.078,61588,),0,0,1
2:51.167,61620,(,0,0,2
2:51.275,61659,t,0,0,0
2:51.372,61694,),0,0,2
2:51.400,61704,(,0,0,0
2:51.433,61716,p,0,0,0
2:51.472,61730,),0,0,0
2:51.536,61753,(,0,0,1
2:51.572,61766,N,0,0,0
2:51.622,61784,),0,0,1
2:51.725,61821,(,0,0,2
2:51.831,61859,t,0,0,0
2:51.928,61894,),0,0,2
2:51.950,61902,(,0,0,0
2:51.983,61914,p,0,0,0
2:52.022,61928,),0,0,0
2:52.086,61951,(,0,0,1
2:52.125,61965,N,0,0,0
2:52.172,61982,),0,0,1
2:52.272,62018,(,0,0,2
2:52.381,62057,t,0,0,0
2:52.472,62090,),0,0,2
2:52.492,62097,(,0,0,0
2:52.522,62108,p,0,0,0
2:52.558,62121,),0,0,0
2:52.619,62143,(,0,0,1
2:52.658,62157,N,0,0,0
2:52.706,62174,),0,0,1
2:52.800,62208,(,0,0,2
2:52.911,62248,t,0,0,0
2:53.011,62284,),0,0,2
2:53.036,62293,(,0,0,0
2:53.069,62305,p,0,0,0
2:53.108,62319,),0,0,0
2:53.167,62340,(,0,0,1
2:53.206,62354,N,0,0,0
2:53.256,62372,),0,0,1
2:53.336,62401,(,0,0,2
2:53.447,62441,t,0,0,0
2:53.553,62479,),0,0,2
2:53.578,62488,(,0,0,0
2:53.611,62500,p,0,0,0
2:53.647,62513,),0,0,0
2:53.706,62534,(,0,0,1
2:53.742,62547,N,0,0,0
2:53.792,62565,),0,0,1
2:53.872,62594,(,0,0,2
2:53.986,62635,t,0,0,0
2:54.081,62669,),0,0,2
2:54.108,62679,(,0,0,0
2:54.142,62691,p,0,0,0
2:54.181,62705,),0,0,0
2:54.244,62728,(,0,0,1
2:54.281,62741,N,0,0,0
2:54.331,62759,),0,0,1
2:54.422,62792,(,0,0,2
2:54.536,62833,t,0,0,0
2:54.633,62868,),0,0,2
2:54.656,62876,(,0,0,0
2:54.689,62888,p,0,0,0
2:54.728,62902,),0,0,0
2:54.767,62916,(,0,0,1
2:54.828,62938,N,0,0,0
2:54.867,62952,),0,0,1
2:54.925,62973,(,0,0,2
2:54.969,62989,t,0,0,4
2:55.108,63039,t,0,0,4
2:55.181,63065,),0,0,2
2:55.214,63077,(,0,0,0
2:55.250,63090,p,0,0,0
2:55.286,63103,),0,0,0
2:55.356,63128,(,0,0,1
2:55.392,63141,N,0,0,0
2:55.442,63159,),0,0,1
2:55.528,63190,(,0,0,2
2:55.639,63230,t,0,0,0
2:55.747,63269,),0,0,2
2:55.778,63280,(,0,0,1
2:55.883,63318,N,0,0,0
2:55.958,63345,),0,0,1
2:56.003,63361,(,0,0,2
2:56.042,63375,t,0,0,4
2:56.181,63425,t,0,0,4
2:56.236,63445,),0,0,2
2:56.317,63474,(,0,0,0
2:56.353,63487,p,0,0,0
2:56.392,63501,),0,0,0
2:56.453,63523,(,0,0,1
2:56.489,63536,N,0,0,0
2:56.539,63554,),0,0,1
2:56.625,63585,(,0,0,2
2:56.739,63626,t,0,0,0
2:56.817,63654,),0,0,2
2:56.847,63665,(,0,0,0
2:56.881,63677,p,0,0,0
2:56.919,63691,),0,0,0
2:56.981,63713,(,0,0,1
2:57.017,63726,N,0,0,0
2:57.064,63743,),0,0,1
2:57.147,63773,(,0,0,2
2:57.258,63813,t,0,0,0
2:57.369,63853,),0,0,2
2:57.392,63861,(,0,0,0
2:57.425,63873,p,0,0,0
2:57.461,63886,),0,0,0
2:57.519,63907,(,0,0,1
2:57.556,63920,N,0,0,0
2:57.606,63938,),0,0,1
2:57.697,63971,(,0,0,2
2:57.800,64008,t,0,0,0
2:57.897,64043,),0,0,2
2:57.931,64055,(,0,0,0
2:57.964,64067,p,0,0,0
2:58.003,64081,),0,0,0
2:58.067,64104,(,0,0,1
2:58.103,64117,N,0,0,0
2:58.150,64134,),0,0,1
2:58.256,64172,(,0,0,2
2:58.367,64212,t,0,0,0
2:58.458,64245,),0,0,2
2:58.478,64252,(,0,0,0
2:58.506,64262,p,0,0,0
2:58.542,64275,),0,0,0
2:58.603,64297,(,0,0,1
2:58.636,64309,N,0,0,0
2:58.686,64327,),0,0,1
2:58.772,64358,(,0,0,2
2:58.875,64395,t,0,0,0
2:58.981,64433,),0,0,2
2:58.994,64438,(,0,0,0
2:59.022,64448,p,0,0,0
2:59.061,64462,),0,0,0
2:59.139,64490,(,0,0,1
2:59.172,64502,N,0,0,0
2:59.219,64519,),0,0,1
2:59.328,64558,(,0,0,2
2:59.433,64596,t,0,0,0
2:59.536,64633,),0,0,2
2:59.564,64643,(,0,0,0
2:59.600,64656,p,0,0,0
2:59.639,64670,),0,0,0
2:59.700,64692,(,0,0,1
2:59.736,64705,N,0,0,0
2:59.789,64724,),0,0,1
2:59.886,64759,(,0,0,2
3:00.000,64800,t,0,0,0
3:00.100,64836,),0,0,2
3:00.119,64843,(,0,0,0
3:00.153,64855,p,0,0,0
3:00.192,64869,),0,0,0
3:00.233,64884,(,0,0,1
3:00.292,64905,N,0,0,0
3:00.328,64918,),0,0,1
3:00.458,64965,(,0,0,2
3:00.556,65000,t,0,0,0
3:00.639,65030,),0,0,2
3:00.667,65040,(,0,0,0
3:00.700,65052,p,0,0,0
3:00.736,65065,),0,0,0
3:00.797,65087,(,0,0,1
3:00.833,65100,N,0,0,0
3:00.886,65119,),0,0,1
3:00.975,65151,(,0,0,2
3:01.083,65190,t,0,0,0
3:01.178,65224,),0,0,2
3:01.206,65234,(,0,0,0
3:01.239,65246,p,0,0,0
3:01.283,65262,),0,0,0
3:01.306,65270,(,0,0,1
3:01.372,65294,N,0,0,0
3:01.417,65310,),0,0,1
3:01.422,65312,(,0,0,2
3:01.517,65346,t,0,0,4
3:01.642,65391,t,0,0,4
3:01.711,65416,),0,0,2
3:01.739,65426,(,0,0,0
3:01.772,65438,p,0,0,0
3:01.808,65451,),0,0,0
3:01.869,65473,(,0,0,1
3:01.906,65486,N,0,0,0
3:01.956,65504,),0,0,1
3:02.042,65535,(,0,0,2
3:02.150,65574,t,0,0,0
3:02.256,65612,),0,0,2
3:02.283,65622,(,0,0,0
3:02.317,65634,p,0,0,0
3:02.358,65649,),0,0,0
3:02.378,65656,(,0,0,1
3:02.450,65682,N,0,0,0
3:02.494,65698,),0,0,1
3:02.544,65716,(,0,0,2
3:02.600,65736,t,0,0,4
3:02.733,65784,t,0,0,4
3:02.794,65806,),0,0,2
3:02.831,65819,(,0,0,0
3:02.869,65833,p,0,0,0
3:02.906,65846,),0,0,0
3:02.972,65870,(,0,0,1
3:03.008,65883,N,0,0,0
3:03.061,65902,),0,0,1
3:03.153,65935,(,0,0,2
3:03.264,65975,t,0,0,0
3:03.361,66010,),0,0,2
3:03.386,66019,(,0,0,0
3:03.419,66031,p,0,0,0
3:03.464,66047,),0,0,0
3:03.492,66057,(,0,0,1
3:03.564,66083,N,0,0,0
3:03.614,66101,),0,0,1
3:03.708,66135,(,0,0,2
3:03.817,66174,t,0,0,0
3:03.917,66210,),0,0,2
3:03.936,66217,(,0,0,0
3:03.969,66229,p,0,0,0
3:04.008,66243,),0,0,0
3:04.072,66266,(,0,0,1
3:04.106,66278,N,0,0,0
3:04.158,66297,),0,0,1
3:04.250,66330,(,0,0,2
3:04.358,66369,t,0,0,0
3:04.456,66404,),0,0,2
3:04.486,66415,(,0,0,0
3:04.519,66427,p,0,0,0
3:04.558,66441,),0,0,0
3:04.622,66464,(,0,0,1
3:04.658,66477,N,0,0,0
3:04.711,66496,),0,0,1
3:04.806,66530,(,0,0,2
3:04.908,66567,t,0,0,0
3:05.000,66600,),0,0,2
3:05.019,66607,(,0,0,0
3:05.050,66618,p,0,0,0
3:05.089,66632,),0,0,0
3:05.144,66652,(,0,0,1
3:05.181,66665,N,0,0,0
3:05.231,66683,),0,0,1
3:05.317,66714,(,0,0,2
3:05.422,66752,t,0,0,0
3:05.533,66792,),0,0,2
3:05.556,66800,(,0,0,0
3:05.586,66811,p,0,0,0
3:05.622,66824,),0,0,0
3:05.683,66846,(,0,0,1
3:05.719,66859,N,0,0,0
3:05.769,66877,),0,0,1
3:05.856,66908,(,0,0,2
3:05.956,66944,t,0,0,0
3:06.053,66979,),0,0,2
3:06.078,66988,(,0,0,0
3:06.111,67000,p,0,0,0
3:06.150,67014,),0,0,0
3:06.211,67036,(,0,0,1
3:06.247,67049,N,0,0,0
3:06.300,67068,),0,0,1
3:06.394,67102,(,0,0,2
3:06.500,67140,t,0,0,0
3:06.600,67176,),0,0,2
3:06.619,67183,(,0,0,0
3:06.647,67193,p,0,0,0
3:06.689,67208,),0,0,0
3:06.747,67229,(,0,0,1
3:06.783,67242,N,0,0,0
3:06.819,67255,),0,0,1
3:06.931,67295,(,0,0,2
3:07.033,67332,t,0,0,0
3:07.125,67365,),0,0,2
3:07.153,67375,(,0,0,0
3:07.186,67387,p,0,0,0
3:07.222,67400,),0,0,0
3:07.258,67413,(,0,0,1
3:07.325,67437,N,0,0,0
3:07.378,67456,),0,0,1
3:07.475,67491,(,0,0,2
3:07.583,67530,t,0,0,0
3:07.683,67566,),0,0,2
3:07.708,67575,(,0,0,0
3:07.742,67587,p,0,0,0
3:07.786,67603,),0,0,0
3:07.806,67610,(,0,0,1
3:07.872,67634,N,0,0,0
3:07.914,67649,),0,0,1
3:07.919,67651,(,0,0,2
3:08.017,67686,t,0,0,4
3:08.150,67734,t,0,0,4
3:08.214,67757,),0,0,2
3:08.250,67770,(,0,0,0
3:08.283,67782,p,0,0,0
3:08.322,67796,),0,0,0
3:08.386,67819,(,0,0,1
3:08.422,67832,N,0,0,0
3:08.472,67850,),0,0,1
3:08.567,67884,(,0,0,2
3:08.675,67923,t,0,0,0
3:08.778,67960,),0,0,2
3:08.803,67969,(,0,0,0
3:08.833,67980,p,0,0,0
3:08.872,67994,),0,0,0
3:08.889,68000,(,0,0,1
3:08.964,68027,N,0,0,0
3:09.008,68043,),0,0,1
3:09.014,68045,(,0,0,2
3:09.108,68079,t,0,0,4
3:09.242,68127,t,0,0,4
3:09.297,68147,),0,0,2
3:09.353,68167,(,0,0,0
3:09.389,68180,p,0,0,0
3:09.425,68193,),0,0,0
3:09.489,68216,(,0,0,1
3:09.525,68229,N,0,0,0
3:09.575,68247,),0,0,1
3:09.669,68281,(,0,0,2
3:09.778,68320,t,0,0,0
3:09.867,68352,),0,0,2
3:09.892,68361,(,0,0,0
3:09.922,68372,p,0,0,0
3:09.964,68387,),0,0,0
3:10.019,68407,(,0,0,1
3:10.058,68421,N,0,0,0
3:10.094,68434,),0,0,1
3:10.217,68478,(,0,0,2
3:10.322,68516,t,0,0,0
3:10.406,68546,),0,0,2
3:10.425,68553,(,0,0,0
3:10.458,68565,p,0,0,0
3:10.494,68578,),0,0,0
3:10.533,68592,(,0,0,1
3:10.592,68613,N,0,0,0
3:10.642,68631,),0,0,1
3:10.736,68665,(,0,0,2
3:10.842,68703,t,0,0,0
3:10.953,68743,),0,0,2
3:10.981,68753,(,0,0,0
3:11.014,68765,p,0,0,0
3:11.050,68778,),0,0,0
3:11.100,68796,(,0,0,1
3:11.150,68814,N,0,0,0
3:11.192,68829,),0,0,1
3:11.197,68831,(,0,0,2
3:11.292,68865,t,0,0,4
3:11.431,68915,t,0,0,4
3:11.514,68945,),0,0,2
3:11.539,68954,(,0,0,0
3:11.572,68966,p,0,0,0
3:11.614,68981,),0,0,0
3:11.681,69005,(,0,0,1
3:11.719,69019,N,0,0,0
3:11.769,69037,),0,0,1
3:11.881,69077,(,0,0,2
3:11.983,69114,t,0,0,0
3:12.075,69147,),0,0,2
3:12.094,69154,(,0,0,0
3:12.122,69164,p,0,0,0
3:12.161,69178,),0,0,0
3:12.225,69201,(,0,0,1
3:12.261,69214,N,0,0,0
3:12.308,69231,),0,0,1
3:12.414,69269,(,0,0,2
3:12.517,69306,t,0,0,0
3:12.611,69340,),0,0,2
3:12.633,69348,(,0,0,0
3:12.667,69360,p,0,0,0
3:12.703,69373,),0,0,0
3:12.769,69397,(,0,0,1
3:12.806,69410,N,0,0,0
3:12.856,69428,),0,0,1
3:12.950,69462,(,0,0,2
3:13.058,69501,t,0,0,0
3:13.156,69536,),0,0,2
3:13.175,69543,(,0,0,0
3:13.208,69555,p,0,0,0
3:13.244,69568,),0,0,0
3:13.300,69588,(,0,0,1
3:13.339,69602,N,0,0,0
3:13.378,69616,),0,0,1
3:13.489,69656,(,0,0,2
3:13.594,69694,t,0,0,0
3:13.689,69728,),0,0,2
3:13.722,69740,(,0,0,0
3:13.761,69754,p,0,0,0
3:13.794,69766,),0,0,0
3:13.861,69790,(,0,0,1
3:13.897,69803,N,0,0,0
3:13.947,69821,),0,0,1
3:14.042,69855,(,0,0,2
3:14.147,69893,t,0,0,0
3:14.231,69923,),0,0,2
3:14.261,69934,(,0,0,0
3:14.294,69946,p,0,0,0
3:14.333,69960,),0,0,0
3:14.400,69984,(,0,0,1
3:14.439,69998,N,0,0,0
3:14.486,70015,),0,0,1
3:14.589,70052,(,0,0,2
3:14.697,70091,t,0,0,0
3:14.797,70127,),0,0,2
3:14.817,70134,(,0,0,0
3:14.847,70145,p,0,0,0
3:14.886,70159,),0,0,0
3:14.944,70180,(,0,0,1
3:14.981,70193,N,0,0,0
3:15.031,70211,),0,0,1
3:15.103,70237,(,0,0,2
3:15.214,70277,t,0,0,0
3:15.325,70317,),0,0,2
3:15.353,70327,(,0,0,0
3:15.383,70338,p,0,0,0
3:15.419,70351,),0,0,0
3:15.483,70374,(,0,0,1
3:15.519,70387,N,0,0,0
3:15.572,70406,),0,0,1
3:15.658,70437,(,0,0,2
3:15.778,70480,t,0,0,0
3:15.881,70517,),0,0,2
3:15.911,70528,(,0,0,0
3:15.944,70540,p,0,0,0
3:15.981,70553,),0,0,0
3:16.047,70577,(,0,0,1
3:16.081,70589,N,0,0,0
3:16.131,70607,),0,0,1
3:16.222,70640,(,0,0,2
3:16.333,70680,t,0,0,0
3:16.431,70715,),0,0,2
3:16.456,70724,(,0,0,0
3:16.486,70735,p,0,0,0
3:16.525,70749,),0,0,0
3:16.586,70771,(,0,0,1
3:16.628,70786,N,0,0,0
3:16.664,70799,),0,0,1
3:16.783,70842,(,0,0,2
3:16.889,70880,t,0,0,0
3:16.986,70915,),0,0,2
3:17.011,70924,(,0,0,0
3:17.047,70937,p,0,0,0
3:17.083,70950,),0,0,0
3:17.144,70972,(,0,0,1
3:17.178,70984,N,0,0,0
3:17.228,71002,),0,0,1
3:17.319,71035,(,0,0,2
3:17.422,71072,t,0,0,0
3:17.519,71107,),0,0,2
3:17.544,71116,(,0,0,0
3:17.578,71128,p,0,0,0
3:17.622,71144,),0,0,0
3:17.647,71153,(,0,0,1
3:17.714,71177,N,0,0,0
3:17.756,71192,),0,0,1
3:17.761,71194,(,0,0,2
3:17.856,71228,t,0,0,4
3:17.986,71275,t,0,0,4
3:18.058,71301,),0,0,2
3:18.083,71310,(,0,0,0
3:18.119,71323,p,0,0,0
3:18.156,71336,),0,0,0
3:18.211,71356,(,0,0,1
3:18.250,71370,N,0,0,0
3:18.300,71388,),0,0,1
3:18.386,71419,(,0,0,2
3:18.494,71458,t,0,0,0
3:18.600,71496,),0,0,2
3:18.664,71519,(,0,0,1
3:18.756,71552,N,0,0,0
3:18.828,71578,),0,0,1
3:18.869,71593,(,0,0,2
3:18.917,71610,t,0,0,4
3:19.050,71658,t,0,0,4
3:19.106,71678,),0,0,2
3:19.167,71700,(,0,0,0
3:19.203,71713,p,0,0,0
3:19.242,71727,),0,0,0
3:19.306,71750,(,0,0,1
3:19.342,71763,N,0,0,0
3:19.394,71782,),0,0,1
3:19.489,71816,(,0,0,2
3:19.603,71857,t,0,0,0
3:19.700,71892,),0,0,2
3:19.728,71902,(,0,0,0
3:19.758,71913,p,0,0,0
3:19.797,71927,),0,0,0
3:19.842,71943,(,0,0,1
3:19.900,71964,N,0,0,0
3:19.939,71978,),0,0,1
3:20.072,72026,(,0,0,2
3:20.172,72062,t,0,0,0
3:20.247,72089,),0,0,2
3:20.275,72099,(,0,0,0
3:20.311,72112,p,0,0,0
3:20.347,72125,),0,0,0
3:20.406,72146,(,0,0,1
3:20.444,72160,N,0,0,0
3:20.494,72178,),0,0,1
3:20.581,72209,(,0,0,2
3:20.689,72248,t,0,0,0
3:20.794,72286,),0,0,2
3:20.828,72298,(,0,0,0
3:20.861,72310,p,0,0,0
3:20.897,72323,),0,0,0
3:20.967,72348,(,0,0,1
3:21.003,72361,N,0,0,0
3:21.042,72375,),0,0,1
3:21.167,72420,(,0,0,2
3:21.267,72456,t,0,0,0
3:21.353,72487,),0,0,2
3:21.375,72495,(,0,0,0
3:21.408,72507,p,0,0,0
3:21.444,72520,),0,0,0
3:21.503,72541,(,0,0,1
3:21.539,72554,N,0,0,0
3:21.586,72571,),0,0,1
3:21.678,72604,(,0,0,2
3:21.781,72641,t,0,0,0
3:21.878,72676,),0,0,2
3:21.900,72684,(,0,0,0
3:21.933,72696,p,0,0,0
3:21.975,72711,),0,0,0
3:22.033,72732,(,0,0,1
3:22.075,72747,N,0,0,0
3:22.114,72761,),0,0,1
3:22.231,72803,(,0,0,2
3:22.328,72838,t,0,0,0
3:22.414,72869,),0,0,2
3:22.444,72880,(,0,0,0
3:22.478,72892,p,0,0,0
3:22.514,72905,),0,0,0
3:22.575,72927,(,0,0,1
3:22.614,72941,N,0,0,0
3:22.667,72960,),0,0,1
3:22.758,72993,(,0,0,2
3:22.867,73032,t,0,0,0
3:22.964,73067,),0,0,2
3:22.997,73079,(,0,0,0
3:23.031,73091,p,0,0,0
3:23.069,73105,),0,0,0
3:23.114,73121,(,0,0,1
3:23.167,73140,N,0,0,0
3:23.206,73154,),0,0,1
3:23.325,73197,(,0,0,2
3:23.431,73235,t,0,0,0
3:23.506,73262,),0,0,2
3:23.528,73270,(,0,0,0
3:23.564,73283,p,0,0,0
3:23.603,73297,),0,0,0
3:23.639,73310,(,0,0,1
3:23.706,73334,N,0,0,0
3:23.906,73406,),0,0,1
3:23.911,73408,(,0,0,2
3:23.964,73427,t,0,0,0
3:24.072,73466,),0,0,2
3:24.094,73474,(,0,0,0
3:24.128,73486,p,0,0,0
3:24.167,73500,),0,0,0
3:24.192,73509,(,0,0,1
3:24.264,73535,N,0,0,0
3:24.319,73555,),0,0,1
3:24.425,73593,(,0,0,2
3:24.531,73631,t,0,0,0
3:24.611,73660,),0,0,2
3:24.642,73671,(,0,0,0
3:24.681,73685,p,0,0,0
3:24.722,73700,),0,0,0
3:24.761,73714,(,0,0,1
3:24.819,73735,N,0,0,0
3:24.875,73755,),0,0,1
3:24.964,73787,(,0,0,2
3:25.083,73830,t,0,0,0
3:25.178,73864,),0,0,2
3:25.211,73876,(,0,0,0
3:25.247,73889,p,0,0,0
3:25.294,73906,),0,0,0
3:25.317,73914,(,0,0,1
3:25.381,73937,N,0,0,0
3:25.425,73953,),0,0,1
3:25.431,73955,(,0,0,2
3:25.519,73987,t,0,0,4
3:25.650,74034,t,0,0,4
3:25.722,74060,),0,0,2
3:25.750,74070,(,0,0,0
3:25.783,74082,p,0,0,0
3:25.819,74095,),0,0,0
3:25.867,74112,(,0,0,1
3:25.917,74130,N,0,0,0
3:25.950,74142,),0,0,1
3:26.067,74184,(,0,0,2
3:26.178,74224,t,0,0,0
3:26.278,74260,),0,0,2
3:26.300,74268,(,0,0,0
3:26.331,74279,p,0,0,0
3:26.369,74293,),0,0,0
3:26.406,74306,(,0,0,1
3:26.469,74329,N,0,0,0
3:26.506,74342,),0,0,1
3:26.622,74384,(,0,0,2
3:26.722,74420,t,0,0,0
3:26.811,74452,),0,0,2
3:26.842,74463,(,0,0,0
3:26.878,74476,p,0,0,0
3:26.914,74489,),0,0,0
3:26.964,74507,(,0,0,1
3:27.014,74525,N,0,0,0
3:27.047,74537,),0,0,1
3:27.153,74575,(,0,0,2
3:27.267,74616,t,0,0,0
3:27.356,74648,),0,0,2
3:27.383,74658,(,0,0,0
3:27.417,74670,p,0,0,0
3:27.458,74685,),0,0,0
3:27.503,74701,(,0,0,1
3:27.556,74720,N,0,0,0
3:27.592,74733,),0,0,1
3:27.706,74774,(,0,0,2
3:27.822,74816,t,0,0,0
3:27.919,74851,),0,0,2
3:27.939,74858,(,0,0,0
3:27.975,74871,p,0,0,0
3:28.017,74886,),0,0,0
3:28.069,74905,(,0,0,1
3:28.117,74922,N,0,0,0
3:28.167,74940,),0,0,1
3:28.269,74977,(,0,0,2
3:28.378,75016,t,0,0,0
3:28.483,75054,),0,0,2
3:28.503,75061,(,0,0,0
3:28.533,75072,p,0,0,0
3:28.572,75086,),0,0,0
3:28.606,75098,(,0,0,1
3:28.669,75121,N,0,0,0
3:28.708,75135,),0,0,1
3:28.822,75176,(,0,0,2
3:28.925,75213,t,0,0,0
3:29.017,75246,),0,0,2
3:29.050,75258,(,0,0,0
3:29.089,75272,p,0,0,0
3:29.128,75286,),0,0,0
3:29.169,75301,(,0,0,1
3:29.225,75321,N,0,0,0
3:29.278,75340,),0,0,1
3:29.369,75373,(,0,0,2
3:29.475,75411,t,0,0,0
3:29.558,75441,),0,0,2
3:29.583,75450,(,0,0,0
3:29.619,75463,p,0,0,0
3:29.658,75477,),0,0,0
3:29.703,75493,(,0,0,1
3:29.753,75511,N,0,0,0
3:29.792,75525,),0,0,1
3:29.906,75566,(,0,0,2
3:30.011,75604,t,0,0,0
3:30.086,75631,),0,0,2
3:30.111,75640,(,0,0,0
3:30.144,75652,p,0,0,0
3:30.183,75666,),0,0,0
3:30.211,75676,(,0,0,1
3:30.283,75702,N,0,0,0
3:30.333,75720,),0,0,1
3:30.417,75750,(,0,0,2
3:30.528,75790,t,0,0,0
3:30.631,75827,),0,0,2
3:30.661,75838,(,0,0,0
3:30.697,75851,p,0,0,0
3:30.725,75861,),0,0,0
3:30.736,75865,(,0,0,1
3:30.803,75889,N,0,0,0
3:30.872,75914,),0,0,1
3:30.878,75916,(,0,0,2
3:30.964,75947,t,0,0,4
3:31.103,75997,t,0,0,4
3:31.161,76018,),0,0,2
3:31.203,76033,(,0,0,0
3:31.247,76049,p,0,0,0
3:31.286,76063,),0,0,0
3:31.339,76082,(,0,0,1
3:31.386,76099,N,0,0,0
3:31.436,76117,),0,0,1
3:31.525,76149,(,0,0,2
3:31.628,76186,t,0,0,0
3:31.719,76219,),0,0,2
3:31.744,76228,(,0,0,0
3:31.778,76240,p,0,0,0
3:31.819,76255,),0,0,0
3:31.872,76274,(,0,0,1
3:31.917,76290,N,0,0,0
3:31.964,76307,),0,0,1
3:32.053,76339,(,0,0,2
3:32.167,76380,t,0,0,0
3:32.269,76417,),0,0,2
3:32.297,76427,(,0,0,0
3:32.331,76439,p,0,0,0
3:32.369,76453,),0,0,0
3:32.406,76466,(,0,0,1
3:32.464,76487,N,0,0,0
3:32.503,76501,),0,0,1
3:32.600,76536,(,0,0,2
3:32.714,76577,t,0,0,0
3:32.811,76612,),0,0,2
3:32.839,76622,(,0,0,0
3:32.875,76635,p,0,0,0
3:32.917,76650,),0,0,0
3:32.964,76667,(,0,0,1
3:33.014,76685,N,0,0,0
3:33.053,76699,),0,0,1
3:33.161,76738,(,0,0,2
3:33.275,76779,t,0,0,0
3:33.372,76814,),0,0,2
3:33.397,76823,(,0,0,0
3:33.431,76835,p,0,0,0
3:33.469,76849,),0,0,0
3:33.522,76868,(,0,0,1
3:33.564,76883,N,0,0,0
3:33.614,76901,),0,0,1
3:33.700,76932,(,0,0,2
3:33.803,76969,t,0,0,0
3:33.906,77006,),0,0,2
3:33.931,77015,(,0,0,0
3:33.961,77026,p,0,0,0
3:33.997,77039,),0,0,0
3:34.056,77060,(,0,0,1
3:34.094,77074,N,0,0,0
3:34.147,77093,),0,0,1
3:34.236,77125,(,0,0,2
3:34.347,77165,t,0,0,0
3:34.453,77203,),0,0,2
3:34.483,77214,(,0,0,0
3:34.517,77226,p,0,0,0
3:34.553,77239,),0,0,0
3:34.611,77260,(,0,0,1
3:34.647,77273,N,0,0,0
3:34.694,77290,),0,0,1
3:34.792,77325,(,0,0,2
3:34.889,77360,t,0,0,0
3:34.983,77394,),0,0,2
3:35.006,77402,(,0,0,0
3:35.039,77414,p,0,0,0
3:35.075,77427,),0,0,0
3:35.139,77450,(,0,0,1
3:35.172,77462,N,0,0,0
3:35.219,77479,),0,0,1
3:35.328,77518,(,0,0,2
3:35.431,77555,t,0,0,0
3:35.531,77591,),0,0,2
3:35.553,77599,(,0,0,0
3:35.586,77611,p,0,0,0
3:35.622,77624,),0,0,0
3:35.683,77646,(,0,0,1
3:35.722,77660,N,0,0,0
3:35.775,77679,),0,0,1
3:35.825,77697,t,0,0,2
3:35.972,77750,),0,0,2
3:36.008,77763,(,0,0,0
3:36.103,77797,p,0,0,0
3:36.147,77813,),0,0,0
3:36.164,77819,(,0,0,1
3:36.264,77855,N,0,0,0
3:36.336,77881,),0,0,1
3:36.372,77894,(,0,0,2
3:36.436,77917,t,0,0,4
3:36.572,77966,t,0,0,4
3:36.628,77986,),0,0,2
3:36.672,78002,(,0,0,0
3:36.708,78015,p,0,0,0
3:36.744,78028,),0,0,0
3:36.806,78050,(,0,0,1
3:36.842,78063,N,0,0,0
3:36.889,78080,),0,0,1
3:36.983,78114,(,0,0,2
3:37.092,78153,t,0,0,0
3:37.189,78188,),0,0,2
3:37.208,78195,(,0,0,0
3:37.242,78207,p,0,0,0
3:37.281,78221,),0,0,0
3:37.306,78230,(,0,0,1
3:37.381,78257,N,0,0,0
3:37.422,78272,),0,0,1
3:37.428,78274,(,0,0,2
3:37.525,78309,t,0,0,4
3:37.653,78355,t,0,0,4
3:37.719,78379,),0,0,2
3:37.761,78394,(,0,0,0
3:37.797,78407,p,0,0,0
3:37.833,78420,),0,0,0
3:37.897,78443,(,0,0,1
3:37.931,78455,N,0,0,0
3:37.986,78475,),0,0,1
3:38.067,78504,(,0,0,2
3:38.178,78544,t,0,0,0
3:38.272,78578,),0,0,2
3:38.306,78590,(,0,0,0
3:38.339,78602,p,0,0,0
3:38.381,78617,),0,0,0
3:38.431,78635,(,0,0,1
3:38.481,78653,N,0,0,0
3:38.519,78667,),0,0,1
3:38.639,78710,(,0,0,2
3:38.747,78749,t,0,0,0
3:38.825,78777,),0,0,2
3:38.844,78784,(,0,0,0
3:38.875,78795,p,0,0,0
3:38.911,78808,),0,0,0
3:38.975,78831,(,0,0,1
3:39.011,78844,N,0,0,0
3:39.061,78862,),0,0,1
3:39.144,78892,(,0,0,2
3:39.256,78932,t,0,0,0
3:39.364,78971,),0,0,2
3:39.389,78980,(,0,0,0
3:39.422,78992,p,0,0,0
3:39.458,79005,),0,0,0
3:39.525,79029,(,0,0,1
3:39.561,79042,N,0,0,0
3:39.600,79056,),0,0,1
3:39.714,79097,(,0,0,2
3:39.814,79133,t,0,0,0
3:39.906,79166,),0,0,2
3:39.933,79176,(,0,0,0
3:39.969,79189,p,0,0,0
3:40.006,79202,),0,0,0
3:40.069,79225,(,0,0,1
3:40.103,79237,N,0,0,0
3:40.153,79255,),0,0,1
3:40.244,79288,(,0,0,2
3:40.358,79329,t,0,0,0
3:40.453,79363,),0,0,2
3:40.478,79372,(,0,0,0
3:40.511,79384,p,0,0,0
3:40.550,79398,),0,0,0
3:40.614,79421,(,0,0,1
3:40.653,79435,N,0,0,0
3:40.703,79453,),0,0,1
3:40.797,79487,(,0,0,2
3:40.906,79526,t,0,0,0
3:41.006,79562,),0,0,2
3:41.025,79569,(,0,0,0
3:41.058,79581,p,0,0,0
3:41.097,79595,),0,0,0
3:41.161,79618,(,0,0,1
3:41.197,79631,N,0,0,0
3:41.244,79648,),0,0,1
3:41.336,79681,(,0,0,2
3:41.447,79721,t,0,0,0
3:41.556,79760,),0,0,2
3:41.581,79769,(,0,0,0
3:41.611,79780,p,0,0,0
3:41.647,79793,),0,0,0
3:41.714,79817,(,0,0,1
3:41.747,79829,N,0,0,0
3:41.781,79841,),0,0,1
3:41.889,79880,(,0,0,2
3:41.992,79917,t,0,0,0
3:42.089,79952,),0,0,2
3:42.114,79961,(,0,0,0
3:42.147,79973,p,0,0,0
3:42.186,79987,),0,0,0
3:42.244,80008,(,0,0,1
3:42.281,80021,N,0,0,0
3:42.333,80040,),0,0,1
3:42.425,80073,(,0,0,2
3:42.539,80114,t,0,0,0
3:42.636,80149,),0,0,2
3:42.658,80157,(,0,0,0
3:42.689,80168,p,0,0,0
3:42.731,80183,),0,0,0
3:42.783,80202,(,0,0,1
3:42.825,80217,N,0,0,0
3:42.861,80230,),0,0,1
3:42.975,80271,(,0,0,2
3:43.078,80308,t,0,0,0
3:43.164,80339,),0,0,2
3:43.189,80348,(,0,0,0
3:43.225,80361,p,0,0,0
3:43.261,80374,),0,0,0
3:43.319,80395,(,0,0,1
3:43.358,80409,N,0,0,0
3:43.408,80427,),0,0,1
3:43.500,80460,(,0,0,2
3:43.608,80499,t,0,0,0
3:43.711,80536,),0,0,2
3:43.733,80544,(,0,0,0
3:43.764,80555,p,0,0,0
3:43.806,80570,),0,0,0
3:43.867,80592,(,0,0,1
3:43.903,80605,N,0,0,0
3:43.942,80619,),0,0,1
3:44.064,80663,(,0,0,2
3:44.169,80701,t,0,0,0
3:44.256,80732,),0,0,2
3:44.275,80739,(,0,0,0
3:44.308,80751,p,0,0,0
3:44.344,80764,),0,0,0
3:44.411,80788,(,0,0,1
3:44.447,80801,N,0,0,0
3:44.500,80820,),0,0,1
3:44.589,80852,(,0,0,2
3:44.706,80894,t,0,0,0
3:44.817,80934,),0,0,2
3:44.842,80943,(,0,0,0
3:44.875,80955,p,0,0,0
3:44.919,80971,),0,0,0
3:44.947,80981,(,0,0,1
3:45.008,81003,N,0,0,0
3:45.047,81017,),0,0,1
3:45.053,81019,(,0,0,2
3:45.153,81055,t,0,0,4
3:45.286,81103,t,0,0,4
3:45.356,81128,),0,0,2
3:45.422,81152,(,0,0,1
3:45.561,81202,N,0,0,0
3:45.589,81212,),0,0,1
3:45.658,81237,(,0,0,2
3:45.767,81276,t,0,0,0
3:45.883,81318,),0,0,2
3:45.925,81333,(,0,0,0
3:45.956,81344,p,0,0,0
3:45.994,81358,),0,0,0
3:46.053,81379,(,0,0,1
3:46.092,81393,N,0,0,0
3:46.136,81409,),0,0,1
3:46.239,81446,(,0,0,2
3:46.356,81488,t,0,0,0
3:46.431,81515,),0,0,2
3:46.453,81523,(,0,0,0
3:46.483,81534,p,0,0,0
3:46.522,81548,),0,0,0
3:46.583,81570,(,0,0,1
3:46.622,81584,N,0,0,0
3:46.669,81601,),0,0,1
3:46.772,81638,(,0,0,2
3:46.883,81678,t,0,0,0
3:46.975,81711,),0,0,2
3:46.997,81719,(,0,0,0
3:47.028,81730,p,0,0,0
3:47.067,81744,),0,0,0
3:47.128,81766,(,0,0,1
3:47.167,81780,N,0,0,0
3:47.211,81796,),0,0,1
3:47.319,81835,(,0,0,2
3:47.436,81877,t,0,0,0
3:47.522,81908,),0,0,2
3:47.547,81917,(,0,0,0
3:47.581,81929,p,0,0,0
3:47.622,81944,),0,0,0
3:47.686,81967,(,0,0,1
3:47.722,81980,N,0,0,0
3:47.778,82000,),0,0,1
3:47.858,82029,(,0,0,2
3:47.969,82069,t,0,0,0
3:48.078,82108,),0,0,2
3:48.108,82119,(,0,0,0
3:48.142,82131,p,0,0,0
3:48.178,82144,),0,0,0
3:48.214,82157,(,0,0,1
3:48.272,82178,N,0,0,0
3:48.311,82192,),0,0,1
3:48.439,82238,(,0,0,2
3:48.544,82276,t,0,0,0
3:48.628,82306,),0,0,2
3:48.658,82317,(,0,0,0
3:48.697,82331,p,0,0,0
3:48.736,82345,),0,0,0
3:48.800,82368,(,0,0,1
3:48.836,82381,N,0,0,0
3:48.889,82400,),0,0,1
3:48.983,82434,(,0,0,2
3:49.092,82473,t,0,0,0
3:49.181,82505,),0,0,2
3:49.206,82514,(,0,0,0
3:49.239,82526,p,0,0,0
3:49.281,82541,),0,0,0
3:49.333,82560,(,0,0,1
3:49.381,82577,N,0,0,0
3:49.422,82592,),0,0,1
3:49.536,82633,(,0,0,2
3:49.650,82674,t,0,0,0
3:49.736,82705,),0,0,2
3:49.767,82716,(,0,0,0
3:49.803,82729,p,0,0,0
3:49.839,82742,),0,0,0
3:49.897,82763,(,0,0,1
3:49.939,82778,N,0,0,0
3:49.992,82797,),0,0,1
3:50.075,82827,(,0,0,2
3:50.189,82868,t,0,0,0
3:50.286,82903,),0,0,2
3:50.314,82913,(,0,0,0
3:50.347,82925,p,0,0,0
3:50.389,82940,),0,0,0
3:50.436,82957,(,0,0,1
3:50.486,82975,N,0,0,0
3:50.522,82988,),0,0,1
3:50.653,83035,(,0,0,2
3:50.761,83074,t,0,0,0
3:50.833,83100,),0,0,2
3:50.856,83108,(,0,0,0
3:50.892,83121,p,0,0,0
3:50.928,83134,),0,0,0
3:50.989,83156,(,0,0,1
3:51.028,83170,N,0,0,0
3:51.072,83186,),0,0,1
3:51.156,83216,(,0,0,2
3:51.264,83255,t,0,0,0
3:51.367,83292,),0,0,2
3:51.389,83300,(,0,0,0
3:51.419,83311,p,0,0,0
3:51.458,83325,),0,0,0
3:51.503,83341,(,0,0,1
3:51.550,83358,N,0,0,0
3:51.589,83372,),0,0,1
3:51.717,83418,(,0,0,2
3:51.819,83455,t,0,0,0
3:51.900,83484,),0,0,2
3:51.936,83497,(,0,0,0
3:51.972,83510,p,0,0,0
3:52.008,83523,),0,0,0
3:52.072,83546,(,0,0,1
3:52.106,83558,N,0,0,0
3:52.158,83577,),0,0,1
3:52.253,83611,(,0,0,2
3:52.361,83650,t,0,0,0
3:52.453,83683,),0,0,2
3:52.483,83694,(,0,0,0
3:52.517,83706,p,0,0,0
3:52.558,83721,),0,0,0
3:52.619,83743,(,0,0,1
3:52.658,83757,N,0,0,0
3:52.711,83776,),0,0,1
3:52.811,83812,(,0,0,2
3:52.925,83853,t,0,0,0
3:53.025,83889,),0,0,2
3:53.044,83896,(,0,0,0
3:53.078,83908,p,0,0,0
3:53.117,83922,),0,0,0
3:53.175,83943,(,0,0,1
3:53.211,83956,N,0,0,0
3:53.261,83974,),0,0,1
3:53.350,84006,(,0,0,2
3:53.456,84044,t,0,0,0
3:53.558,84081,),0,0,2
3:53.583,84090,(,0,0,0
3:53.614,84101,p,0,0,0
3:53.653,84115,),0,0,0
3:53.714,84137,(,0,0,1
3:53.753,84151,N,0,0,0
3:53.789,84164,),0,0,1
3:53.911,84208,(,0,0,2
3:54.011,84244,t,0,0,0
3:54.111,84280,),0,0,2
3:54.133,84288,(,0,0,0
3:54.167,84300,p,0,0,0
3:54.206,84314,),0,0,0
3:54.267,84336,(,0,0,1
3:54.306,84350,N,0,0,0
3:54.353,84367,),0,0,1
3:54.444,84400,(,0,0,2
3:54.547,84437,t,0,0,0
3:54.639,84470,),0,0,2
3:54.661,84478,(,0,0,0
3:54.692,84489,p,0,0,0
3:54.731,84503,),0,0,0
3:54.769,84517,(,0,0,1
3:54.828,84538,N,0,0,0
3:54.867,84552,),0,0,1
3:54.994,84598,(,0,0,2
3:55.097,84635,t,0,0,0
3:55.169,84661,),0,0,2
3:55.197,84671,(,0,0,0
3:55.236,84685,p,0,0,0
3:55.272,84698,),0,0,0
3:55.333,84720,(,0,0,1
3:55.369,84733,N,0,0,0
3:55.419,84751,),0,0,1
3:55.508,84783,(,0,0,2
3:55.617,84822,t,0,0,0
3:55.719,84859,),0,0,2
3:55.750,84870,(,0,0,0
3:55.783,84882,p,0,0,0
3:55.822,84896,),0,0,0
3:55.864,84911,(,0,0,1
3:55.922,84932,N,0,0,0
3:55.961,84946,),0,0,1
3:56.089,84992,(,0,0,2
3:56.186,85027,t,0,0,0
3:56.258,85053,),0,0,2
3:56.283,85062,(,0,0,0
3:56.317,85074,p,0,0,0
3:56.353,85087,),0,0,0
3:56.414,85109,(,0,0,1
3:56.450,85122,N,0,0,0
3:56.500,85140,),0,0,1
3:56.583,85170,(,0,0,2
3:56.694,85210,t,0,0,0
3:56.806,85250,),0,0,2
3:56.833,85260,(,0,0,0
3:56.867,85272,p,0,0,0
3:56.908,85287,),0,0,0
3:56.942,85299,(,0,0,1
3:57.008,85323,N,0,0,0
3:57.050,85338,),0,0,1
3:57.056,85340,(,0,0,2
3:57.153,85375,t,0,0,4
3:57.283,85422,t,0,0,4
3:57.356,85448,),0,0,2
3:57.389,85460,(,0,0,0
3:57.428,85474,p,0,0,0
3:57.464,85487,),0,0,0
3:57.528,85510,(,0,0,1
3:57.564,85523,N,0,0,0
3:57.614,85541,),0,0,1
3:57.711,85576,(,0,0,2
3:57.819,85615,t,0,0,0
3:57.917,85650,),0,0,2
3:57.942,85659,(,0,0,0
3:57.975,85671,p,0,0,0
3:58.017,85686,),0,0,0
3:58.078,85708,(,0,0,1
3:58.114,85721,N,0,0,0
3:58.164,85739,),0,0,1
3:58.250,85770,(,0,0,2
3:58.356,85808,t,0,0,0
3:58.461,85846,),0,0,2
3:58.483,85854,(,0,0,0
3:58.517,85866,p,0,0,0
3:58.550,85878,),0,0,0
3:58.611,85900,(,0,0,1
3:58.647,85913,N,0,0,0
3:58.700,85932,),0,0,1
3:58.786,85963,(,0,0,2
3:58.894,86002,t,0,0,0
3:59.000,86040,),0,0,2
3:59.031,86051,(,0,0,0
3:59.067,86064,p,0,0,0
3:59.103,86077,),0,0,0
3:59.164,86099,(,0,0,1
3:59.200,86112,N,0,0,0
3:59.247,86129,),0,0,1
3:59.342,86163,(,0,0,2
3:59.447,86201,t,0,0,0
3:59.544,86236,),0,0,2
3:59.567,86244,(,0,0,0
3:59.597,86255,p,0,0,0
3:59.636,86269,),0,0,0
3:59.697,86291,(,0,0,1
3:59.736,86305,N,0,0,0
3:59.786,86323,),0,0,1
3:59.872,86354,(,0,0,2
3:59.983,86394,t,0,0,0
4:00.092,86433,),0,0,2
4:00.117,86442,(,0,0,0
4:00.150,86454,p,0,0,0
4:00.186,86467,),0,0,0
4:00.247,86489,(,0,0,1
4:00.283,86502,N,0,0,0
4:00.336,86521,),0,0,1
4:00.425,86553,(,0,0,2
4:00.539,86594,t,0,0,0
4:00.644,86632,),0,0,2
4:00.678,86644,(,0,0,0
4:00.711,86656,p,0,0,0
4:00.750,86670,),0,0,0
4:00.814,86693,(,0,0,1
4:00.850,86706,N,0,0,0
4:00.903,86725,),0,0,1
4:01.000,86760,(,0,0,2
4:01.114,86801,t,0,0,0
4:01.214,86837,),0,0,2
4:01.233,86844,(,0,0,0
4:01.264,86855,p,0,0,0
4:01.303,86869,),0,0,0
4:01.367,86892,(,0,0,1
4:01.406,86906,N,0,0,0
4:01.453,86923,),0,0,1
4:01.544,86956,(,0,0,2
4:01.658,86997,t,0,0,0
4:01.753,87031,),0,0,2
4:01.772,87038,(,0,0,0
4:01.806,87050,p,0,0,0
4:01.842,87063,),0,0,0
4:01.908,87087,(,0,0,1
4:01.944,87100,N,0,0,0
4:02.000,87120,),0,0,1
4:02.092,87153,(,0,0,2
4:02.203,87193,t,0,0,0
4:02.306,87230,),0,0,2
4:02.378,87256,(,0,0,1
4:02.478,87292,N,0,0,0
4:02.542,87315,),0,0,1
4:02.575,87327,(,0,0,2
4:02.633,87348,t,0,0,1
4:02.744,87388,),0,0,2
4:02.831,87419,(,0,0,1
4:02.892,87441,N,0,0,0
4:02.939,87458,),0,0,1
4:03.033,87492,(,0,0,2
4:03.125,87525,t,0,0,0
4:03.236,87565,),0,0,2
4:03.369,87613,(,0,0,0
4:03.406,87626,p,0,0,0
4:03.442,87639,),0,0,0
4:03.500,87660,(,0,0,1
4:03.539,87674,N,0,0,0
4:03.583,87690,),0,0,1
4:03.689,87728,(,0,0,2
4:03.814,87773,t,0,0,0
4:03.900,87804,),0,0,2
4:03.942,87819,(,0,0,0
4:03.978,87832,p,0,0,0
4:04.017,87846,),0,0,0
4:04.083,87870,(,0,0,1
4:04.119,87883,N,0,0,0
4:04.169,87901,),0,0,1
4:04.258,87933,(,0,0,2
4:04.367,87972,t,0,0,0
4:04.461,88006,),0,0,2
4:04.492,88017,(,0,0,0
4:04.525,88029,p,0,0,0
4:04.561,88042,),0,0,0
4:04.622,88064,(,0,0,1
4:04.658,88077,N,0,0,0
4:04.711,88096,),0,0,1
4:04.806,88130,(,0,0,2
4:04.911,88168,t,0,0,0
4:05.006,88202,),0,0,2
4:05.031,88211,(,0,0,0
4:05.064,88223,p,0,0,0
4:05.106,88238,),0,0,0
4:05.167,88260,(,0,0,1
4:05.206,88274,N,0,0,0
4:05.253,88291,),0,0,1
4:05.353,88327,(,0,0,2
4:05.453,88363,t,0,0,0
4:05.550,88398,),0,0,2
4:05.572,88406,(,0,0,0
4:05.606,88418,p,0,0,0
4:05.642,88431,),0,0,0
4:05.703,88453,(,0,0,1
4:05.742,88467,N,0,0,0
4:05.789,88484,),0,0,1
4:05.875,88515,(,0,0,2
4:05.992,88557,t,0,0,0
4:06.103,88597,),0,0,2
4:06.125,88605,(,0,0,0
4:06.161,88618,p,0,0,0
4:06.197,88631,),0,0,0
4:06.261,88654,(,0,0,1
4:06.297,88667,N,0,0,0
4:06.347,88685,),0,0,1
4:06.436,88717,(,0,0,2
4:06.539,88754,t,0,0,0
4:06.633,88788,),0,0,2
4:06.658,88797,(,0,0,0
4:06.692,88809,p,0,0,0
4:06.731,88823,),0,0,0
4:06.792,88845,(,0,0,1
4:06.828,88858,N,0,0,0
4:06.878,88876,),0,0,1
4:06.969,88909,(,0,0,2
4:07.081,88949,t,0,0,0
4:07.178,88984,),0,0,2
4:07.197,88991,(,0,0,0
4:07.228,89002,p,0,0,0
4:07.267,89016,),0,0,0
4:07.328,89038,(,0,0,1
4:07.361,89050,N,0,0,0
4:07.408,89067,),0,0,1
4:07.500,89100,(,0,0,2
4:07.606,89138,t,0,0,0
4:07.706,89174,),0,0,2
4:07.725,89181,(,0,0,0
4:07.756,89192,p,0,0,0
4:07.792,89205,),0,0,0
4:07.850,89226,(,0,0,1
4:07.886,89239,N,0,0,0
4:07.931,89255,),0,0,1
4:08.028,89290,(,0,0,2
4:08.136,89329,t,0,0,0
4:08.236,89365,),0,0,2
4:08.264,89375,(,0,0,0
4:08.300,89388,p,0,0,0
4:08.336,89401,),0,0,0
4:08.397,89423,(,0,0,1
4:08.433,89436,N,0,0,0
4:08.486,89455,),0,0,1
4:08.581,89489,(,0,0,2
4:08.689,89528,t,0,0,0
4:08.789,89564,),0,0,2
4:08.811,89572,(,0,0,0
4:08.847,89585,p,0,0,0
4:08.889,89600,),0,0,0
4:08.925,89613,(,0,0,1
4:08.989,89636,N,0,0,0
4:09.028,89650,),0,0,1
4:09.083,89670,(,0,0,2
4:09.133,89688,t,0,0,4
4:09.272,89738,t,0,0,4
4:09.350,89766,),0,0,2
4:09.375,89775,(,0,0,0
4:09.411,89788,p,0,0,0
4:09.453,89803,),0,0,0
4:09.511,89824,(,0,0,1
4:09.547,89837,N,0,0,0
4:09.597,89855,),0,0,1
4:09.683,89886,(,0,0,2
4:09.789,89924,t,0,0,0
4:09.897,89963,),0,0,2
4:09.958,89985,(,0,0,1
4:10.061,90022,N,0,0,0
4:10.131,90047,),0,0,1
4:10.169,90061,(,0,0,2
4:10.231,90083,t,0,0,1
4:10.353,90127,),0,0,2
4:10.469,90169,(,0,0,0
4:10.508,90183,p,0,0,0
4:10.547,90197,),0,0,0
4:10.606,90218,(,0,0,1
4:10.642,90231,N,0,0,0
4:10.689,90248,),0,0,1
4:10.786,90283,(,0,0,2
4:10.886,90319,t,0,0,0
4:10.975,90351,),0,0,2
4:10.997,90359,(,0,0,0
4:11.031,90371,p,0,0,0
4:11.072,90386,),0,0,0
4:11.136,90409,(,0,0,1
4:11.172,90422,N,0,0,0
4:11.222,90440,),0,0,1
4:11.325,90477,(,0,0,2
4:11.428,90514,t,0,0,0
4:11.528,90550,),0,0,2
4:11.550,90558,(,0,0,0
4:11.581,90569,p,0,0,0
4:11.619,90583,),0,0,0
4:11.683,90606,(,0,0,1
4:11.719,90619,N,0,0,0
4:11.772,90638,),0,0,1
4:11.858,90669,(,0,0,2
4:11.969,90709,t,0,0,0
4:12.078,90748,),0,0,2
4:12.106,90758,(,0,0,0
4:12.142,90771,p,0,0,0
4:12.181,90785,),0,0,0
4:12.244,90808,(,0,0,1
4:12.281,90821,N,0,0,0
4:12.333,90840,),0,0,1
4:12.428,90874,(,0,0,2
4:12.531,90911,t,0,0,0
4:12.619,90943,),0,0,2
4:12.636,90949,(,0,0,0
4:12.667,90960,p,0,0,0
4:12.706,90974,),0,0,0
4:12.767,90996,(,0,0,1
4:12.803,91009,N,0,0,0
4:12.853,91027,),0,0,1
4:12.953,91063,(,0,0,2
4:13.056,91100,t,0,0,0
4:13.164,91139,),0,0,2
4:13.186,91147,(,0,0,0
4:13.219,91159,p,0,0,0
4:13.258,91173,),0,0,0
4:13.322,91196,(,0,0,1
4:13.358,91209,N,0,0,0
4:13.414,91229,),0,0,1
4:13.497,91259,(,0,0,2
4:13.606,91298,t,0,0,0
4:13.711,91336,),0,0,2
4:13.739,91346,(,0,0,0
4:13.775,91359,p,0,0,0
4:13.814,91373,),0,0,0
4:13.875,91395,(,0,0,1
4:13.914,91409,N,0,0,0
4:13.969,91429,),0,0,1
4:14.067,91464,(,0,0,2
4:14.181,91505,t,0,0,0
4:14.275,91539,),0,0,2
4:14.300,91548,(,0,0,0
4:14.339,91562,p,0,0,0
4:14.378,91576,),0,0,0
4:14.444,91600,(,0,0,1
4:14.483,91614,N,0,0,0
4:14.533,91632,),0,0,1
4:14.628,91666,(,0,0,2
4:14.731,91703,t,0,0,0
4:14.825,91737,),0,0,2
4:14.844,91744,(,0,0,0
4:14.875,91755,p,0,0,0
4:14.914,91769,),0,0,0
4:14.978,91792,(,0,0,1
4:15.014,91805,N,0,0,0
4:15.064,91823,),0,0,1
4:15.161,91858,(,0,0,2
4:15.269,91897,t,0,0,0
4:15.372,91934,),0,0,2
4:15.394,91942,(,0,0,0
4:15.428,91954,p,0,0,0
4:15.464,91967,),0,0,0
4:15.500,91980,(,0,0,1
4:15.561,92002,N,0,0,0
4:15.603,92017,),0,0,1
4:15.725,92061,(,0,0,2
4:15.828,92098,t,0,0,0
4:15.900,92124,),0,0,2
4:15.939,92138,(,0,0,0
4:15.978,92152,p,0,0,0
4:16.014,92165,),0,0,0
4:16.075,92187,(,0,0,1
4:16.111,92200,N,0,0,0
4:16.161,92218,),0,0,1
4:16.244,92248,(,0,0,2
4:16.356,92288,t,0,0,0
4:16.456,92324,),0,0,2
4:16.483,92334,(,0,0,0
4:16.517,92346,p,0,0,0
4:16.556,92360,),0,0,0
4:16.611,92380,(,0,0,1
4:16.656,92396,N,0,0,0
4:16.692,92409,),0,0,1
4:16.825,92457,(,0,0,2
4:16.933,92496,t,0,0,0
4:17.000,92520,),0,0,2
4:17.022,92528,(,0,0,0
4:17.053,92539,p,0,0,0
4:17.092,92553,),0,0,0
4:17.158,92577,(,0,0,1
4:17.194,92590,N,0,0,0
4:17.244,92608,),0,0,1
4:17.347,92645,(,0,0,2
4:17.461,92686,t,0,0,0
4:17.553,92719,),0,0,2
4:17.575,92727,(,0,0,0
4:17.606,92738,p,0,0,0
4:17.642,92751,),0,0,0
4:17.678,92764,(,0,0,1
4:17.742,92787,N,0,0,0
4:17.781,92801,),0,0,1
4:17.786,92803,(,0,0,2
4:17.878,92836,t,0,0,4
4:18.014,92885,t,0,0,4
4:18.072,92906,),0,0,2
4:18.111,92920,(,0,0,0
4:18.147,92933,p,0,0,0
4:18.183,92946,),0,0,0
4:18.244,92968,(,0,0,1
4:18.283,92982,N,0,0,0
4:18.333,93000,),0,0,1
4:18.389,93020,t,0,0,2
4:18.533,93072,),0,0,2
4:18.578,93088,(,0,0,0
4:18.661,93118,p,0,0,0
4:18.703,93133,),0,0,0
4:18.719,93139,(,0,0,1
4:18.806,93170,N,0,0,0
4:18.878,93196,),0,0,1
4:18.883,93198,(,0,0,2
4:18.964,93227,t,0,0,4
4:19.097,93275,t,0,0,4
4:19.142,93291,),0,0,2
4:19.214,93317,(,0,0,0
4:19.247,93329,p,0,0,0
4:19.289,93344,),0,0,0
4:19.350,93366,(,0,0,1
4:19.389,93380,N,0,0,0
4:19.439,93398,),0,0,1
4:19.542,93435,(,0,0,2
4:19.653,93475,t,0,0,0
4:19.725,93501,),0,0,2
4:19.747,93509,(,0,0,0
4:19.778,93520,p,0,0,0
4:19.819,93535,),0,0,0
4:19.881,93557,(,0,0,1
4:19.917,93570,N,0,0,0
4:19.964,93587,),0,0,1
4:20.058,93621,(,0,0,2
4:20.172,93662,t,0,0,0
4:20.264,93695,),0,0,2
4:20.289,93704,(,0,0,0
4:20.322,93716,p,0,0,0
4:20.361,93730,),0,0,0
4:20.428,93754,(,0,0,1
4:20.464,93767,N,0,0,0
4:20.517,93786,),0,0,1
4:20.606,93818,(,0,0,2
4:20.719,93859,t,0,0,0
4:20.817,93894,),0,0,2
4:20.842,93903,(,0,0,0
4:20.875,93915,p,0,0,0
4:20.911,93928,),0,0,0
4:20.944,93940,(,0,0,1
4:21.008,93963,N,0,0,0
4:21.058,93981,),0,0,1
4:21.139,94010,(,0,0,2
4:21.256,94052,t,0,0,0
4:21.369,94093,),0,0,2
4:21.400,94104,(,0,0,0
4:21.433,94116,p,0,0,0
4:21.475,94131,),0,0,0
4:21.539,94154,(,0,0,1
4:21.572,94166,N,0,0,0
4:21.622,94184,),0,0,1
4:21.717,94218,(,0,0,2
4:21.825,94257,t,0,0,0
4:21.917,94290,),0,0,2
4:21.939,94298,(,0,0,0
4:21.972,94310,p,0,0,0
4:22.011,94324,),0,0,0
4:22.078,94348,(,0,0,1
4:22.114,94361,N,0,0,0
4:22.164,94379,),0,0,1
4:22.258,94413,(,0,0,2
4:22.375,94455,t,0,0,0
4:22.475,94491,),0,0,2
4:22.497,94499,(,0,0,0
4:22.528,94510,p,0,0,0
4:22.567,94524,),0,0,0
4:22.631,94547,(,0,0,1
4:22.667,94560,N,0,0,0
4:22.717,94578,),0,0,1
4:22.808,94611,(,0,0,2
4:22.917,94650,t,0,0,0
4:23.014,94685,),0,0,2
4:23.033,94692,(,0,0,0
4:23.064,94703,p,0,0,0
4:23.103,94717,),0,0,0
4:23.161,94738,(,0,0,1
4:23.200,94752,N,0,0,0
4:23.247,94769,),0,0,1
4:23.333,94800,(,0,0,2
4:23.444,94840,t,0,0,0
4:23.561,94882,),0,0,2
4:23.583,94890,(,0,0,0
4:23.619,94903,p,0,0,0
4:23.656,94916,),0,0,0
4:23.719,94939,(,0,0,1
4:23.753,94951,N,0,0,0
4:23.806,94970,),0,0,1
4:23.889,95000,(,0,0,2
4:24.000,95040,t,0,0,0
4:24.100,95076,),0,0,2
4:24.128,95086,(,0,0,0
4:24.161,95098,p,0,0,0
4:24.197,95111,),0,0,0
4:24.256,95132,(,0,0,1
4:24.289,95144,N,0,0,0
4:24.342,95163,),0,0,1
4:24.428,95194,(,0,0,2
4:24.536,95233,t,0,0,0
4:24.633,95268,),0,0,2
4:24.661,95278,(,0,0,0
4:24.694,95290,p,0,0,0
4:24.733,95304,),0,0,0
4:24.794,95326,(,0,0,1
4:24.831,95339,N,0,0,0
4:24.883,95358,),0,0,1
4:24.983,95394,(,0,0,2
4:25.092,95433,t,0,0,0
4:25.186,95467,),0,0,2
4:25.206,95474,(,0,0,0
4:25.236,95485,p,0,0,0
4:25.275,95499,),0,0,0
4:25.342,95523,(,0,0,1
4:25.378,95536,N,0,0,0
4:25.428,95554,),0,0,1
4:25.531,95591,(,0,0,2
4:25.636,95629,t,0,0,0
4:25.742,95667,),0,0,2
4:25.758,95673,(,0,0,0
4:25.789,95684,p,0,0,0
4:25.828,95698,),0,0,0
4:25.886,95719,(,0,0,1
4:25.925,95733,N,0,0,0
4:25.975,95751,),0,0,1
4:26.061,95782,(,0,0,2
4:26.169,95821,t,0,0,0
4:26.281,95861,),0,0,2
4:26.303,95869,(,0,0,0
4:26.336,95881,p,0,0,0
4:26.378,95896,),0,0,0
4:26.397,95903,(,0,0,1
4:26.464,95927,N,0,0,0
4:26.508,95943,),0,0,1
4:26.514,95945,(,0,0,2
4:26.617,95982,t,0,0,4
4:26.747,96029,t,0,0,4
4:26.817,96054,),0,0,2
4:26.847,96065,(,0,0,0
4:26.883,96078,p,0,0,0
4:26.919,96091,),0,0,0
4:26.981,96113,(,0,0,1
4:27.017,96126,N,0,0,0
4:27.069,96145,),0,0,1
4:27.156,96176,(,0,0,2
4:27.261,96214,t,0,0,0
4:27.347,96245,),0,0,2
4:27.369,96253,(,0,0,0
4:27.400,96264,p,0,0,0
4:27.436,96277,),0,0,0
4:27.450,96282,(,0,0,1
4:27.528,96310,N,0,0,0
4:27.575,96327,),0,0,1
4:27.631,96347,(,0,0,2
4:27.675,96363,t,0,0,4
4:27.817,96414,t,0,0,4
4:27.864,96431,),0,0,2
4:27.903,96445,(,0,0,0
4:27.939,96458,p,0,0,0
4:27.975,96471,),0,0,0
4:28.039,96494,(,0,0,1
4:28.075,96507,N,0,0,0
4:28.122,96524,),0,0,1
4:28.206,96554,(,0,0,2
4:28.319,96595,t,0,0,0
4:28.428,96634,),0,0,2
4:28.497,96659,(,0,0,1
4:28.578,96688,N,0,0,0
4:28.656,96716,),0,0,1
4:28.661,96718,(,0,0,2
4:28.744,96748,t,0,0,4
4:28.875,96795,t,0,0,4
4:28.922,96812,),0,0,2
4:28.997,96839,(,0,0,0
4:29.031,96851,p,0,0,0
4:29.069,96865,),0,0,0
4:29.128,96886,(,0,0,1
4:29.164,96899,N,0,0,0
4:29.214,96917,),0,0,1
4:29.306,96950,(,0,0,2
4:29.417,96990,t,0,0,0
4:29.500,97020,),0,0,2
4:29.525,97029,(,0,0,0
4:29.561,97042,p,0,0,0
4:29.603,97057,),0,0,0
4:29.661,97078,(,0,0,1
4:29.703,97093,N,0,0,0
4:29.756,97112,),0,0,1
4:29.853,97147,(,0,0,2
4:29.956,97184,t,0,0,0
4:30.047,97217,),0,0,2
4:30.069,97225,(,0,0,0
4:30.100,97236,p,0,0,0
4:30.136,97249,),0,0,0
4:30.194,97270,(,0,0,1
4:30.236,97285,N,0,0,0
4:30.289,97304,),0,0,1
4:30.378,97336,(,0,0,2
4:30.492,97377,t,0,0,0
4:30.603,97417,),0,0,2
4:30.631,97427,(,0,0,0
4:30.667,97440,p,0,0,0
4:30.703,97453,),0,0,0
4:30.767,97476,(,0,0,1
4:30.806,97490,N,0,0,0
4:30.858,97509,),0,0,1
4:30.944,97540,(,0,0,2
4:31.050,97578,t,0,0,0
4:31.139,97610,),0,0,2
4:31.164,97619,(,0,0,0
4:31.197,97631,p,0,0,0
4:31.236,97645,),0,0,0
4:31.297,97667,(,0,0,1
4:31.333,97680,N,0,0,0
4:31.383,97698,),0,0,1
4:31.481,97733,(,0,0,2
4:31.581,97769,t,0,0,0
4:31.681,97805,),0,0,2
4:31.706,97814,(,0,0,0
4:31.739,97826,p,0,0,0
4:31.778,97840,),0,0,0
4:31.825,97857,(,0,0,1
4:31.869,97873,N,0,0,0
4:31.919,97891,),0,0,1
4:32.008,97923,(,0,0,2
4:32.114,97961,t,0,0,0
4:32.208,97995,),0,0,2
4:32.242,98007,(,0,0,0
4:32.278,98020,p,0,0,0
4:32.314,98033,),0,0,0
4:32.372,98054,(,0,0,1
4:32.408,98067,N,0,0,0
4:32.458,98085,),0,0,1
4:32.542,98115,(,0,0,2
4:32.653,98155,t,0,0,0
4:32.753,98191,),0,0,2
4:32.783,98202,(,0,0,0
4:32.817,98214,p,0,0,0
4:32.856,98228,),0,0,0
4:32.917,98250,(,0,0,1
4:32.953,98263,N,0,0,0
4:33.003,98281,),0,0,1
4:33.106,98318,(,0,0,2
4:33.214,98357,t,0,0,0
4:33.311,98392,),0,0,2
4:33.331,98399,(,0,0,0
4:33.364,98411,p,0,0,0
4:33.406,98426,),0,0,0
4:33.469,98449,(,0,0,1
4:33.506,98462,N,0,0,0
4:33.556,98480,),0,0,1
4:33.656,98516,(,0,0,2
4:33.767,98556,t,0,0,0
4:33.867,98592,),0,0,2
4:33.886,98599,(,0,0,0
4:33.919,98611,p,0,0,0
4:33.958,98625,),0,0,0
4:34.022,98648,(,0,0,1
4:34.061,98662,N,0,0,0
4:34.111,98680,),0,0,1
4:34.189,98708,(,0,0,2
4:34.303,98749,t,0,0,0
4:34.414,98789,),0,0,2
4:34.436,98797,(,0,0,0
4:34.472,98810,p,0,0,0
4:34.508,98823,),0,0,0
4:34.567,98844,(,0,0,1
4:34.603,98857,N,0,0,0
4:34.656,98876,),0,0,1
4:34.747,98909,(,0,0,2
4:34.861,98950,t,0,0,0
4:34.964,98987,),0,0,2
4:34.992,98997,(,0,0,0
4:35.025,99009,p,0,0,0
4:35.064,99023,),0,0,0
4:35.125,99045,(,0,0,1
4:35.161,99058,N,0,0,0
4:35.211,99076,),0,0,1
4:35.311,99112,(,0,0,2
4:35.408,99147,t,0,0,0
4:35.503,99181,),0,0,2
4:36.167,99420,(,0,0,1
4:36.233,99444,N,0,0,0
4:36.272,99458,),0,0,1
4:36.278,99460,(,0,0,2
4:36.369,99493,t,0,0,4
4:36.494,99538,t,0,0,4
4:36.575,99567,),0,0,2
4:36.744,99628,(,0,0,1
4:36.792,99645,N,0,0,0
4:36.842,99663,),0,0,1
4:36.944,99700,(,0,0,2
4:37.050,99738,t,0,0,0
4:37.136,99769,),0,0,2
4:37.839,100022,(,0,0,1
4:37.875,100035,N,0,0,0
4:37.925,100053,),0,0,1
4:38.028,100090,(,0,0,2
4:38.139,100130,t,0,0,0
4:38.231,100163,),0,0,2
4:38.389,100220,(,0,0,1
4:38.431,100235,N,0,0,0
4:38.478,100252,),0,0,1
4:38.578,100288,(,0,0,2
4:38.692,100329,t,0,0,0
4:38.789,100364,),0,0,2
4:38.942,100419,(,0,0,1
4:38.986,100435,N,0,0,0
4:39.039,100454,),0,0,1
4:39.125,100485,(,0,0,2
4:39.231,100523,t,0,0,0
4:39.333,100560,),0,0,2
4:39.503,100621,(,0,0,1
4:39.544,100636,N,0,0,0
4:39.597,100655,),0,0,1
4:39.694,100690,(,0,0,2
4:39.806,100730,t,0,0,0
4:39.892,100761,),0,0,2
4:40.042,100815,(,0,0,1
4:40.092,100833,N,0,0,0
4:40.139,100850,),0,0,1
4:40.236,100885,(,0,0,2
4:40.339,100922,t,0,0,0
4:40.436,100957,),0,0,2
4:40.583,101010,(,0,0,1
4:40.619,101023,N,0,0,0
4:40.667,101040,),0,0,1
4:40.764,101075,(,0,0,2
4:40.869,101113,t,0,0,0
4:40.972,101150,),0,0,2
4:41.122,101204,(,0,0,1
4:41.158,101217,N,0,0,0
4:41.211,101236,),0,0,1
4:41.292,101265,(,0,0,2
4:41.403,101305,t,0,0,0
4:41.514,101345,),0,0,2
4:41.675,101403,(,0,0,1
4:41.714,101417,N,0,0,0
4:41.767,101436,),0,0,1
4:41.864,101471,(,0,0,2
4:41.972,101510,t,0,0,0
4:42.064,101543,),0,0,2
4:42.228,101602,(,0,0,1
4:42.269,101617,N,0,0,0
4:42.317,101634,),0,0,1
4:42.417,101670,(,0,0,2
4:42.522,101708,t,0,0,0
4:42.614,101741,),0,0,2
4:42.742,101787,(,0,0,1
4:42.806,101810,N,0,0,0
4:42.842,101823,),0,0,1
4:42.975,101871,(,0,0,2
4:43.081,101909,t,0,0,0
4:43.156,101936,),0,0,2
4:43.314,101993,(,0,0,1
4:43.356,102008,N,0,0,0
4:43.408,102027,),0,0,1
4:43.486,102055,(,0,0,2
4:43.600,102096,t,0,0,0
4:43.697,102131,),0,0,2
4:44.397,102383,(,0,0,1
4:44.436,102397,N,0,0,0
4:44.483,102414,),0,0,1
4:44.581,102449,(,0,0,2
4:44.692,102489,t,0,0,0
4:44.783,102522,),0,0,2
4:44.942,102579,(,0,0,1
4:44.986,102595,N,0,0,0
4:45.039,102614,),0,0,1
4:45.142,102651,(,0,0,2
4:45.244,102688,t,0,0,0
4:45.347,102725,),0,0,2
4:45.481,102773,(,0,0,1
4:45.528,102790,N,0,0,0
4:45.578,102808,),0,0,1
4:45.658,102837,(,0,0,2
4:45.775,102879,t,0,0,0
4:45.878,102916,),0,0,2
4:46.042,102975,(,0,0,1
4:46.089,102992,N,0,0,0
4:46.142,103011,),0,0,1
4:46.233,103044,(,0,0,2
4:46.342,103083,t,0,0,0
4:46.433,103116,),0,0,2
4:46.581,103169,(,0,0,1
4:46.633,103188,N,0,0,0
4:46.686,103207,),0,0,1
4:46.783,103242,(,0,0,2
4:46.889,103280,t,0,0,0
4:46.992,103317,),0,0,2
4:47.156,103376,(,0,0,1
4:47.197,103391,N,0,0,0
4:47.244,103408,),0,0,1
4:47.350,103446,(,0,0,2
4:47.453,103483,t,0,0,0
4:47.553,103519,),0,0,2
4:47.697,103571,(,0,0,1
4:47.739,103586,N,0,0,0
4:47.789,103604,),0,0,1
4:47.878,103636,(,0,0,2
4:47.989,103676,t,0,0,0
4:48.097,103715,),0,0,2
4:48.258,103773,(,0,0,1
4:48.300,103788,N,0,0,0
4:48.350,103806,),0,0,1
4:48.444,103840,(,0,0,2
4:48.550,103878,t,0,0,0
4:48.633,103908,),0,0,2
4:48.783,103962,(,0,0,1
4:48.822,103976,N,0,0,0
4:48.872,103994,),0,0,1
4:48.967,104028,(,0,0,2
4:49.069,104065,t,0,0,0
4:49.172,104102,),0,0,2
4:49.319,104155,(,0,0,1
4:49.367,104172,N,0,0,0
4:49.414,104189,),0,0,1
4:49.506,104222,(,0,0,2
4:49.614,104261,t,0,0,0
4:49.728,104302,),0,0,2
4:49.886,104359,(,0,0,1
4:49.919,104371,N,0,0,0
4:49.975,104391,),0,0,1
4:50.064,104423,(,0,0,2
4:50.183,104466,t,0,0,0
4:50.292,104505,),0,0,2
4:50.453,104563,(,0,0,1
4:50.506,104582,N,0,0,0
4:50.556,104600,),0,0,1
4:50.650,104634,(,0,0,2
4:50.764,104675,t,0,0,0
4:50.850,104706,),0,0,2
4:50.986,104755,(,0,0,1
4:51.042,104775,N,0,0,0
4:51.092,104793,),0,0,1
4:51.194,104830,(,0,0,2
4:51.297,104867,t,0,0,0
4:51.397,104903,),0,0,2
4:51.553,104959,(,0,0,1
4:51.592,104973,N,0,0,0
4:51.642,104991,),0,0,1
4:51.739,105026,(,0,0,2
4:51.842,105063,t,0,0,0
4:51.936,105097,),0,0,2
4:52.086,105151,(,0,0,1
4:52.125,105165,N,0,0,0
4:52.178,105184,),0,0,1
4:52.258,105213,(,0,0,2
4:52.378,105256,t,0,0,0
4:52.481,105293,),0,0,2
4:52.625,105345,(,0,0,1
4:52.678,105364,N,0,0,0
4:52.728,105382,),0,0,1
4:52.825,105417,(,0,0,2
4:52.931,105455,t,0,0,0
4:53.017,105486,),0,0,2
4:53.169,105541,(,0,0,1
4:53.214,105557,N,0,0,0
4:53.261,105574,),0,0,1
4:53.364,105611,(,0,0,2
4:53.467,105648,t,0,0,0
4:53.564,105683,),0,0,2
4:53.678,105724,(,0,0,1
4:53.744,105748,N,0,0,0
4:53.786,105763,),0,0,1
4:53.900,105804,(,0,0,2
4:54.006,105842,t,0,0,0
4:54.083,105870,),0,0,2
4:54.256,105932,(,0,0,1
4:54.300,105948,N,0,0,0
4:54.356,105968,),0,0,1
4:54.444,106000,(,0,0,2
4:54.556,106040,t,0,0,0
4:54.650,106074,),0,0,2
4:54.694,106090,(,0,0,1
4:54.811,106132,N,0,0,0
4:54.919,106171,),0,0,1
4:54.997,106199,(,0,0,2
4:55.114,106241,t,0,0,0
4:55.169,106261,),0,0,2
4:55.378,106336,(,0,0,1
4:55.414,106349,N,0,0,0
4:55.464,106367,),0,0,1
4:55.558,106401,(,0,0,2
4:55.667,106440,t,0,0,0
4:55.764,106475,),0,0,2
4:55.853,106507,(,0,0,1
4:55.908,106527,N,0,0,0
4:55.983,106554,),0,0,1
4:55.989,106556,(,0,0,2
4:56.050,106578,t,0,0,4
4:56.194,106630,t,0,0,4
4:56.256,106652,),0,0,2
4:56.469,106729,(,0,0,1
4:56.500,106740,N,0,0,0
4:56.550,106758,),0,0,1
4:56.628,106786,(,0,0,2
4:56.750,106830,t,0,0,0
4:56.842,106863,),0,0,2
4:57.011,106924,(,0,0,1
4:57.050,106938,N,0,0,0
4:57.100,106956,),0,0,1
4:57.197,106991,(,0,0,2
4:57.306,107030,t,0,0,0
4:57.394,107062,),0,0,2
4:57.550,107118,(,0,0,1
4:57.589,107132,N,0,0,0
4:57.639,107150,),0,0,1
4:57.736,107185,(,0,0,2
4:57.844,107224,t,0,0,0
4:57.942,107259,),0,0,2
4:58.083,107310,(,0,0,1
4:58.133,107328,N,0,0,0
4:58.186,107347,),0,0,1
4:58.281,107381,(,0,0,2
4:58.389,107420,t,0,0,0
4:58.506,107462,),0,0,2
4:58.658,107517,(,0,0,1
4:58.700,107532,N,0,0,0
4:58.756,107552,),0,0,1
4:58.847,107585,(,0,0,2
4:58.953,107623,t,0,0,0
4:59.050,107658,),0,0,2
4:59.197,107711,(,0,0,1
4:59.247,107729,N,0,0,0
4:59.300,107748,),0,0,1
4:59.397,107783,(,0,0,2
4:59.508,107823,t,0,0,0
4:59.603,107857,),0,0,2
4:59.756,107912,(,0,0,1
4:59.800,107928,N,0,0,0
4:59.850,107946,),0,0,1
4:59.939,107978,(,0,0,2
5:00.042,108015,t,0,0,0
5:00.147,108053,),0,0,2
5:00.286,108103,(,0,0,1
5:00.328,108118,N,0,0,0
5:00.372,108134,),0,0,1
5:00.489,108176,(,0,0,2
5:00.589,108212,t,0,0,0
5:00.686,108247,),0,0,2
5:00.839,108302,(,0,0,1
5:00.878,108316,N,0,0,0
5:00.928,108334,),0,0,1
5:01.025,108369,(,0,0,2
5:01.128,108406,t,0,0,0
5:01.219,108439,),0,0,2
5:01.347,108485,(,0,0,1
5:01.417,108510,N,0,0,0
5:01.458,108525,),0,0,1
5:01.522,108548,(,0,0,2
5:01.567,108564,t,0,0,4
5:01.694,108610,t,0,0,4
5:01.761,108634,),0,0,2
5:01.922,108692,(,0,0,1
5:01.961,108706,N,0,0,0
5:02.014,108725,),0,0,1
5:02.100,108756,(,0,0,2
5:02.208,108795,t,0,0,0
5:02.314,108833,),0,0,2
5:02.436,108877,(,0,0,1
5:02.511,108904,N,0,0,0
5:02.561,108922,),0,0,1
5:02.622,108944,(,0,0,2
5:02.664,108959,t,0,0,4
5:02.792,109005,t,0,0,4
5:02.847,109025,),0,0,2
5:03.019,109087,(,0,0,1
5:03.061,109102,N,0,0,0
5:03.114,109121,),0,0,1
5:03.208,109155,(,0,0,2
5:03.317,109194,t,0,0,0
5:03.411,109228,),0,0,2
5:03.561,109282,(,0,0,1
5:03.617,109302,N,0,0,0
5:03.667,109320,),0,0,1
5:03.758,109353,(,0,0,2
5:03.861,109390,t,0,0,0
5:03.967,109428,),0,0,2
5:04.122,109484,(,0,0,1
5:04.161,109498,N,0,0,0
5:04.211,109516,),0,0,1
5:04.300,109548,(,0,0,2
5:04.408,109587,t,0,0,0
5:04.506,109622,),0,0,2
5:04.661,109678,(,0,0,1
5:04.708,109695,N,0,0,0
5:04.758,109713,),0,0,1
5:04.853,109747,(,0,0,2
5:04.956,109784,t,0,0,0
5:05.047,109817,),0,0,2
5:05.192,109869,(,0,0,1
5:05.233,109884,N,0,0,0
5:05.281,109901,),0,0,1
5:05.381,109937,(,0,0,2
5:05.478,109972,t,0,0,0
5:05.578,110008,),0,0,2
5:05.722,110060,(,0,0,1
5:05.764,110075,N,0,0,0
5:05.814,110093,),0,0,1
5:05.897,110123,(,0,0,2
5:06.008,110163,t,0,0,0
5:06.122,110204,),0,0,2
5:06.283,110262,(,0,0,1
5:06.325,110277,N,0,0,0
5:06.378,110296,),0,0,1
5:06.478,110332,(,0,0,2
5:06.589,110372,t,0,0,0
5:06.686,110407,),0,0,2
5:06.844,110464,(,0,0,1
5:06.886,110479,N,0,0,0
5:06.936,110497,),0,0,1
5:07.036,110533,(,0,0,2
5:07.139,110570,t,0,0,0
5:07.236,110605,),0,0,2
5:07.386,110659,(,0,0,1
5:07.419,110671,N,0,0,0
5:07.472,110690,),0,0,1
5:07.558,110721,(,0,0,2
5:07.669,110761,t,0,0,0
5:07.783,110802,),0,0,2
5:07.936,110857,(,0,0,1
5:07.978,110872,N,0,0,0
5:08.031,110891,),0,0,1
5:08.125,110925,(,0,0,2
5:08.225,110961,t,0,0,0
5:08.311,110992,),0,0,2
5:08.464,111047,(,0,0,1
5:08.503,111061,N,0,0,0
5:08.550,111078,),0,0,1
5:08.653,111115,(,0,0,2
5:08.758,111153,t,0,0,0
5:08.858,111189,),0,0,2
5:09.006,111242,(,0,0,1
5:09.044,111256,N,0,0,0
5:09.094,111274,),0,0,1
5:09.192,111309,(,0,0,2
5:09.294,111346,t,0,0,0
5:09.392,111381,),0,0,2
5:09.539,111434,(,0,0,1
5:09.583,111450,N,0,0,0
5:09.631,111467,),0,0,1
5:09.733,111504,(,0,0,2
5:09.842,111543,t,0,0,0
5:09.933,111576,),0,0,2
5:09.997,111599,(,0,0,1
5:10.083,111630,N,0,0,0
5:10.153,111655,),0,0,1
5:10.158,111657,(,0,0,2
5:10.236,111685,t,0,0,4
5:10.372,111734,t,0,0,4
5:10.431,111755,),0,0,2
5:10.633,111828,(,0,0,1
5:10.681,111845,N,0,0,0
5:10.731,111863,),0,0,1
5:10.828,111898,(,0,0,2
5:10.947,111941,t,0,0,0
5:11.028,111970,),0,0,2
5:11.106,111998,(,0,0,1
5:11.192,112029,N,0,0,0
5:11.269,112057,),0,0,1
5:11.275,112059,(,0,0,2
5:11.356,112088,t,0,0,1
5:11.486,112135,),0,0,2
5:11.519,112147,(,0,0,0
5:11.569,112165,p,0,0,0
5:11.650,112194,),0,0,0
5:11.767,112236,(,0,0,1
5:11.806,112250,N,0,0,0
5:11.858,112269,),0,0,1
5:11.958,112305,(,0,0,2
5:12.069,112345,t,0,0,0
5:12.164,112379,),0,0,2
5:12.317,112434,(,0,0,1
5:12.356,112448,N,0,0,0
5:12.403,112465,),0,0,1
5:12.486,112495,(,0,0,2
5:12.597,112535,t,0,0,0
5:12.706,112574,),0,0,2
5:12.864,112631,(,0,0,1
5:12.903,112645,N,0,0,0
5:12.956,112664,),0,0,1
5:13.036,112693,(,0,0,2
5:13.156,112736,t,0,0,0
5:13.256,112772,),0,0,2
5:13.414,112829,(,0,0,1
5:13.456,112844,N,0,0,0
5:13.503,112861,),0,0,1
5:13.597,112895,(,0,0,2
5:13.708,112935,t,0,0,0
5:13.797,112967,),0,0,2
5:13.947,113021,(,0,0,1
5:13.989,113036,N,0,0,0
5:14.036,113053,),0,0,1
5:14.136,113089,(,0,0,2
5:14.242,113127,t,0,0,0
5:14.344,113164,),0,0,2
5:14.503,113221,(,0,0,1
5:14.536,113233,N,0,0,0
5:14.586,113251,),0,0,1
5:14.669,113281,(,0,0,2
5:14.786,113323,t,0,0,0
5:14.897,113363,),0,0,2
5:15.067,113424,(,0,0,1
5:15.100,113436,N,0,0,0
5:15.153,113455,),0,0,1
5:15.236,113485,(,0,0,2
5:15.350,113526,t,0,0,0
5:15.444,113560,),0,0,2
5:15.600,113616,(,0,0,1
5:15.639,113630,N,0,0,0
5:15.689,113648,),0,0,1
5:15.786,113683,(,0,0,2
5:15.900,113724,t,0,0,0
5:15.992,113757,),0,0,2
5:16.150,113814,(,0,0,1
5:16.183,113826,N,0,0,0
5:16.233,113844,),0,0,1
5:16.317,113874,(,0,0,2
5:16.428,113914,t,0,0,0
5:16.533,113952,),0,0,2
5:16.672,114002,(,0,0,1
5:16.717,114018,N,0,0,0
5:16.764,114035,),0,0,1
5:16.858,114069,(,0,0,2
5:16.969,114109,t,0,0,0
5:17.056,114140,),0,0,2
5:17.211,114196,(,0,0,1
5:17.250,114210,N,0,0,0
5:17.297,114227,),0,0,1
5:17.397,114263,(,0,0,2
5:17.497,114299,t,0,0,0
5:17.586,114331,),0,0,2
5:17.733,114384,(,0,0,1
5:17.778,114400,N,0,0,0
5:17.825,114417,),0,0,1
5:17.914,114449,(,0,0,2
5:18.028,114490,t,0,0,0
5:18.136,114529,),0,0,2
5:18.289,114584,(,0,0,1
5:18.319,114595,N,0,0,0
5:18.372,114614,),0,0,1
5:18.456,114644,(,0,0,2
5:18.564,114683,t,0,0,0
5:18.669,114721,),0,0,2
5:18.797,114767,(,0,0,1
5:18.875,114795,N,0,0,0
5:18.917,114810,),0,0,1
5:18.922,114812,(,0,0,2
5:19.025,114849,t,0,0,4
5:19.158,114897,t,0,0,4
5:19.222,114920,),0,0,2
5:19.369,114973,(,0,0,1
5:19.422,114992,N,0,0,0
5:19.475,115011,),0,0,1
5:19.531,115031,t,0,0,2
5:19.669,115081,),0,0,2
5:19.844,115144,(,0,0,1
5:19.944,115180,N,0,0,0
5:20.017,115206,),0,0,1
5:20.022,115208,(,0,0,2
5:20.108,115239,t,0,0,4
5:20.247,115289,t,0,0,4
5:20.300,115308,),0,0,2
5:20.489,115376,(,0,0,1
5:20.525,115389,N,0,0,0
5:20.575,115407,),0,0,1
5:20.656,115436,(,0,0,2
5:20.775,115479,t,0,0,0
5:20.869,115513,),0,0,2
5:21.003,115561,(,0,0,1
5:21.075,115587,N,0,0,0
5:21.122,115604,),0,0,1
5:21.128,115606,(,0,0,2
5:21.225,115641,t,0,0,4
5:21.356,115688,t,0,0,4
5:21.414,115709,),0,0,2
5:21.578,115768,(,0,0,1
5:21.614,115781,N,0,0,0
5:21.661,115798,),0,0,1
5:21.758,115833,(,0,0,2
5:21.858,115869,t,0,0,0
5:21.950,115902,),0,0,2
5:22.100,115956,(,0,0,1
5:22.144,115972,N,0,0,0
5:22.197,115991,),0,0,1
5:22.286,116023,(,0,0,2
5:22.397,116063,t,0,0,0
5:22.503,116101,),0,0,2
5:22.664,116159,(,0,0,1
5:22.706,116174,N,0,0,0
5:22.758,116193,),0,0,1
5:22.858,116229,(,0,0,2
5:22.964,116267,t,0,0,0
5:23.064,116303,),0,0,2
5:23.231,116363,(,0,0,1
5:23.264,116375,N,0,0,0
5:23.319,116395,),0,0,1
5:23.417,116430,(,0,0,2
5:23.525,116469,t,0,0,0
5:23.628,116506,),0,0,2
5:23.781,116561,(,0,0,1
5:23.817,116574,N,0,0,0
5:23.867,116592,),0,0,1
5:23.956,116624,(,0,0,2
5:24.064,116663,t,0,0,0
5:24.178,116704,),0,0,2
5:24.331,116759,(,0,0,1
5:24.369,116773,N,0,0,0
5:24.422,116792,),0,0,1
5:24.514,116825,(,0,0,2
5:24.619,116863,t,0,0,0
5:24.714,116897,),0,0,2
5:24.869,116953,(,0,0,1
5:24.906,116966,N,0,0,0
5:24.956,116984,),0,0,1
5:25.047,117017,(,0,0,2
5:25.156,117056,t,0,0,0
5:25.247,117089,),0,0,2
5:25.369,117133,(,0,0,1
5:25.442,117159,N,0,0,0
5:25.478,117172,),0,0,1
5:25.600,117216,(,0,0,2
5:25.703,117253,t,0,0,0
5:25.778,117280,),0,0,2
5:25.936,117337,(,0,0,1
5:25.975,117351,N,0,0,0
5:26.028,117370,),0,0,1
5:26.072,117386,t,0,0,2
5:26.222,117440,),0,0,2
5:26.378,117496,(,0,0,1
5:26.497,117539,N,0,0,0
5:26.572,117566,),0,0,1
5:26.603,117577,(,0,0,2
5:26.650,117594,t,0,0,4
5:26.783,117642,t,0,0,4
5:26.839,117662,),0,0,2
5:27.033,117732,(,0,0,1
5:27.069,117745,N,0,0,0
5:27.119,117763,),0,0,1
5:27.214,117797,(,0,0,2
5:27.333,117840,t,0,0,0
5:27.422,117872,),0,0,2
5:27.542,117915,(,0,0,1
5:27.619,117943,N,0,0,0
5:27.661,117958,),0,0,1
5:27.714,117977,(,0,0,2
5:27.764,117995,t,0,0,4
5:27.894,118042,t,0,0,4
5:27.969,118069,),0,0,2
5:28.147,118133,(,0,0,1
5:28.186,118147,N,0,0,0
5:28.239,118166,),0,0,1
5:28.328,118198,(,0,0,2
5:28.442,118239,t,0,0,0
5:28.531,118271,),0,0,2
5:28.689,118328,(,0,0,1
5:28.731,118343,N,0,0,0
5:28.778,118360,),0,0,1
5:28.867,118392,(,0,0,2
5:28.969,118429,t,0,0,0
5:29.067,118464,),0,0,2
5:29.222,118520,(,0,0,1
5:29.264,118535,N,0,0,0
5:29.311,118552,),0,0,1
5:29.400,118584,(,0,0,2
5:29.508,118623,t,0,0,0
5:29.614,118661,),0,0,2
5:29.764,118715,(,0,0,1
5:29.803,118729,N,0,0,0
5:29.853,118747,),0,0,1
5:29.939,118778,(,0,0,2
5:30.044,118816,t,0,0,0
5:30.139,118850,),0,0,2
5:30.303,118909,(,0,0,1
5:30.342,118923,N,0,0,0
5:30.394,118942,),0,0,1
5:30.486,118975,(,0,0,2
5:30.600,119016,t,0,0,0
5:30.689,119048,),0,0,2
5:30.844,119104,(,0,0,1
5:30.886,119119,N,0,0,0
5:30.933,119136,),0,0,1
5:31.031,119171,(,0,0,2
5:31.142,119211,t,0,0,0
5:31.244,119248,),0,0,2
5:31.403,119305,(,0,0,1
5:31.442,119319,N,0,0,0
5:31.492,119337,),0,0,1
5:31.586,119371,(,0,0,2
5:31.697,119411,t,0,0,0
5:31.800,119448,),0,0,2
5:31.944,119500,(,0,0,1
5:31.983,119514,N,0,0,0
5:32.033,119532,),0,0,1
5:32.111,119560,(,0,0,2
5:32.231,119603,t,0,0,0
5:32.333,119640,),0,0,2
5:32.503,119701,(,0,0,1
5:32.544,119716,N,0,0,0
5:32.594,119734,),0,0,1
5:32.686,119767,(,0,0,2
5:32.800,119808,t,0,0,0
5:32.886,119839,),0,0,2
5:33.036,119893,(,0,0,1
5:33.075,119907,N,0,0,0
5:33.125,119925,),0,0,1
5:33.222,119960,(,0,0,2
5:33.325,119997,t,0,0,0
5:33.419,120031,),0,0,2
5:33.572,120086,(,0,0,1
5:33.614,120101,N,0,0,0
5:33.658,120117,),0,0,1
5:33.761,120154,(,0,0,2
5:33.864,120191,t,0,0,0
5:33.956,120224,),0,0,2
5:34.106,120278,(,0,0,1
5:34.150,120294,N,0,0,0
5:34.200,120312,),0,0,1
5:34.283,120342,(,0,0,2
5:34.400,120384,t,0,0,0
5:34.508,120423,),0,0,2
5:34.675,120483,(,0,0,1
5:34.714,120497,N,0,0,0
5:34.767,120516,),0,0,1
5:34.847,120545,(,0,0,2
5:34.958,120585,t,0,0,0
5:35.053,120619,),0,0,2
5:35.139,120650,(,0,0,1
5:35.231,120683,N,0,0,0
5:35.303,120709,),0,0,1
5:35.308,120711,(,0,0,2
5:35.394,120742,t,0,0,1
5:35.525,120789,),0,0,2
5:35.542,120795,(,0,0,0
5:35.572,120806,p,0,0,0
5:35.589,120812,),0,0,0
5:35.781,120881,(,0,0,1
5:35.822,120896,N,0,0,0
5:35.869,120913,),0,0,1
5:35.967,120948,(,0,0,2
5:36.078,120988,t,0,0,0
5:36.178,121024,),0,0,2
5:36.339,121082,(,0,0,1
5:36.378,121096,N,0,0,0
5:36.428,121114,),0,0,1
5:36.514,121145,(,0,0,2
5:36.631,121187,t,0,0,0
