Elapsedtime,sample,Type,Sub,Chan,Num
0:00.736,265,(,0,0,0
0:00.775,279,p,0,0,0
0:00.833,300,),0,0,0
0:00.867,312,(,0,0,1
0:00.958,345,N,0,0,0
0:01.064,383,),0,0,1
0:01.106,398,(,0,0,2
0:01.206,434,t,0,0,1
0:01.300,468,),0,0,2
0:01.772,638,(,0,0,1
0:01.833,660,N,0,0,0
0:01.931,695,),0,0,1
0:01.975,711,(,0,0,2
0:02.075,747,t,0,0,1
0:02.161,778,),0,0,2
0:02.650,954,(,0,0,1
0:02.708,975,N,0,0,0
0:02.800,1008,),0,0,1
0:02.853,1027,(,0,0,2
0:02.944,1060,t,0,0,1
0:03.033,1092,),0,0,2
0:03.525,1269,(,0,0,1
0:03.583,1290,N,0,0,0
0:03.683,1326,),0,0,1
0:03.783,1362,(,0,0,2
0:03.839,1382,t,0,0,1
0:03.939,1418,),0,0,2
0:04.242,1527,(,0,0,0
0:04.283,1542,p,0,0,0
0:04.347,1565,),0,0,0
0:04.378,1576,(,0,0,1
0:04.461,1606,N,0,0,0
0:04.494,1618,),0,0,1
0:04.597,1655,(,0,0,2
0:04.700,1692,t,0,0,1
0:04.783,1722,),0,0,2
0:05.072,1826,(,0,0,0
0:05.117,1842,p,0,0,0
0:05.169,1861,),0,0,0
0:05.208,1875,(,0,0,1
0:05.292,1905,N,0,0,0
0:05.383,1938,),0,0,1
0:05.431,1955,(,0,0,2
0:05.528,1990,t,0,0,1
0:05.614,2021,),0,0,2
0:05.839,2102,(,0,0,1
0:05.969,2149,N,0,0,0
0:06.067,2184,),0,0,1
0:06.092,2193,(,0,0,2
0:06.203,2233,t,0,0,0
0:06.322,2276,),0,0,2
0:06.675,2403,(,0,0,0
0:06.725,2421,p,0,0,0
0:06.769,2437,),0,0,0
0:06.819,2455,(,0,0,1
0:06.883,2478,N,0,0,0
0:06.919,2491,),0,0,1
0:07.031,2531,(,0,0,2
0:07.117,2562,t,0,0,1
0:07.203,2593,),0,0,2
0:07.436,2677,(,0,0,0
0:07.483,2694,p,0,0,0
0:07.536,2713,),0,0,0
0:07.578,2728,(,0,0,1
0:07.656,2756,N,0,0,0
0:07.761,2794,),0,0,1
0:07.819,2815,(,0,0,2
0:07.911,2848,t,0,0,1
0:08.014,2885,),0,0,2
0:08.275,2979,(,0,0,0
0:08.344,3004,p,0,0,0
0:08.394,3022,),0,0,0
0:08.472,3050,(,0,0,1
0:08.536,3073,N,0,0,0
0:08.578,3088,),0,0,1
0:08.581,3089,t,0,0,3
0:08.794,3166,),0,0,2
0:08.917,3210,(,0,0,1
0:09.053,3259,N,0,0,0
0:09.103,3277,),0,0,1
0:09.172,3302,(,0,0,2
0:09.308,3351,t,0,0,0
0:09.481,3413,),0,0,2
0:10.194,3670,(,0,0,1
0:10.258,3693,N,0,0,0
0:10.303,3709,),0,0,1
0:10.308,3711,(,0,0,2
0:10.514,3785,t,0,0,1
0:10.608,3819,),0,0,2
0:10.797,3887,(,0,0,0
0:10.858,3909,p,0,0,0
0:10.919,3931,),0,0,0
0:10.972,3950,(,0,0,1
0:11.031,3971,N,0,0,0
0:11.061,3982,),0,0,1
0:11.067,3984,(,0,0,2
0:11.272,4058,t,0,0,1
0:11.361,4090,),0,0,2
0:11.539,4154,(,0,0,0
0:11.594,4174,p,0,0,0
0:11.642,4191,),0,0,0
0:11.692,4209,(,0,0,1
0:11.753,4231,N,0,0,0
0:11.781,4241,),0,0,1
0:11.808,4251,(,0,0,2
0:11.989,4316,t,0,0,1
0:12.078,4348,),0,0,2
0:12.269,4417,(,0,0,0
0:12.314,4433,p,0,0,0
0:12.369,4453,),0,0,0
0:12.422,4472,(,0,0,1
0:12.483,4494,N,0,0,0
0:12.581,4529,),0,0,1
0:12.631,4547,(,0,0,2
0:12.719,4579,t,0,0,1
0:12.817,4614,),0,0,2
0:13.019,4687,(,0,0,0
0:13.083,4710,p,0,0,0
0:13.125,4725,),0,0,0
0:13.181,4745,(,0,0,1
0:13.242,4767,N,0,0,0
0:13.275,4779,),0,0,1
0:13.386,4819,(,0,0,2
0:13.478,4852,t,0,0,1
0:13.564,4883,),0,0,2
0:13.778,4960,(,0,0,0
0:13.831,4979,p,0,0,0
0:13.892,5001,),0,0,0
0:13.942,5019,(,0,0,1
0:14.003,5041,N,0,0,0
0:14.036,5053,),0,0,1
0:14.042,5055,(,0,0,2
0:14.236,5125,t,0,0,1
0:14.325,5157,),0,0,2
0:14.539,5234,(,0,0,0
0:14.592,5253,p,0,0,0
0:14.653,5275,),0,0,0
0:14.700,5292,(,0,0,1
0:14.781,5321,N,0,0,0
0:14.814,5333,),0,0,1
0:14.819,5335,(,0,0,2
0:15.039,5414,t,0,0,1
0:15.144,5452,),0,0,2
0:15.592,5613,(,0,0,1
0:15.658,5637,N,0,0,0
0:15.697,5651,),0,0,1
0:15.750,5670,(,0,0,2
0:15.981,5753,t,0,0,1
0:16.094,5794,),0,0,2
0:16.314,5873,(,0,0,0
0:16.369,5893,p,0,0,0
0:16.428,5914,),0,0,0
0:16.497,5939,(,0,0,1
0:16.556,5960,N,0,0,0
0:16.589,5972,),0,0,1
0:16.689,6008,(,0,0,2
0:16.806,6050,t,0,0,1
0:16.889,6080,),0,0,2
0:17.097,6155,(,0,0,0
0:17.150,6174,p,0,0,0
0:17.194,6190,),0,0,0
0:17.244,6208,(,0,0,1
0:17.303,6229,N,0,0,0
0:17.344,6244,),0,0,1
0:17.436,6277,(,0,0,2
0:17.528,6310,t,0,0,1
0:17.614,6341,),0,0,2
0:17.808,6411,(,0,0,0
0:17.858,6429,p,0,0,0
0:17.917,6450,),0,0,0
0:17.961,6466,(,0,0,1
0:18.022,6488,N,0,0,0
0:18.053,6499,),0,0,1
0:18.167,6540,(,0,0,2
0:18.261,6574,t,0,0,1
0:18.344,6604,),0,0,2
0:18.542,6675,(,0,0,0
0:18.586,6691,p,0,0,0
0:18.642,6711,),0,0,0
0:18.697,6731,(,0,0,1
0:18.750,6750,N,0,0,0
0:18.783,6762,),0,0,1
0:18.789,6764,(,0,0,2
0:18.994,6838,t,0,0,4
0:19.114,6881,t,0,0,4
0:19.197,6911,),0,0,2
0:19.297,6947,(,0,0,0
0:19.364,6971,p,0,0,0
0:19.408,6987,),0,0,0
0:19.467,7008,(,0,0,1
0:19.533,7032,N,0,0,0
0:19.569,7045,),0,0,1
0:19.575,7047,(,0,0,2
0:19.783,7122,t,0,0,1
0:19.881,7157,),0,0,2
0:20.117,7242,(,0,0,0
0:20.178,7264,p,0,0,0
0:20.228,7282,),0,0,0
0:20.286,7303,(,0,0,1
0:20.350,7326,N,0,0,0
0:20.381,7337,),0,0,1
0:20.497,7379,(,0,0,2
0:20.589,7412,t,0,0,1
0:20.686,7447,),0,0,2
0:20.933,7536,(,0,0,0
0:20.989,7556,p,0,0,0
0:21.039,7574,),0,0,0
0:21.106,7598,(,0,0,1
0:21.167,7620,N,0,0,0
0:21.206,7634,),0,0,1
0:21.314,7673,(,0,0,2
0:21.403,7705,t,0,0,1
0:21.497,7739,),0,0,2
0:21.728,7822,(,0,0,0
0:21.797,7847,p,0,0,0
0:21.850,7866,),0,0,0
0:21.908,7887,(,0,0,1
0:21.969,7909,N,0,0,0
0:22.006,7922,),0,0,1
0:22.011,7924,(,0,0,2
0:22.228,8002,t,0,0,1
0:22.319,8035,),0,0,2
0:22.564,8123,(,0,0,0
0:22.617,8142,p,0,0,0
0:22.681,8165,),0,0,0
0:22.733,8184,(,0,0,1
0:22.803,8209,N,0,0,0
0:22.839,8222,),0,0,1
0:22.844,8224,(,0,0,2
0:23.042,8295,t,0,0,1
0:23.125,8325,),0,0,2
0:23.347,8405,(,0,0,0
0:23.408,8427,p,0,0,0
0:23.453,8443,),0,0,0
0:23.508,8463,(,0,0,1
0:23.569,8485,N,0,0,0
0:23.606,8498,),0,0,1
0:23.706,8534,(,0,0,2
0:23.803,8569,t,0,0,1
0:23.883,8598,),0,0,2
0:24.078,8668,(,0,0,0
0:24.131,8687,p,0,0,0
0:24.178,8704,),0,0,0
0:24.225,8721,(,0,0,1
0:24.283,8742,N,0,0,0
0:24.314,8753,),0,0,1
0:24.422,8792,(,0,0,2
0:24.514,8825,t,0,0,1
0:24.592,8853,),0,0,2
0:24.806,8930,(,0,0,0
0:24.858,8949,p,0,0,0
0:24.906,8966,),0,0,0
0:24.969,8989,(,0,0,1
0:25.031,9011,N,0,0,0
0:25.094,9034,),0,0,1
0:25.161,9058,(,0,0,2
0:25.272,9098,t,0,0,1
0:25.367,9132,),0,0,2
0:25.589,9212,(,0,0,0
0:25.644,9232,p,0,0,0
0:25.683,9246,),0,0,0
0:25.750,9270,(,0,0,1
0:25.811,9292,N,0,0,0
0:25.847,9305,),0,0,1
0:25.875,9315,(,0,0,2
0:26.064,9383,t,0,0,1
0:26.164,9419,),0,0,2
0:26.408,9507,(,0,0,0
0:26.453,9523,p,0,0,0
0:26.508,9543,),0,0,0
0:26.575,9567,(,0,0,1
0:26.639,9590,N,0,0,0
0:26.669,9601,),0,0,1
0:26.694,9610,(,0,0,2
0:26.894,9682,t,0,0,1
0:26.992,9717,),0,0,2
0:27.264,9815,(,0,0,0
0:27.325,9837,p,0,0,0
0:27.375,9855,),0,0,0
0:27.436,9877,(,0,0,1
0:27.500,9900,N,0,0,0
0:27.536,9913,),0,0,1
0:27.653,9955,(,0,0,2
0:27.744,9988,t,0,0,1
0:27.842,10023,),0,0,2
0:28.086,10111,(,0,0,0
0:28.147,10133,p,0,0,0
0:28.197,10151,),0,0,0
0:28.267,10176,(,0,0,1
0:28.322,10196,N,0,0,0
0:28.356,10208,),0,0,1
0:28.361,10210,(,0,0,2
0:28.556,10280,t,0,0,1
0:28.644,10312,),0,0,2
0:28.867,10392,(,0,0,0
0:28.917,10410,p,0,0,0
0:28.975,10431,),0,0,0
0:29.028,10450,(,0,0,1
0:29.092,10473,N,0,0,0
0:29.189,10508,),0,0,1
0:29.219,10519,(,0,0,2
0:29.319,10555,t,0,0,1
0:29.411,10588,),0,0,2
0:29.633,10668,(,0,0,0
0:29.692,10689,p,0,0,0
0:29.742,10707,),0,0,0
0:29.794,10726,(,0,0,1
0:29.864,10751,N,0,0,0
0:29.897,10763,),0,0,1
0:30.008,10803,(,0,0,2
0:30.097,10835,t,0,0,1
0:30.183,10866,),0,0,2
0:30.383,10938,(,0,0,0
0:30.436,10957,p,0,0,0
0:30.492,10977,),0,0,0
0:30.544,10996,(,0,0,1
0:30.606,11018,N,0,0,0
0:30.636,11029,),0,0,1
0:30.642,11031,(,0,0,2
0:30.844,11104,t,0,0,1
0:30.933,11136,),0,0,2
0:31.153,11215,(,0,0,0
0:31.189,11228,p,0,0,0
0:31.244,11248,),0,0,0
0:31.303,11269,(,0,0,1
0:31.358,11289,N,0,0,0
0:31.456,11324,),0,0,1
0:31.500,11340,(,0,0,2
0:31.597,11375,t,0,0,1
0:31.692,11409,),0,0,2
0:32.078,11548,(,0,0,1
0:32.142,11571,N,0,0,0
0:32.175,11583,),0,0,1
0:32.206,11594,(,0,0,2
0:32.397,11663,t,0,0,1
0:32.494,11698,),0,0,2
0:32.733,11784,(,0,0,0
0:32.775,11799,p,0,0,0
0:32.831,11819,),0,0,0
0:32.892,11841,(,0,0,1
0:32.956,11864,N,0,0,0
0:32.992,11877,),0,0,1
0:32.997,11879,(,0,0,2
0:33.217,11958,t,0,0,1
0:33.308,11991,),0,0,2
0:33.558,12081,(,0,0,0
0:33.617,12102,p,0,0,0
0:33.664,12119,),0,0,0
0:33.733,12144,(,0,0,1
0:33.797,12167,N,0,0,0
0:33.831,12179,),0,0,1
0:33.861,12190,(,0,0,2
0:34.056,12260,t,0,0,1
0:34.153,12295,),0,0,2
0:34.397,12383,(,0,0,0
0:34.461,12406,p,0,0,0
0:34.508,12423,),0,0,0
0:34.564,12443,(,0,0,1
0:34.622,12464,N,0,0,0
0:34.656,12476,),0,0,1
0:34.756,12512,(,0,0,2
0:34.853,12547,t,0,0,1
0:34.936,12577,),0,0,2
0:35.064,12623,(,0,0,1
0:35.186,12667,N,0,0,0
0:35.297,12707,),0,0,1
0:35.342,12723,(,0,0,2
0:35.425,12753,t,0,0,0
0:35.558,12801,),0,0,2
0:36.061,12982,(,0,0,1
0:36.122,13004,N,0,0,0
0:36.158,13017,),0,0,1
0:36.267,13056,(,0,0,2
0:36.350,13086,t,0,0,1
0:36.442,13119,),0,0,2
0:36.636,13189,(,0,0,0
0:36.683,13206,p,0,0,0
0:36.747,13229,),0,0,0
0:36.808,13251,(,0,0,1
0:36.869,13273,N,0,0,0
0:36.903,13285,),0,0,1
0:36.908,13287,(,0,0,2
0:37.117,13362,t,0,0,1
0:37.211,13396,),0,0,2
0:37.428,13474,(,0,0,0
0:37.478,13492,p,0,0,0
0:37.533,13512,),0,0,0
0:37.597,13535,(,0,0,1
0:37.653,13555,N,0,0,0
0:37.722,13580,),0,0,1
0:37.811,13612,(,0,0,2
0:37.908,13647,t,0,0,1
0:38.006,13682,),0,0,2
0:38.217,13758,(,0,0,0
0:38.275,13779,p,0,0,0
0:38.322,13796,),0,0,0
0:38.381,13817,(,0,0,1
0:38.439,13838,N,0,0,0
0:38.469,13849,),0,0,1
0:38.606,13898,(,0,0,2
0:38.689,13928,t,0,0,1
0:38.792,13965,),0,0,2
0:39.019,14047,(,0,0,0
0:39.069,14065,p,0,0,0
0:39.119,14083,),0,0,0
0:39.186,14107,(,0,0,1
0:39.247,14129,N,0,0,0
0:39.350,14166,),0,0,1
0:39.397,14183,(,0,0,2
0:39.503,14221,t,0,0,1
0:39.603,14257,),0,0,2
0:39.847,14345,(,0,0,0
0:39.900,14364,p,0,0,0
0:39.950,14382,),0,0,0
0:40.011,14404,(,0,0,1
0:40.072,14426,N,0,0,0
0:40.172,14462,),0,0,1
0:40.236,14485,(,0,0,2
0:40.322,14516,t,0,0,1
0:40.422,14552,),0,0,2
0:40.650,14634,(,0,0,0
0:40.711,14656,p,0,0,0
0:40.756,14672,),0,0,0
0:40.811,14692,(,0,0,1
0:40.872,14714,N,0,0,0
0:40.900,14724,),0,0,1
0:41.019,14767,(,0,0,2
0:41.111,14800,t,0,0,1
0:41.197,14831,),0,0,2
0:41.431,14915,(,0,0,0
0:41.481,14933,p,0,0,0
0:41.528,14950,),0,0,0
0:41.569,14965,(,0,0,1
0:41.644,14992,N,0,0,0
0:41.733,15024,),0,0,1
0:41.783,15042,(,0,0,2
0:41.864,15071,t,0,0,1
0:41.947,15101,),0,0,2
0:42.172,15182,(,0,0,0
0:42.236,15205,p,0,0,0
0:42.278,15220,),0,0,0
0:42.325,15237,(,0,0,1
0:42.394,15262,N,0,0,0
0:42.431,15275,),0,0,1
0:42.503,15301,(,0,0,2
0:42.611,15340,t,0,0,1
0:42.700,15372,),0,0,2
0:42.906,15446,(,0,0,0
0:42.967,15468,p,0,0,0
0:43.008,15483,),0,0,0
0:43.072,15506,(,0,0,1
0:43.131,15527,N,0,0,0
0:43.161,15538,),0,0,1
0:43.167,15540,(,0,0,2
0:43.367,15612,t,0,0,1
0:43.453,15643,),0,0,2
0:43.700,15732,(,0,0,0
0:43.758,15753,p,0,0,0
0:43.814,15773,),0,0,0
0:43.883,15798,(,0,0,1
0:43.947,15821,N,0,0,0
0:44.014,15845,),0,0,1
0:44.103,15877,(,0,0,2
0:44.211,15916,t,0,0,1
0:44.308,15951,),0,0,2
0:44.567,16044,(,0,0,0
0:44.619,16063,p,0,0,0
0:44.675,16083,),0,0,0
0:44.742,16107,(,0,0,1
0:44.806,16130,N,0,0,0
0:44.872,16154,),0,0,1
0:44.958,16185,(,0,0,2
0:45.081,16229,t,0,0,1
0:45.183,16266,),0,0,2
0:45.592,16413,(,0,0,1
0:45.647,16433,N,0,0,0
0:45.683,16446,),0,0,1
0:45.689,16448,(,0,0,2
0:45.903,16525,t,0,0,1
0:46.000,16560,),0,0,2
0:46.239,16646,(,0,0,0
0:46.283,16662,p,0,0,0
0:46.350,16686,),0,0,0
0:46.383,16698,(,0,0,1
0:46.475,16731,N,0,0,0
0:46.578,16768,),0,0,1
0:46.619,16783,(,0,0,2
0:46.719,16819,t,0,0,1
0:46.808,16851,),0,0,2
0:47.189,16988,(,0,0,1
0:47.244,17008,N,0,0,0
0:47.278,17020,),0,0,1
0:47.364,17051,(,0,0,2
0:47.478,17092,t,0,0,1
0:47.564,17123,),0,0,2
0:47.781,17201,(,0,0,0
0:47.825,17217,p,0,0,0
0:47.869,17233,),0,0,0
0:47.925,17253,(,0,0,1
0:47.994,17278,N,0,0,0
0:48.089,17312,),0,0,1
0:48.142,17331,(,0,0,2
0:48.225,17361,t,0,0,1
0:48.311,17392,),0,0,2
0:48.514,17465,(,0,0,0
0:48.575,17487,p,0,0,0
0:48.625,17505,),0,0,0
0:48.669,17521,(,0,0,1
0:48.722,17540,N,0,0,0
0:48.772,17558,),0,0,1
0:48.853,17587,(,0,0,2
0:48.950,17622,t,0,0,1
0:49.042,17655,),0,0,2
0:49.414,17789,(,0,0,1
0:49.472,17810,N,0,0,0
0:49.503,17821,),0,0,1
0:49.619,17863,(,0,0,2
0:49.697,17891,t,0,0,1
0:49.786,17923,),0,0,2
0:50.006,18002,(,0,0,0
0:50.058,18021,p,0,0,0
0:50.114,18041,),0,0,0
0:50.172,18062,(,0,0,1
0:50.236,18085,N,0,0,0
0:50.339,18122,),0,0,1
0:50.392,18141,(,0,0,2
0:50.486,18175,t,0,0,1
0:50.583,18210,),0,0,2
0:50.833,18300,(,0,0,0
0:50.889,18320,p,0,0,0
0:50.939,18338,),0,0,0
0:51.017,18366,(,0,0,1
0:51.081,18389,N,0,0,0
0:51.117,18402,),0,0,1
0:51.156,18416,(,0,0,2
0:51.353,18487,t,0,0,1
0:51.450,18522,),0,0,2
0:51.681,18605,(,0,0,0
0:51.742,18627,p,0,0,0
0:51.789,18644,),0,0,0
0:51.869,18673,(,0,0,1
0:51.928,18694,N,0,0,0
0:51.964,18707,),0,0,1
0:51.969,18709,(,0,0,2
0:52.192,18789,t,0,0,1
0:52.289,18824,),0,0,2
0:52.525,18909,(,0,0,0
0:52.575,18927,p,0,0,0
0:52.622,18944,),0,0,0
0:52.689,18968,(,0,0,1
0:52.744,18988,N,0,0,0
0:52.778,19000,),0,0,1
0:52.869,19033,(,0,0,2
0:52.983,19074,t,0,0,1
0:53.075,19107,),0,0,2
0:53.308,19191,(,0,0,0
0:53.358,19209,p,0,0,0
0:53.408,19227,),0,0,0
0:53.442,19239,(,0,0,1
0:53.528,19270,N,0,0,0
0:53.564,19283,),0,0,1
0:53.681,19325,(,0,0,2
0:53.764,19355,t,0,0,1
0:53.850,19386,),0,0,2
0:54.069,19465,(,0,0,0
0:54.108,19479,p,0,0,0
0:54.161,19498,),0,0,0
0:54.203,19513,(,0,0,1
0:54.283,19542,N,0,0,0
0:54.314,19553,),0,0,1
0:54.436,19597,(,0,0,2
0:54.519,19627,t,0,0,1
0:54.603,19657,),0,0,2
0:54.850,19746,(,0,0,0
0:54.889,19760,p,0,0,0
0:54.950,19782,),0,0,0
0:54.983,19794,(,0,0,1
0:55.072,19826,N,0,0,0
0:55.172,19862,),0,0,1
0:55.217,19878,(,0,0,2
0:55.319,19915,t,0,0,1
0:55.417,19950,),0,0,2
0:55.664,20039,(,0,0,0
0:55.706,20054,p,0,0,0
0:55.761,20074,),0,0,0
0:55.792,20085,(,0,0,1
0:55.881,20117,N,0,0,0
0:55.981,20153,),0,0,1
0:56.025,20169,(,0,0,2
0:56.125,20205,t,0,0,1
0:56.222,20240,),0,0,2
0:56.461,20326,(,0,0,0
0:56.514,20345,p,0,0,0
0:56.569,20365,),0,0,0
0:56.628,20386,(,0,0,1
0:56.689,20408,N,0,0,0
0:56.722,20420,),0,0,1
0:56.839,20462,(,0,0,2
0:56.933,20496,t,0,0,1
0:57.028,20530,),0,0,2
0:57.269,20617,(,0,0,0
0:57.331,20639,p,0,0,0
0:57.375,20655,),0,0,0
0:57.450,20682,(,0,0,1
0:57.517,20706,N,0,0,0
0:57.550,20718,),0,0,1
0:57.556,20720,(,0,0,2
0:57.781,20801,t,0,0,1
0:57.881,20837,),0,0,2
0:58.119,20923,(,0,0,0
0:58.181,20945,p,0,0,0
0:58.239,20966,),0,0,0
0:58.303,20989,(,0,0,1
0:58.367,21012,N,0,0,0
0:58.400,21024,),0,0,1
0:58.533,21072,(,0,0,2
0:58.614,21101,t,0,0,1
0:58.700,21132,),0,0,2
0:58.911,21208,(,0,0,0
0:58.961,21226,p,0,0,0
0:59.011,21244,),0,0,0
0:59.075,21267,(,0,0,1
0:59.133,21288,N,0,0,0
0:59.172,21302,),0,0,1
0:59.275,21339,(,0,0,2
0:59.367,21372,t,0,0,1
0:59.447,21401,),0,0,2
0:59.644,21472,(,0,0,0
0:59.692,21489,p,0,0,0
0:59.739,21506,),0,0,0
0:59.792,21525,(,0,0,1
0:59.856,21548,N,0,0,0
0:59.919,21571,),0,0,1
1:00.006,21602,(,0,0,2
1:00.081,21629,t,0,0,1
1:00.169,21661,),0,0,2
1:00.356,21728,(,0,0,0
1:00.417,21750,p,0,0,0
1:00.469,21769,),0,0,0
1:00.519,21787,(,0,0,1
1:00.581,21809,N,0,0,0
1:00.611,21820,),0,0,1
1:00.736,21865,(,0,0,2
1:00.819,21895,t,0,0,1
1:00.903,21925,),0,0,2
1:01.106,21998,(,0,0,0
1:01.153,22015,p,0,0,0
1:01.206,22034,),0,0,0
1:01.267,22056,(,0,0,1
1:01.325,22077,N,0,0,0
1:01.364,22091,),0,0,1
1:01.369,22093,(,0,0,2
1:01.575,22167,t,0,0,1
1:01.667,22200,),0,0,2
1:01.908,22287,(,0,0,0
1:01.953,22303,p,0,0,0
1:02.022,22328,),0,0,0
1:02.067,22344,(,0,0,1
1:02.144,22372,N,0,0,0
1:02.181,22385,),0,0,1
1:02.217,22398,(,0,0,2
1:02.411,22468,t,0,0,1
1:02.517,22506,),0,0,2
1:02.769,22597,(,0,0,0
1:02.811,22612,p,0,0,0
1:02.867,22632,),0,0,0
1:02.928,22654,(,0,0,1
1:02.994,22678,N,0,0,0
1:03.033,22692,),0,0,1
1:03.056,22700,(,0,0,2
1:03.253,22771,t,0,0,1
1:03.356,22808,),0,0,2
1:03.592,22893,(,0,0,0
1:03.644,22912,p,0,0,0
1:03.697,22931,),0,0,0
1:03.761,22954,(,0,0,1
1:03.825,22977,N,0,0,0
1:03.931,23015,),0,0,1
1:03.986,23035,(,0,0,2
1:04.075,23067,t,0,0,1
1:04.164,23099,),0,0,2
1:04.369,23173,(,0,0,0
1:04.442,23199,p,0,0,0
1:04.489,23216,),0,0,0
1:04.544,23236,(,0,0,1
1:04.608,23259,N,0,0,0
1:04.642,23271,),0,0,1
1:04.667,23280,(,0,0,2
1:04.850,23346,t,0,0,1
1:04.942,23379,),0,0,2
1:05.144,23452,(,0,0,0
1:05.197,23471,p,0,0,0
1:05.247,23489,),0,0,0
1:05.303,23509,(,0,0,1
1:05.369,23533,N,0,0,0
1:05.403,23545,),0,0,1
1:05.436,23557,(,0,0,2
1:05.600,23616,t,0,0,1
1:05.686,23647,),0,0,2
1:05.875,23715,(,0,0,0
1:05.914,23729,p,0,0,0
1:05.969,23749,),0,0,0
1:06.031,23771,(,0,0,1
1:06.089,23792,N,0,0,0
1:06.181,23825,),0,0,1
1:06.208,23835,(,0,0,2
1:06.311,23872,t,0,0,1
1:06.397,23903,),0,0,2
1:06.581,23969,(,0,0,0
1:06.625,23985,p,0,0,0
1:06.675,24003,),0,0,0
1:06.728,24022,(,0,0,1
1:06.789,24044,N,0,0,0
1:06.822,24056,),0,0,1
1:06.828,24058,(,0,0,2
1:07.031,24131,t,0,0,1
1:07.122,24164,),0,0,2
1:07.303,24229,(,0,0,0
1:07.361,24250,p,0,0,0
1:07.411,24268,),0,0,0
1:07.467,24288,(,0,0,1
1:07.533,24312,N,0,0,0
1:07.567,24324,),0,0,1
1:07.597,24335,(,0,0,2
1:07.789,24404,t,0,0,1
1:07.881,24437,),0,0,2
1:08.081,24509,(,0,0,0
1:08.133,24528,p,0,0,0
1:08.192,24549,),0,0,0
1:08.244,24568,(,0,0,1
1:08.308,24591,N,0,0,0
1:08.342,24603,),0,0,1
1:08.347,24605,(,0,0,2
1:08.569,24685,t,0,0,1
1:08.669,24721,),0,0,2
1:08.908,24807,(,0,0,0
1:08.956,24824,p,0,0,0
1:09.019,24847,),0,0,0
1:09.075,24867,(,0,0,1
1:09.158,24897,N,0,0,0
1:09.194,24910,),0,0,1
1:09.200,24912,(,0,0,2
1:09.433,24996,t,0,0,1
1:09.550,25038,),0,0,2
1:10.000,25200,(,0,0,0
1:10.042,25215,p,0,0,0
1:10.064,25223,),0,0,0
1:10.097,25235,(,0,0,1
1:10.167,25260,N,0,0,0
1:10.200,25272,),0,0,1
1:10.236,25285,(,0,0,2
1:10.294,25306,t,0,0,4
1:10.519,25387,t,0,0,4
1:10.547,25397,),0,0,2
1:10.772,25478,(,0,0,0
1:10.797,25487,p,0,0,0
1:10.831,25499,),0,0,0
1:10.872,25514,(,0,0,1
1:10.953,25543,N,0,0,0
1:10.983,25554,),0,0,1
1:11.103,25597,(,0,0,2
1:11.169,25621,t,0,0,4
1:11.289,25664,t,0,0,4
1:11.317,25674,),0,0,2
1:11.475,25731,(,0,0,0
1:11.511,25744,p,0,0,0
1:11.578,25768,),0,0,0
1:11.628,25786,(,0,0,1
1:11.686,25807,N,0,0,0
1:11.719,25819,),0,0,1
1:11.864,25871,(,0,0,2
1:11.908,25887,t,0,0,4
1:12.033,25932,t,0,0,4
1:12.075,25947,),0,0,2
1:12.225,26001,(,0,0,0
1:12.267,26016,p,0,0,0
1:12.331,26039,),0,0,0
1:12.381,26057,(,0,0,1
1:12.444,26080,N,0,0,0
1:12.475,26091,),0,0,1
1:12.597,26135,(,0,0,2
1:12.675,26163,t,0,0,1
1:12.756,26192,),0,0,2
1:12.994,26278,(,0,0,0
1:13.019,26287,p,0,0,0
1:13.067,26304,),0,0,0
1:13.106,26318,(,0,0,1
1:13.183,26346,N,0,0,0
1:13.214,26357,),0,0,1
1:13.219,26359,(,0,0,2
1:13.425,26433,t,0,0,1
1:13.517,26466,),0,0,2
1:13.750,26550,(,0,0,0
1:13.772,26558,p,0,0,0
1:13.814,26573,),0,0,0
1:13.864,26591,(,0,0,1
1:13.936,26617,N,0,0,0
1:14.003,26641,),0,0,1
1:14.111,26680,(,0,0,2
1:14.197,26711,t,0,0,4
1:14.339,26762,t,0,0,4
1:14.369,26773,),0,0,2
1:14.481,26813,(,0,0,0
1:14.544,26836,p,0,0,0
1:14.594,26854,),0,0,0
1:14.650,26874,(,0,0,1
1:14.722,26900,N,0,0,0
1:14.786,26923,),0,0,1
1:14.911,26968,(,0,0,2
1:15.000,27000,t,0,0,1
1:15.094,27034,),0,0,2
1:15.303,27109,(,0,0,0
1:15.356,27128,p,0,0,0
1:15.406,27146,),0,0,0
1:15.469,27169,(,0,0,1
1:15.531,27191,N,0,0,0
1:15.642,27231,),0,0,1
1:15.722,27260,(,0,0,2
1:15.803,27289,t,0,0,1
1:15.911,27328,),0,0,2
1:16.136,27409,(,0,0,0
1:16.194,27430,p,0,0,0
1:16.278,27460,),0,0,0
1:16.308,27471,(,0,0,1
1:16.375,27495,N,0,0,0
1:16.481,27533,),0,0,1
1:16.556,27560,(,0,0,2
1:16.631,27587,t,0,0,4
1:16.800,27648,t,0,0,4
1:16.886,27679,),0,0,2
1:17.019,27727,(,0,0,1
1:17.161,27778,N,0,0,0
1:17.300,27828,),0,0,1
1:17.308,27831,(,0,0,2
1:17.364,27851,t,0,0,4
1:17.539,27914,t,0,0,4
1:17.581,27929,),0,0,2
1:17.767,27996,(,0,0,1
1:17.872,28034,N,0,0,0
1:17.986,28075,),0,0,1
1:18.064,28103,(,0,0,2
1:18.092,28113,t,0,0,1
1:18.147,28133,),0,0,2
1:18.164,28139,(,0,0,0
1:18.189,28148,p,0,0,0
1:18.203,28153,),0,0,0
1:18.261,28174,(,0,0,1
1:18.308,28191,N,0,0,0
1:18.425,28233,),0,0,1
1:18.517,28266,(,0,0,2
1:18.547,28277,t,0,0,5
1:18.650,28314,t,0,0,5
1:18.672,28322,),0,0,2
1:19.133,28488,(,0,0,0
1:19.175,28503,p,0,0,0
1:19.211,28516,),0,0,0
1:19.286,28543,(,0,0,1
1:19.369,28573,N,0,0,0
1:19.489,28616,),0,0,1
1:19.572,28646,(,0,0,2
1:19.608,28659,t,0,0,1
1:19.717,28698,),0,0,2
1:19.903,28765,(,0,0,0
1:19.925,28773,p,0,0,0
1:19.942,28779,),0,0,0
1:20.089,28832,(,0,0,1
1:20.158,28857,N,0,0,0
1:20.314,28913,),0,0,1
1:20.372,28934,(,0,0,2
1:20.408,28947,t,0,0,4
1:20.539,28994,t,0,0,4
1:20.564,29003,),0,0,2
1:20.575,29007,(,0,0,0
1:20.600,29016,p,0,0,0
1:20.656,29036,),0,0,0
1:20.686,29047,(,0,0,1
1:20.769,29077,N,0,0,0
1:20.939,29138,),0,0,1
1:21.006,29162,(,0,0,2
1:21.042,29175,t,0,0,0
1:21.169,29221,),0,0,2
1:21.489,29336,(,0,0,0
1:21.511,29344,p,0,0,0
1:21.569,29365,),0,0,0
1:21.678,29404,(,0,0,1
1:21.767,29436,N,0,0,0
1:21.886,29479,),0,0,1
1:21.933,29496,(,0,0,2
1:22.019,29527,t,0,0,4
1:22.203,29593,t,0,0,4
1:22.258,29613,),0,0,2
1:22.356,29648,(,0,0,0
1:22.383,29658,p,0,0,0
1:22.433,29676,),0,0,0
1:22.481,29693,(,0,0,1
1:22.539,29714,N,0,0,0
1:22.619,29743,),0,0,1
1:22.661,29758,(,0,0,2
1:22.678,29764,t,0,0,0
1:22.783,29802,),0,0,2
1:22.892,29841,(,0,0,1
1:23.019,29887,N,0,0,0
1:23.064,29903,),0,0,1
1:23.122,29924,(,0,0,2
1:23.236,29965,t,0,0,0
1:23.369,30013,),0,0,2
1:23.778,30160,(,0,0,0
1:23.842,30183,p,0,0,0
1:23.872,30194,),0,0,0
1:23.908,30207,(,0,0,1
1:23.983,30234,N,0,0,0
1:24.014,30245,),0,0,1
1:24.139,30290,(,0,0,2
1:24.206,30314,t,0,0,1
1:24.289,30344,),0,0,2
1:24.608,30459,(,0,0,1
1:24.661,30478,N,0,0,0
1:24.694,30490,),0,0,1
1:24.803,30529,(,0,0,2
1:24.875,30555,t,0,0,1
1:24.978,30592,),0,0,2
1:25.075,30627,(,0,0,1
1:25.119,30643,N,0,0,0
1:25.192,30669,),0,0,1
1:25.308,30711,(,0,0,2
1:25.378,30736,t,0,0,0
1:25.467,30768,),0,0,2
1:26.028,30970,(,0,0,1
1:26.117,31002,N,0,0,0
1:26.156,31016,),0,0,1
1:26.308,31071,(,0,0,2
1:26.381,31097,t,0,0,4
1:26.522,31148,t,0,0,4
1:26.558,31161,),0,0,2
1:26.661,31198,(,0,0,0
1:26.725,31221,p,0,0,0
1:26.808,31251,),0,0,0
1:26.858,31269,(,0,0,1
1:26.919,31291,N,0,0,0
1:26.953,31303,),0,0,1
1:26.956,31304,t,0,0,3
1:27.042,31335,),0,0,2
1:27.206,31394,(,0,0,0
1:27.300,31428,p,0,0,0
1:27.347,31445,),0,0,0
1:27.386,31459,(,0,0,1
1:27.456,31484,N,0,0,0
1:27.528,31510,),0,0,1
1:27.661,31558,(,0,0,2
1:27.742,31587,t,0,0,0
1:27.828,31618,),0,0,2
1:28.233,31764,(,0,0,0
1:28.297,31787,p,0,0,0
1:28.333,31800,),0,0,0
1:28.381,31817,(,0,0,1
1:28.453,31843,N,0,0,0
1:28.522,31868,),0,0,1
1:28.617,31902,(,0,0,2
1:28.683,31926,t,0,0,1
1:28.778,31960,),0,0,2
1:28.919,32011,(,0,0,0
1:28.992,32037,p,0,0,0
1:29.061,32062,),0,0,0
1:29.092,32073,(,0,0,1
1:29.147,32093,N,0,0,0
1:29.239,32126,),0,0,1
1:29.278,32140,(,0,0,2
1:29.364,32171,t,0,0,4
1:29.511,32224,t,0,0,4
1:29.544,32236,),0,0,2
1:29.625,32265,(,0,0,0
1:29.656,32276,p,0,0,0
1:29.719,32299,),0,0,0
1:29.750,32310,(,0,0,1
1:29.811,32332,N,0,0,0
1:29.906,32366,),0,0,1
1:29.997,32399,(,0,0,2
1:30.036,32413,t,0,0,1
1:30.119,32443,),0,0,2
1:30.242,32487,(,0,0,0
1:30.297,32507,p,0,0,0
1:30.358,32529,),0,0,0
1:30.406,32546,(,0,0,1
1:30.464,32567,N,0,0,0
1:30.494,32578,),0,0,1
1:30.639,32630,(,0,0,2
1:30.694,32650,t,0,0,1
1:30.786,32683,),0,0,2
1:30.933,32736,(,0,0,0
1:30.981,32753,p,0,0,0
1:31.039,32774,),0,0,0
1:31.081,32789,(,0,0,1
1:31.147,32813,N,0,0,0
1:31.242,32847,),0,0,1
1:31.272,32858,(,0,0,2
1:31.381,32897,t,0,0,1
1:31.478,32932,),0,0,2
1:31.639,32990,(,0,0,0
1:31.672,33002,p,0,0,0
1:31.747,33029,),0,0,0
1:31.767,33036,(,0,0,1
1:31.856,33068,N,0,0,0
1:31.989,33116,),0,0,1
1:31.994,33118,(,0,0,2
1:32.083,33150,t,0,0,4
1:32.192,33189,t,0,0,4
1:32.242,33207,),0,0,2
1:32.333,33240,(,0,0,0
1:32.386,33259,p,0,0,0
1:32.425,33273,),0,0,0
1:32.511,33304,(,0,0,1
1:32.575,33327,N,0,0,0
1:32.608,33339,),0,0,1
1:32.764,33395,(,0,0,2
1:32.817,33414,t,0,0,4
1:32.967,33468,t,0,0,4
1:33.014,33485,),0,0,2
1:33.067,33504,(,0,0,1
1:33.217,33558,N,0,0,0
1:33.325,33597,),0,0,1
1:33.328,33598,t,0,0,2
1:33.381,33617,),0,0,2
1:33.383,33618,(,0,0,1
1:33.561,33682,N,0,0,0
1:33.667,33720,),0,0,1
1:33.700,33732,(,0,0,2
1:33.831,33779,t,0,0,1
1:33.856,33788,),0,0,2
1:34.258,33933,(,0,0,1
1:34.322,33956,N,0,0,0
1:34.358,33969,),0,0,1
1:34.506,34022,(,0,0,2
1:34.572,34046,t,0,0,4
1:34.681,34085,t,0,0,4
1:34.769,34117,),0,0,2
1:34.842,34143,(,0,0,0
1:34.894,34162,p,0,0,0
1:34.950,34182,),0,0,0
1:34.972,34190,(,0,0,1
1:35.050,34218,N,0,0,0
1:35.081,34229,),0,0,1
1:35.303,34309,(,0,0,2
1:35.353,34327,t,0,0,0
1:35.392,34341,),0,0,2
1:35.517,34386,(,0,0,0
1:35.578,34408,p,0,0,0
1:35.661,34438,),0,0,0
1:35.717,34458,(,0,0,1
1:35.772,34478,N,0,0,0
1:35.808,34491,),0,0,1
1:35.931,34535,(,0,0,2
1:35.994,34558,t,0,0,4
1:36.103,34597,t,0,0,4
1:36.178,34624,),0,0,2
1:36.300,34668,(,0,0,0
1:36.342,34683,p,0,0,0
1:36.394,34702,),0,0,0
1:36.439,34718,(,0,0,1
1:36.503,34741,N,0,0,0
1:36.592,34773,),0,0,1
1:36.636,34789,(,0,0,2
1:36.728,34822,t,0,0,4
1:36.842,34863,t,0,0,4
1:36.894,34882,),0,0,2
1:37.058,34941,(,0,0,0
1:37.108,34959,p,0,0,0
1:37.164,34979,),0,0,0
1:37.211,34996,(,0,0,1
1:37.281,35021,N,0,0,0
1:37.311,35032,),0,0,1
1:37.456,35084,(,0,0,2
1:37.522,35108,t,0,0,1
1:37.611,35140,),0,0,2
1:37.842,35223,(,0,0,0
1:37.900,35244,p,0,0,0
1:37.953,35263,),0,0,0
1:38.008,35283,(,0,0,1
1:38.067,35304,N,0,0,0
1:38.097,35315,),0,0,1
1:38.211,35356,(,0,0,2
1:38.300,35388,t,0,0,4
1:38.406,35426,t,0,0,4
1:38.467,35448,),0,0,2
1:38.631,35507,(,0,0,0
1:38.692,35529,p,0,0,0
1:38.756,35552,),0,0,0
1:38.803,35569,(,0,0,1
1:38.872,35594,N,0,0,0
1:38.903,35605,),0,0,1
1:39.039,35654,(,0,0,2
1:39.111,35680,t,0,0,4
1:39.214,35717,t,0,0,4
1:39.267,35736,),0,0,2
1:39.419,35791,(,0,0,0
1:39.467,35808,p,0,0,0
1:39.522,35828,),0,0,0
1:39.561,35842,(,0,0,1
1:39.656,35876,N,0,0,0
1:39.689,35888,),0,0,1
1:39.694,35890,(,0,0,2
1:39.903,35965,t,0,0,4
1:40.008,36003,t,0,0,4
1:40.117,36042,),0,0,2
1:40.228,36082,(,0,0,0
1:40.269,36097,p,0,0,0
1:40.336,36121,),0,0,0
1:40.406,36146,(,0,0,1
1:40.472,36170,N,0,0,0
1:40.519,36187,),0,0,1
1:40.525,36189,(,0,0,2
1:40.703,36253,t,0,0,4
1:40.811,36292,t,0,0,4
1:40.847,36305,),0,0,2
1:41.033,36372,(,0,0,0
1:41.075,36387,p,0,0,0
1:41.139,36410,),0,0,0
1:41.186,36427,(,0,0,1
1:41.253,36451,N,0,0,0
1:41.353,36487,),0,0,1
1:41.378,36496,(,0,0,2
1:41.469,36529,t,0,0,4
1:41.572,36566,t,0,0,4
1:41.642,36591,),0,0,2
1:41.781,36641,(,0,0,0
1:41.825,36657,p,0,0,0
1:41.883,36678,),0,0,0
1:41.928,36694,(,0,0,1
1:41.986,36715,N,0,0,0
1:42.019,36727,),0,0,1
1:42.094,36754,(,0,0,2
1:42.200,36792,t,0,0,1
1:42.286,36823,),0,0,2
1:42.503,36901,(,0,0,0
1:42.550,36918,p,0,0,0
1:42.597,36935,),0,0,0
1:42.647,36953,(,0,0,1
1:42.703,36973,N,0,0,0
1:42.733,36984,),0,0,1
1:42.881,37037,(,0,0,2
1:42.936,37057,t,0,0,4
1:43.036,37093,t,0,0,4
1:43.089,37112,),0,0,2
1:43.225,37161,(,0,0,0
1:43.264,37175,p,0,0,0
1:43.322,37196,),0,0,0
1:43.372,37214,(,0,0,1
1:43.436,37237,N,0,0,0
1:43.467,37248,),0,0,1
1:43.614,37301,(,0,0,2
1:43.675,37323,t,0,0,4
1:43.786,37363,t,0,0,4
1:43.825,37377,),0,0,2
1:43.997,37439,(,0,0,0
1:44.047,37457,p,0,0,0
1:44.103,37477,),0,0,0
1:44.164,37499,(,0,0,1
1:44.228,37522,N,0,0,0
1:44.261,37534,),0,0,1
1:44.289,37544,(,0,0,2
1:44.486,37615,t,0,0,1
1:44.586,37651,),0,0,2
1:44.800,37728,(,0,0,0
1:44.867,37752,p,0,0,0
1:44.919,37771,),0,0,0
1:44.978,37792,(,0,0,1
1:45.033,37812,N,0,0,0
1:45.067,37824,),0,0,1
1:45.100,37836,(,0,0,2
1:45.281,37901,t,0,0,1
1:45.364,37931,),0,0,2
1:45.572,38006,(,0,0,0
1:45.628,38026,p,0,0,0
1:45.686,38047,),0,0,0
1:45.747,38069,(,0,0,1
1:45.817,38094,N,0,0,0
1:45.847,38105,),0,0,1
1:45.853,38107,(,0,0,2
1:46.053,38179,t,0,0,1
1:46.142,38211,),0,0,2
1:46.331,38279,(,0,0,0
1:46.381,38297,p,0,0,0
1:46.436,38317,),0,0,0
1:46.494,38338,(,0,0,1
1:46.553,38359,N,0,0,0
1:46.589,38372,),0,0,1
1:46.594,38374,(,0,0,2
1:46.789,38444,t,0,0,1
1:46.878,38476,),0,0,2
1:47.075,38547,(,0,0,0
1:47.119,38563,p,0,0,0
1:47.178,38584,),0,0,0
1:47.231,38603,(,0,0,1
1:47.297,38627,N,0,0,0
1:47.333,38640,),0,0,1
1:47.461,38686,(,0,0,2
1:47.531,38711,t,0,0,1
1:47.611,38740,),0,0,2
1:47.778,38800,(,0,0,0
1:47.833,38820,p,0,0,0
1:47.878,38836,),0,0,0
1:47.936,38857,(,0,0,1
1:47.986,38875,N,0,0,0
1:48.017,38886,),0,0,1
1:48.136,38929,(,0,0,2
1:48.214,38957,t,0,0,1
1:48.294,38986,),0,0,2
1:48.475,39051,(,0,0,0
1:48.517,39066,p,0,0,0
1:48.567,39084,),0,0,0
1:48.625,39105,(,0,0,1
1:48.681,39125,N,0,0,0
1:48.711,39136,),0,0,1
1:48.822,39176,(,0,0,2
1:48.894,39202,t,0,0,1
1:48.986,39235,),0,0,2
1:49.175,39303,(,0,0,0
1:49.231,39323,p,0,0,0
1:49.278,39340,),0,0,0
1:49.336,39361,(,0,0,1
1:49.392,39381,N,0,0,0
1:49.425,39393,),0,0,1
1:49.542,39435,(,0,0,2
1:49.617,39462,t,0,0,1
1:49.714,39497,),0,0,2
1:49.911,39568,(,0,0,0
1:49.975,39591,p,0,0,0
1:50.022,39608,),0,0,0
1:50.078,39628,(,0,0,1
1:50.139,39650,N,0,0,0
1:50.172,39662,),0,0,1
1:50.281,39701,(,0,0,2
1:50.369,39733,t,0,0,1
1:50.450,39762,),0,0,2
1:50.686,39847,(,0,0,0
1:50.744,39868,p,0,0,0
1:50.803,39889,),0,0,0
1:50.872,39914,(,0,0,1
1:50.933,39936,N,0,0,0
1:51.039,39974,),0,0,1
1:51.064,39983,(,0,0,2
1:51.183,40026,t,0,0,1
1:51.275,40059,),0,0,2
1:51.528,40150,(,0,0,0
1:51.606,40178,p,0,0,0
1:51.650,40194,),0,0,0
1:51.725,40221,(,0,0,1
1:51.792,40245,N,0,0,0
1:51.828,40258,),0,0,1
1:51.864,40271,(,0,0,2
1:51.919,40291,t,0,0,1
1:52.047,40337,),0,0,2
1:52.158,40377,(,0,0,1
1:52.278,40420,N,0,0,0
1:52.328,40438,),0,0,1
1:52.414,40469,(,0,0,2
1:52.517,40506,t,0,0,0
1:52.658,40557,),0,0,2
1:53.317,40794,(,0,0,1
1:53.369,40813,N,0,0,0
1:53.458,40845,),0,0,1
1:53.511,40864,(,0,0,2
1:53.594,40894,t,0,0,4
1:53.706,40934,t,0,0,4
1:53.772,40958,),0,0,2
1:53.900,41004,(,0,0,0
1:53.956,41024,p,0,0,0
1:54.011,41044,),0,0,0
1:54.064,41063,(,0,0,1
1:54.119,41083,N,0,0,0
1:54.153,41095,),0,0,1
1:54.242,41127,(,0,0,2
1:54.356,41168,t,0,0,1
1:54.442,41199,),0,0,2
1:54.681,41285,(,0,0,0
1:54.731,41303,p,0,0,0
1:54.775,41319,),0,0,0
1:54.833,41340,(,0,0,1
1:54.894,41362,N,0,0,0
1:54.992,41397,),0,0,1
1:55.039,41414,(,0,0,2
1:55.128,41446,t,0,0,1
1:55.222,41480,),0,0,2
1:55.461,41566,(,0,0,0
1:55.519,41587,p,0,0,0
1:55.564,41603,),0,0,0
1:55.619,41623,(,0,0,1
1:55.678,41644,N,0,0,0
1:55.708,41655,),0,0,1
1:55.808,41691,(,0,0,2
1:55.900,41724,t,0,0,1
1:55.992,41757,),0,0,2
1:56.242,41847,(,0,0,0
1:56.297,41867,p,0,0,0
1:56.342,41883,),0,0,0
1:56.400,41904,(,0,0,1
1:56.464,41927,N,0,0,0
1:56.492,41937,),0,0,1
1:56.639,41990,(,0,0,2
1:56.711,42016,t,0,0,1
1:56.806,42050,),0,0,2
1:57.089,42152,(,0,0,0
1:57.139,42170,p,0,0,0
1:57.203,42193,),0,0,0
1:57.256,42212,(,0,0,1
1:57.314,42233,N,0,0,0
1:57.414,42269,),0,0,1
1:57.469,42289,(,0,0,2
1:57.558,42321,t,0,0,1
1:57.653,42355,),0,0,2
1:57.672,42362,(,0,0,1
1:57.700,42372,(,0,0,0
1:57.736,42385,p,0,0,0
1:57.786,42403,),0,0,0
1:57.819,42415,N,0,0,0
1:57.819,42415,(,0,0,1
1:57.867,42432,),0,0,1
1:58.078,42508,N,0,0,0
1:58.197,42551,),0,0,1
1:58.203,42553,(,0,0,2
1:58.422,42632,t,0,0,1
1:58.456,42644,),0,0,2
1:59.014,42845,(,0,0,1
1:59.069,42865,N,0,0,0
1:59.103,42877,),0,0,1
1:59.225,42921,(,0,0,2
1:59.297,42947,t,0,0,4
1:59.394,42982,t,0,0,4
1:59.469,43009,),0,0,2
1:59.778,43120,(,0,0,1
1:59.828,43138,N,0,0,0
1:59.861,43150,),0,0,1
1:59.958,43185,(,0,0,2
2:00.044,43216,t,0,0,1
2:00.128,43246,),0,0,2
2:00.361,43330,(,0,0,0
2:00.406,43346,p,0,0,0
2:00.461,43366,),0,0,0
2:00.506,43382,(,0,0,1
2:00.581,43409,N,0,0,0
2:00.614,43421,),0,0,1
2:00.731,43463,(,0,0,2
2:00.814,43493,t,0,0,4
2:00.925,43533,t,0,0,4
2:01.011,43564,),0,0,2
2:01.169,43621,(,0,0,0
2:01.228,43642,p,0,0,0
2:01.281,43661,),0,0,0
2:01.353,43687,(,0,0,1
2:01.414,43709,N,0,0,0
2:01.447,43721,),0,0,1
2:01.475,43731,(,0,0,2
2:01.658,43797,t,0,0,1
2:01.753,43831,),0,0,2
2:02.178,43984,(,0,0,1
2:02.239,44006,N,0,0,0
2:02.272,44018,),0,0,1
2:02.300,44028,(,0,0,2
2:02.506,44102,t,0,0,1
2:02.592,44133,),0,0,2
2:03.025,44289,(,0,0,1
2:03.086,44311,N,0,0,0
2:03.119,44323,),0,0,1
2:03.125,44325,(,0,0,2
2:03.344,44404,t,0,0,1
2:03.433,44436,),0,0,2
2:03.892,44601,(,0,0,1
2:03.953,44623,N,0,0,0
2:03.986,44635,),0,0,1
2:04.017,44646,(,0,0,2
2:04.081,44669,t,0,0,1
2:04.208,44715,),0,0,2
2:04.319,44755,(,0,0,1
2:04.444,44800,N,0,0,0
2:04.492,44817,),0,0,1
2:04.581,44849,(,0,0,2
2:04.667,44880,t,0,0,0
2:04.808,44931,),0,0,2
2:05.539,45194,(,0,0,1
2:05.592,45213,N,0,0,0
2:05.633,45228,),0,0,1
2:05.742,45267,(,0,0,2
2:05.828,45298,t,0,0,1
2:05.919,45331,),0,0,2
2:06.139,45410,(,0,0,0
2:06.189,45428,p,0,0,0
2:06.239,45446,),0,0,0
2:06.286,45463,(,0,0,1
2:06.344,45484,N,0,0,0
2:06.375,45495,),0,0,1
2:06.486,45535,(,0,0,2
2:06.569,45565,t,0,0,1
2:06.656,45596,),0,0,2
2:06.894,45682,(,0,0,0
2:06.944,45700,p,0,0,0
2:07.000,45720,),0,0,0
2:07.050,45738,(,0,0,1
2:07.108,45759,N,0,0,0
2:07.147,45773,),0,0,1
2:07.247,45809,(,0,0,2
2:07.286,45823,t,0,0,1
2:07.325,45837,),0,0,2
2:07.431,45875,(,0,0,1
2:07.450,45882,(,0,0,0
2:07.481,45893,p,0,0,0
2:07.525,45909,),0,0,0
2:07.553,45919,N,0,0,0
2:07.553,45919,(,0,0,1
2:07.608,45939,),0,0,1
2:07.800,46008,N,0,0,0
2:07.928,46054,),0,0,1
2:07.933,46056,(,0,0,2
2:08.133,46128,t,0,0,1
2:08.267,46176,),0,0,2
2:08.558,46281,(,0,0,0
2:08.628,46306,p,0,0,0
2:08.675,46323,),0,0,0
2:08.742,46347,(,0,0,1
2:08.808,46371,N,0,0,0
2:08.842,46383,),0,0,1
2:08.847,46385,(,0,0,2
2:09.072,46466,t,0,0,1
2:09.161,46498,),0,0,2
2:09.408,46587,(,0,0,0
2:09.467,46608,p,0,0,0
2:09.531,46631,),0,0,0
2:09.606,46658,(,0,0,1
2:09.669,46681,N,0,0,0
2:09.703,46693,),0,0,1
2:09.708,46695,(,0,0,2
2:09.922,46772,t,0,0,1
2:10.011,46804,),0,0,2
2:10.272,46898,(,0,0,0
2:10.331,46919,p,0,0,0
2:10.383,46938,),0,0,0
2:10.450,46962,(,0,0,1
2:10.514,46985,N,0,0,0
2:10.547,46997,),0,0,1
2:10.553,46999,(,0,0,2
2:10.631,47027,t,0,0,1
2:10.747,47069,),0,0,2
2:10.864,47111,(,0,0,1
2:10.986,47155,N,0,0,0
2:11.033,47172,),0,0,1
2:11.103,47197,(,0,0,2
2:11.217,47238,t,0,0,0
2:11.358,47289,),0,0,2
2:11.825,47457,(,0,0,0
2:11.872,47474,p,0,0,0
2:11.922,47492,),0,0,0
2:11.978,47512,(,0,0,1
2:12.042,47535,N,0,0,0
2:12.075,47547,),0,0,1
2:12.192,47589,(,0,0,2
2:12.264,47615,t,0,0,4
2:12.369,47653,t,0,0,4
2:12.414,47669,),0,0,2
2:12.561,47722,(,0,0,0
2:12.606,47738,p,0,0,0
2:12.667,47760,),0,0,0
2:12.731,47783,(,0,0,1
2:12.794,47806,N,0,0,0
2:12.828,47818,),0,0,1
2:12.858,47829,(,0,0,2
2:13.044,47896,t,0,0,1
2:13.139,47930,),0,0,2
2:13.347,48005,(,0,0,0
2:13.394,48022,p,0,0,0
2:13.450,48042,),0,0,0
2:13.503,48061,(,0,0,1
2:13.564,48083,N,0,0,0
2:13.594,48094,),0,0,1
2:13.625,48105,(,0,0,2
2:13.817,48174,t,0,0,1
2:13.914,48209,),0,0,2
2:14.131,48287,(,0,0,0
2:14.175,48303,p,0,0,0
2:14.233,48324,),0,0,0
2:14.286,48343,(,0,0,1
2:14.347,48365,N,0,0,0
2:14.378,48376,),0,0,1
2:14.514,48425,(,0,0,2
2:14.589,48452,t,0,0,4
2:14.700,48492,t,0,0,4
2:14.750,48510,),0,0,2
2:14.911,48568,(,0,0,0
2:14.964,48587,p,0,0,0
2:15.014,48605,),0,0,0
2:15.089,48632,(,0,0,1
2:15.156,48656,N,0,0,0
2:15.200,48672,),0,0,1
2:15.206,48674,(,0,0,2
2:15.417,48750,t,0,0,1
2:15.522,48788,),0,0,2
2:15.778,48880,(,0,0,0
2:15.831,48899,p,0,0,0
2:15.897,48923,),0,0,0
2:15.969,48949,(,0,0,1
2:16.036,48973,N,0,0,0
2:16.067,48984,),0,0,1
2:16.072,48986,(,0,0,2
2:16.281,49061,t,0,0,1
2:16.375,49095,),0,0,2
2:16.583,49170,(,0,0,0
2:16.642,49191,p,0,0,0
2:16.700,49212,),0,0,0
2:16.747,49229,(,0,0,1
2:16.817,49254,N,0,0,0
2:16.847,49265,),0,0,1
2:16.961,49306,(,0,0,2
2:17.036,49333,t,0,0,1
2:17.125,49365,),0,0,2
2:17.297,49427,(,0,0,0
2:17.358,49449,p,0,0,0
2:17.408,49467,),0,0,0
2:17.458,49485,(,0,0,1
2:17.519,49507,N,0,0,0
2:17.550,49518,),0,0,1
2:17.578,49528,(,0,0,2
2:17.747,49589,t,0,0,1
2:17.831,49619,),0,0,2
2:17.992,49677,(,0,0,0
2:18.050,49698,p,0,0,0
2:18.097,49715,),0,0,0
2:18.119,49723,(,0,0,1
2:18.203,49753,N,0,0,0
2:18.297,49787,),0,0,1
2:18.322,49796,(,0,0,2
2:18.436,49837,t,0,0,1
2:18.531,49871,),0,0,2
2:18.717,49938,(,0,0,0
2:18.764,49955,p,0,0,0
2:18.814,49973,),0,0,0
2:18.856,49988,(,0,0,1
2:18.931,50015,N,0,0,0
2:18.961,50026,),0,0,1
2:19.100,50076,(,0,0,2
2:19.158,50097,t,0,0,4
2:19.306,50150,t,0,0,4
2:19.400,50184,),0,0,2
2:19.469,50209,(,0,0,0
2:19.506,50222,p,0,0,0
2:19.542,50235,),0,0,0
2:19.592,50253,(,0,0,1
2:19.683,50286,N,0,0,0
2:19.711,50296,),0,0,1
2:19.761,50314,(,0,0,2
2:19.933,50376,t,0,0,1
2:20.011,50404,),0,0,2
2:20.275,50499,(,0,0,0
2:20.317,50514,p,0,0,0
2:20.378,50536,),0,0,0
2:20.422,50552,(,0,0,1
2:20.503,50581,N,0,0,0
2:20.533,50592,),0,0,1
2:20.539,50594,(,0,0,2
2:20.733,50664,t,0,0,1
2:20.819,50695,),0,0,2
2:21.106,50798,(,0,0,0
2:21.153,50815,p,0,0,0
2:21.211,50836,),0,0,0
2:21.253,50851,(,0,0,1
2:21.333,50880,N,0,0,0
2:21.431,50915,),0,0,1
2:21.500,50940,(,0,0,2
2:21.558,50961,t,0,0,1
2:21.642,50991,),0,0,2
2:21.928,51094,(,0,0,0
2:21.981,51113,p,0,0,0
2:22.036,51133,),0,0,0
2:22.089,51152,(,0,0,1
2:22.158,51177,N,0,0,0
2:22.253,51211,),0,0,1
2:22.314,51233,(,0,0,2
2:22.400,51264,t,0,0,1
2:22.481,51293,),0,0,2
2:22.750,51390,(,0,0,0
2:22.806,51410,p,0,0,0
2:22.853,51427,),0,0,0
2:22.908,51447,(,0,0,1
2:22.975,51471,N,0,0,0
2:23.006,51482,),0,0,1
2:23.228,51562,(,0,0,1
2:23.425,51633,N,0,0,0
2:23.511,51664,),0,0,1
2:23.544,51676,(,0,0,2
2:23.644,51712,t,0,0,0
2:23.772,51758,),0,0,2
2:24.414,51989,(,0,0,1
2:24.472,52010,N,0,0,0
2:24.500,52020,),0,0,1
2:24.650,52074,(,0,0,2
2:24.694,52090,t,0,0,1
2:24.792,52125,),0,0,2
2:24.986,52195,(,0,0,0
2:25.033,52212,p,0,0,0
2:25.089,52232,),0,0,0
2:25.108,52239,(,0,0,1
2:25.200,52272,N,0,0,0
2:25.231,52283,),0,0,1
2:25.272,52298,(,0,0,2
2:25.436,52357,t,0,0,1
2:25.517,52386,),0,0,2
2:25.717,52458,(,0,0,0
2:25.769,52477,p,0,0,0
2:25.842,52503,),0,0,0
2:25.892,52521,(,0,0,1
2:25.933,52536,N,0,0,0
2:25.967,52548,),0,0,1
2:26.019,52567,(,0,0,2
2:26.181,52625,t,0,0,1
2:26.292,52665,),0,0,2
2:26.511,52744,(,0,0,0
2:26.553,52759,p,0,0,0
2:26.611,52780,),0,0,0
2:26.675,52803,(,0,0,1
2:26.736,52825,N,0,0,0
2:26.761,52834,),0,0,1
2:26.767,52836,(,0,0,2
2:26.978,52912,t,0,0,1
2:27.089,52952,),0,0,2
2:27.319,53035,(,0,0,0
2:27.356,53048,p,0,0,0
2:27.397,53063,),0,0,0
2:27.481,53093,(,0,0,1
2:27.536,53113,N,0,0,0
2:27.564,53123,),0,0,1
2:27.719,53179,(,0,0,2
2:27.767,53196,t,0,0,1
2:27.875,53235,),0,0,2
2:28.056,53300,(,0,0,1
2:28.086,53311,N,0,0,0
2:28.164,53339,),0,0,1
2:28.233,53364,(,0,0,2
2:28.325,53397,t,0,0,0
2:28.417,53430,),0,0,2
2:28.858,53589,(,0,0,0
2:28.908,53607,p,0,0,0
2:28.961,53626,),0,0,0
2:28.983,53634,(,0,0,1
2:29.072,53666,N,0,0,0
2:29.108,53679,),0,0,1
2:29.142,53691,(,0,0,2
2:29.306,53750,t,0,0,1
2:29.394,53782,),0,0,2
2:29.572,53846,(,0,0,0
2:29.617,53862,p,0,0,0
2:29.675,53883,),0,0,0
2:29.750,53910,(,0,0,1
2:29.792,53925,N,0,0,0
2:29.814,53933,),0,0,1
2:29.867,53952,(,0,0,2
2:30.011,54004,t,0,0,1
2:30.108,54039,),0,0,2
2:30.297,54107,(,0,0,0
2:30.356,54128,p,0,0,0
2:30.400,54144,),0,0,0
2:30.428,54154,(,0,0,1
2:30.514,54185,N,0,0,0
2:30.611,54220,),0,0,1
2:30.694,54250,(,0,0,2
2:30.742,54267,t,0,0,1
2:30.822,54296,),0,0,2
2:31.003,54361,(,0,0,0
2:31.039,54374,p,0,0,0
2:31.108,54399,),0,0,0
2:31.169,54421,(,0,0,1
2:31.214,54437,N,0,0,0
2:31.244,54448,),0,0,1
2:31.381,54497,(,0,0,2
2:31.433,54516,t,0,0,1
2:31.544,54556,),0,0,2
2:31.900,54684,(,0,0,1
2:31.964,54707,N,0,0,0
2:32.047,54737,),0,0,1
2:32.133,54768,(,0,0,2
2:32.208,54795,t,0,0,1
2:32.278,54820,),0,0,2
2:32.528,54910,(,0,0,0
2:32.581,54929,p,0,0,0
2:32.631,54947,),0,0,0
2:32.656,54956,(,0,0,1
2:32.747,54989,N,0,0,0
2:32.853,55027,),0,0,1
2:32.917,55050,(,0,0,2
2:32.992,55077,t,0,0,1
2:33.072,55106,),0,0,2
2:33.333,55200,(,0,0,0
2:33.394,55222,p,0,0,0
2:33.442,55239,),0,0,0
2:33.464,55247,(,0,0,1
2:33.558,55281,N,0,0,0
2:33.661,55318,),0,0,1
2:33.739,55346,(,0,0,2
2:33.814,55373,t,0,0,1
2:33.892,55401,),0,0,2
2:34.156,55496,(,0,0,0
2:34.225,55521,p,0,0,0
2:34.272,55538,),0,0,0
2:34.308,55551,(,0,0,1
2:34.392,55581,N,0,0,0
2:34.483,55614,),0,0,1
2:34.569,55645,(,0,0,2
2:34.628,55666,t,0,0,1
2:34.700,55692,),0,0,2
2:34.969,55789,(,0,0,0
2:35.022,55808,p,0,0,0
2:35.072,55826,),0,0,0
2:35.108,55839,(,0,0,1
2:35.189,55868,N,0,0,0
2:35.289,55904,),0,0,1
2:35.361,55930,(,0,0,2
2:35.383,55938,t,0,0,1
2:35.406,55946,),0,0,2
2:35.419,55951,(,0,0,1
2:35.628,56026,N,0,0,0
2:35.672,56042,),0,0,1
2:35.678,56044,(,0,0,2
2:35.842,56103,t,0,0,0
2:35.947,56141,),0,0,2
2:36.706,56414,(,0,0,1
2:36.764,56435,N,0,0,0
2:36.897,56483,),0,0,1
2:36.931,56495,(,0,0,2
2:37.017,56526,t,0,0,4
2:37.119,56563,t,0,0,4
2:37.158,56577,),0,0,2
2:37.333,56640,(,0,0,0
2:37.392,56661,p,0,0,0
2:37.458,56685,),0,0,0
2:37.500,56700,(,0,0,1
2:37.561,56722,N,0,0,0
2:37.592,56733,),0,0,1
2:37.642,56751,(,0,0,2
2:37.831,56819,t,0,0,1
2:37.925,56853,),0,0,2
2:37.944,56860,(,0,0,0
2:38.056,56900,p,0,0,0
2:38.111,56920,),0,0,0
2:38.133,56928,(,0,0,1
2:38.183,56946,N,0,0,0
2:38.394,57022,),0,0,1
2:38.450,57042,t,0,0,3
2:38.581,57089,),0,0,2
2:39.203,57313,(,0,0,1
2:39.281,57341,N,0,0,0
2:39.375,57375,),0,0,1
2:39.467,57408,(,0,0,2
2:39.533,57432,t,0,0,1
2:39.611,57460,),0,0,2
2:40.053,57619,(,0,0,1
2:40.114,57641,N,0,0,0
2:40.200,57672,),0,0,1
2:40.275,57699,(,0,0,2
2:40.361,57730,t,0,0,1
2:40.444,57760,),0,0,2
2:40.872,57914,(,0,0,1
2:40.933,57936,N,0,0,0
2:41.011,57964,),0,0,1
2:41.111,58000,(,0,0,0
2:41.169,58021,p,0,0,0
2:41.222,58040,),0,0,0
2:41.272,58058,(,0,0,1
2:41.381,58097,N,0,0,0
2:41.472,58130,),0,0,1
2:41.475,58131,t,0,0,2
2:41.586,58171,),0,0,2
2:41.719,58219,(,0,0,1
2:41.789,58244,N,0,0,0
2:41.925,58293,),0,0,1
2:41.975,58311,(,0,0,2
2:42.064,58343,t,0,0,0
2:42.208,58395,),0,0,2
2:42.828,58618,(,0,0,0
2:42.906,58646,p,0,0,0
2:42.958,58665,),0,0,0
2:43.000,58680,(,0,0,1
2:43.050,58698,N,0,0,0
2:43.081,58709,),0,0,1
2:43.194,58750,(,0,0,2
2:43.306,58790,t,0,0,4
2:43.417,58830,t,0,0,4
2:43.461,58846,),0,0,2
2:43.631,58907,(,0,0,0
2:43.681,58925,p,0,0,0
2:43.758,58953,),0,0,0
2:43.814,58973,(,0,0,1
2:43.861,58990,N,0,0,0
2:43.892,59001,),0,0,1
2:44.003,59041,(,0,0,2
2:44.108,59079,t,0,0,1
2:44.225,59121,),0,0,2
2:44.442,59199,(,0,0,0
2:44.500,59220,p,0,0,0
2:44.569,59245,),0,0,0
2:44.625,59265,(,0,0,1
2:44.675,59283,N,0,0,0
2:44.706,59294,),0,0,1
2:44.753,59311,(,0,0,2
2:44.944,59380,t,0,0,1
2:45.044,59416,),0,0,2
2:45.422,59552,(,0,0,1
2:45.467,59568,N,0,0,0
2:45.494,59578,),0,0,1
2:45.636,59629,(,0,0,2
2:45.711,59656,t,0,0,1
2:45.817,59694,),0,0,2
2:46.031,59771,(,0,0,0
2:46.078,59788,p,0,0,0
2:46.125,59805,),0,0,0
2:46.211,59836,(,0,0,1
2:46.267,59856,N,0,0,0
2:46.297,59867,),0,0,1
2:46.442,59919,(,0,0,2
2:46.500,59940,t,0,0,1
2:46.600,59976,),0,0,2
2:46.958,60105,(,0,0,1
2:47.017,60126,N,0,0,0
2:47.050,60138,),0,0,1
2:47.183,60186,(,0,0,2
2:47.256,60212,t,0,0,1
2:47.325,60237,),0,0,2
2:47.531,60311,(,0,0,0
2:47.592,60333,p,0,0,0
2:47.650,60354,),0,0,0
2:47.694,60370,(,0,0,1
2:47.753,60391,N,0,0,0
2:47.800,60408,),0,0,1
2:47.883,60438,(,0,0,2
2:47.994,60478,t,0,0,1
2:48.089,60512,),0,0,2
2:48.436,60637,(,0,0,1
2:48.489,60656,N,0,0,0
2:48.519,60667,),0,0,1
2:48.647,60713,(,0,0,2
2:48.708,60735,t,0,0,1
2:48.789,60764,),0,0,2
2:48.894,60802,(,0,0,1
2:48.967,60828,N,0,0,0
2:49.078,60868,),0,0,1
2:49.100,60876,(,0,0,2
2:49.175,60903,t,0,0,1
2:49.297,60947,),0,0,2
2:49.867,61152,(,0,0,0
2:49.917,61170,p,0,0,0
2:49.961,61186,),0,0,0
2:50.036,61213,(,0,0,1
2:50.100,61236,N,0,0,0
2:50.133,61248,),0,0,1
2:50.294,61306,(,0,0,2
2:50.342,61323,t,0,0,4
2:50.464,61367,t,0,0,4
2:50.539,61394,),0,0,2
2:50.731,61463,(,0,0,0
2:50.764,61475,p,0,0,0
2:50.819,61495,),0,0,0
2:50.897,61523,(,0,0,1
2:50.956,61544,N,0,0,0
2:50.983,61554,),0,0,1
2:51.125,61605,(,0,0,2
2:51.197,61631,t,0,0,1
2:51.311,61672,),0,0,2
2:51.581,61769,(,0,0,0
2:51.647,61793,p,0,0,0
2:51.733,61824,),0,0,0
2:51.769,61837,(,0,0,1
2:51.836,61861,N,0,0,0
2:51.881,61877,),0,0,1
2:51.919,61891,(,0,0,2
2:52.083,61950,t,0,0,1
2:52.178,61984,),0,0,2
2:52.378,62056,(,0,0,1
2:52.489,62096,N,0,0,0
2:52.603,62137,),0,0,1
2:52.692,62169,(,0,0,2
2:52.778,62200,t,0,0,0
2:52.881,62237,),0,0,2
2:53.278,62380,(,0,0,0
2:53.325,62397,p,0,0,0
2:53.375,62415,),0,0,0
2:53.406,62426,(,0,0,1
2:53.478,62452,N,0,0,0
2:53.511,62464,),0,0,1
2:53.517,62466,(,0,0,2
2:53.700,62532,t,0,0,1
2:53.792,62565,),0,0,2
2:54.006,62642,(,0,0,0
2:54.067,62664,p,0,0,0
2:54.125,62685,),0,0,0
2:54.181,62705,(,0,0,1
2:54.222,62720,N,0,0,0
2:54.250,62730,),0,0,1
2:54.294,62746,(,0,0,2
2:54.444,62800,t,0,0,1
2:54.547,62837,),0,0,2
2:54.678,62884,(,0,0,1
2:54.794,62926,N,0,0,0
2:54.886,62959,),0,0,1
2:54.914,62969,(,0,0,2
2:55.028,63010,t,0,0,0
2:55.175,63063,),0,0,2
2:55.594,63214,(,0,0,0
2:55.636,63229,p,0,0,0
2:55.686,63247,),0,0,0
2:55.736,63265,(,0,0,1
2:55.819,63295,N,0,0,0
2:55.853,63307,),0,0,1
2:55.986,63355,(,0,0,2
2:56.047,63377,t,0,0,1
2:56.156,63416,),0,0,2
2:56.372,63494,(,0,0,0
2:56.422,63512,p,0,0,0
2:56.472,63530,),0,0,0
2:56.550,63558,(,0,0,1
2:56.608,63579,N,0,0,0
2:56.644,63592,),0,0,1
2:56.792,63645,(,0,0,2
2:56.850,63666,t,0,0,1
2:56.953,63703,),0,0,2
2:57.233,63804,(,0,0,0
2:57.281,63821,p,0,0,0
2:57.331,63839,),0,0,0
2:57.419,63871,(,0,0,1
2:57.472,63890,N,0,0,0
2:57.500,63900,),0,0,1
2:57.556,63920,(,0,0,2
2:57.756,63992,t,0,0,1
2:57.861,64030,),0,0,2
2:58.092,64113,(,0,0,0
2:58.172,64142,p,0,0,0
2:58.233,64164,),0,0,0
2:58.272,64178,(,0,0,1
2:58.344,64204,N,0,0,0
2:58.389,64220,),0,0,1
2:58.425,64233,(,0,0,2
2:58.608,64299,t,0,0,1
2:58.694,64330,),0,0,2
2:58.900,64404,(,0,0,0
2:58.989,64436,p,0,0,0
2:59.033,64452,),0,0,0
2:59.078,64468,(,0,0,1
2:59.133,64488,N,0,0,0
2:59.178,64504,),0,0,1
2:59.183,64506,(,0,0,2
2:59.375,64575,t,0,0,1
2:59.467,64608,),0,0,2
2:59.842,64743,(,0,0,1
2:59.897,64763,N,0,0,0
2:59.928,64774,),0,0,1
3:00.050,64818,(,0,0,2
3:00.119,64843,t,0,0,1
3:00.217,64878,),0,0,2
3:00.450,64962,(,0,0,0
3:00.494,64978,p,0,0,0
3:00.536,64993,),0,0,0
3:00.594,65014,(,0,0,1
3:00.656,65036,N,0,0,0
3:00.689,65048,),0,0,1
3:00.806,65090,(,0,0,2
3:00.894,65122,t,0,0,1
3:00.972,65150,),0,0,2
3:01.400,65304,(,0,0,1
3:01.467,65328,N,0,0,0
3:01.503,65341,),0,0,1
3:01.642,65391,(,0,0,2
3:01.714,65417,t,0,0,1
3:01.792,65445,),0,0,2
3:02.094,65554,(,0,0,0
3:02.136,65569,p,0,0,0
3:02.178,65584,),0,0,0
3:02.269,65617,(,0,0,1
3:02.322,65636,N,0,0,0
3:02.367,65652,),0,0,1
3:02.503,65701,(,0,0,2
3:02.564,65723,t,0,0,1
3:02.683,65766,),0,0,2
3:02.958,65865,(,0,0,0
3:03.028,65890,p,0,0,0
3:03.081,65909,),0,0,0
3:03.139,65930,(,0,0,1
3:03.194,65950,N,0,0,0
3:03.231,65963,),0,0,1
3:03.236,65965,(,0,0,2
3:03.442,66039,t,0,0,1
3:03.542,66075,),0,0,2
3:04.028,66250,(,0,0,1
3:04.100,66276,N,0,0,0
3:04.136,66289,),0,0,1
3:04.142,66291,(,0,0,2
3:04.358,66369,t,0,0,1
3:04.444,66400,),0,0,2
3:04.756,66512,(,0,0,0
3:04.792,66525,p,0,0,0
3:04.842,66543,),0,0,0
3:04.892,66561,(,0,0,1
3:04.975,66591,N,0,0,0
3:05.011,66604,),0,0,1
3:05.119,66643,(,0,0,2
3:05.197,66671,t,0,0,4
3:05.308,66711,t,0,0,4
3:05.400,66744,),0,0,2
3:05.558,66801,(,0,0,0
3:05.592,66813,p,0,0,0
3:05.633,66828,),0,0,0
3:05.681,66845,(,0,0,1
3:05.767,66876,N,0,0,0
3:05.800,66888,),0,0,1
3:05.903,66925,(,0,0,2
3:05.981,66953,t,0,0,1
3:06.056,66980,),0,0,2
3:06.319,67075,(,0,0,0
3:06.364,67091,p,0,0,0
3:06.408,67107,),0,0,0
3:06.442,67119,(,0,0,1
3:06.531,67151,N,0,0,0
3:06.619,67183,),0,0,1
3:06.678,67204,(,0,0,2
3:06.756,67232,t,0,0,4
3:07.158,67377,t,0,0,4
3:07.208,67395,),0,0,2
3:07.653,67555,(,0,0,1
3:07.794,67606,N,0,0,0
3:07.900,67644,),0,0,1
3:07.961,67666,(,0,0,2
3:08.031,67691,t,0,0,0
3:08.200,67752,),0,0,2
3:09.008,68043,(,0,0,1
3:09.056,68060,N,0,0,0
3:09.086,68071,),0,0,1
3:09.133,68088,(,0,0,2
3:09.306,68150,t,0,0,1
3:09.431,68195,),0,0,2
3:09.681,68285,(,0,0,0
3:09.739,68306,p,0,0,0
3:09.789,68324,),0,0,0
3:09.839,68342,(,0,0,1
3:09.903,68365,N,0,0,0
3:09.936,68377,),0,0,1
3:09.978,68392,(,0,0,2
3:10.147,68453,t,0,0,1
3:10.250,68490,),0,0,2
3:10.481,68573,(,0,0,0
3:10.533,68592,p,0,0,0
3:10.583,68610,),0,0,0
3:10.647,68633,(,0,0,1
3:10.703,68653,N,0,0,0
3:10.733,68664,),0,0,1
3:10.764,68675,(,0,0,2
3:10.950,68742,t,0,0,1
3:11.053,68779,),0,0,2
3:11.269,68857,(,0,0,0
3:11.308,68871,p,0,0,0
3:11.361,68890,),0,0,0
3:11.414,68909,(,0,0,1
3:11.486,68935,N,0,0,0
3:11.517,68946,),0,0,1
3:11.636,68989,(,0,0,2
3:11.717,69018,t,0,0,1
3:11.817,69054,),0,0,2
3:12.008,69123,(,0,0,0
3:12.053,69139,p,0,0,0
3:12.108,69159,),0,0,0
3:12.161,69178,(,0,0,1
3:12.222,69200,N,0,0,0
3:12.269,69217,),0,0,1
3:12.381,69257,(,0,0,2
3:12.414,69269,t,0,0,1
3:12.447,69281,),0,0,2
3:12.542,69315,(,0,0,1
3:12.667,69360,N,0,0,0
3:12.778,69400,),0,0,1
3:12.808,69411,(,0,0,2
3:12.875,69435,t,0,0,0
3:12.981,69473,),0,0,2
3:13.486,69655,(,0,0,0
3:13.522,69668,p,0,0,0
3:13.569,69685,),0,0,0
3:13.628,69706,(,0,0,1
3:13.692,69729,N,0,0,0
3:13.844,69784,),0,0,1
3:13.850,69786,(,0,0,2
3:13.933,69816,t,0,0,1
3:14.050,69858,),0,0,2
3:14.247,69929,(,0,0,0
3:14.294,69946,p,0,0,0
3:14.356,69968,),0,0,0
3:14.394,69982,(,0,0,1
3:14.469,70009,N,0,0,0
3:14.553,70039,),0,0,1
3:14.672,70082,(,0,0,2
3:14.722,70100,t,0,0,1
3:14.817,70134,),0,0,2
3:15.017,70206,(,0,0,0
3:15.064,70223,p,0,0,0
3:15.139,70250,),0,0,0
3:15.197,70271,(,0,0,1
3:15.264,70295,N,0,0,0
3:15.372,70334,),0,0,1
3:15.447,70361,(,0,0,2
3:15.508,70383,t,0,0,4
3:15.717,70458,t,0,0,4
3:15.750,70470,),0,0,2
3:15.861,70510,(,0,0,0
3:15.897,70523,p,0,0,0
3:15.939,70538,),0,0,0
3:15.961,70546,(,0,0,1
3:16.061,70582,N,0,0,0
3:16.150,70614,),0,0,1
3:16.253,70651,(,0,0,2
3:16.306,70670,t,0,0,4
3:16.431,70715,t,0,0,4
3:16.489,70736,),0,0,2
3:16.639,70790,(,0,0,0
3:16.667,70800,p,0,0,0
3:16.692,70809,),0,0,0
3:16.764,70835,(,0,0,1
3:16.811,70852,N,0,0,0
3:16.981,70913,),0,0,1
3:17.061,70942,(,0,0,2
3:17.158,70977,t,0,0,0
3:17.250,71010,),0,0,2
3:17.261,71014,(,0,0,0
3:17.344,71044,p,0,0,0
3:17.392,71061,),0,0,0
3:17.425,71073,(,0,0,1
3:17.506,71102,N,0,0,0
3:17.636,71149,),0,0,1
3:17.639,71150,(,0,0,2
3:17.725,71181,t,0,0,1
3:17.822,71216,),0,0,2
3:17.975,71271,(,0,0,0
3:18.039,71294,p,0,0,0
3:18.069,71305,),0,0,0
3:18.144,71332,(,0,0,1
3:18.200,71352,N,0,0,0
3:18.244,71368,),0,0,1
3:18.311,71392,(,0,0,2
3:18.428,71434,t,0,0,1
3:18.531,71471,),0,0,2
3:18.594,71494,(,0,0,1
3:18.650,71514,N,0,0,0
3:18.739,71546,),0,0,1
3:18.831,71579,(,0,0,2
3:18.931,71615,t,0,0,0
3:19.025,71649,),0,0,2
3:19.411,71788,(,0,0,0
3:19.450,71802,p,0,0,0
3:19.481,71813,),0,0,0
3:19.561,71842,(,0,0,1
3:19.614,71861,N,0,0,0
3:19.642,71871,),0,0,1
3:19.772,71918,(,0,0,2
3:19.828,71938,t,0,0,4
3:19.992,71997,t,0,0,4
3:20.028,72010,),0,0,2
3:20.117,72042,(,0,0,0
3:20.139,72050,p,0,0,0
3:20.228,72082,),0,0,0
3:20.264,72095,(,0,0,1
3:20.331,72119,N,0,0,0
3:20.425,72153,),0,0,1
3:20.503,72181,(,0,0,2
3:20.564,72203,t,0,0,1
3:20.656,72236,),0,0,2
3:20.844,72304,(,0,0,0
3:20.897,72323,p,0,0,0
3:20.958,72345,),0,0,0
3:21.022,72368,(,0,0,1
3:21.081,72389,N,0,0,0
3:21.111,72400,),0,0,1
3:21.244,72448,(,0,0,2
3:21.311,72472,t,0,0,1
3:21.414,72509,),0,0,2
3:21.575,72567,(,0,0,0
3:21.653,72595,p,0,0,0
3:21.689,72608,),0,0,0
3:21.744,72628,(,0,0,1
3:21.833,72660,N,0,0,0
3:21.872,72674,),0,0,1
3:22.006,72722,(,0,0,2
3:22.069,72745,t,0,0,1
3:22.161,72778,),0,0,2
3:22.206,72794,(,0,0,0
3:22.258,72813,p,0,0,0
3:22.311,72832,),0,0,0
3:22.464,72887,(,0,0,1
3:22.567,72924,N,0,0,0
3:22.600,72936,),0,0,1
3:22.697,72971,t,0,0,3
3:22.797,73007,),0,0,2
3:22.839,73022,(,0,0,0
3:22.914,73049,p,0,0,0
3:22.989,73076,),0,0,0
3:23.006,73082,(,0,0,1
3:23.047,73097,N,0,0,0
3:23.097,73115,),0,0,1
3:23.239,73166,(,0,0,2
3:23.308,73191,t,0,0,0
3:23.414,73229,),0,0,2
3:23.711,73336,(,0,0,0
3:23.764,73355,p,0,0,0
3:23.814,73373,),0,0,0
3:23.864,73391,(,0,0,1
3:23.917,73410,N,0,0,0
3:23.958,73425,),0,0,1
3:24.069,73465,(,0,0,2
3:24.136,73489,t,0,0,1
3:24.231,73523,),0,0,2
3:24.350,73566,(,0,0,0
3:24.411,73588,p,0,0,0
3:24.469,73609,),0,0,0
3:24.508,73623,(,0,0,1
3:24.569,73645,N,0,0,0
3:24.600,73656,),0,0,1
3:24.703,73693,(,0,0,2
3:24.797,73727,t,0,0,1
3:24.892,73761,),0,0,2
3:25.036,73813,(,0,0,0
3:25.083,73830,p,0,0,0
3:25.142,73851,),0,0,0
3:25.206,73874,(,0,0,1
3:25.269,73897,N,0,0,0
3:25.364,73931,),0,0,1
3:25.406,73946,(,0,0,2
3:25.506,73982,t,0,0,1
3:25.589,74012,),0,0,2
3:25.731,74063,(,0,0,0
3:25.786,74083,p,0,0,0
3:25.844,74104,),0,0,0
3:25.906,74126,(,0,0,1
3:25.964,74147,N,0,0,0
3:25.997,74159,),0,0,1
3:26.106,74198,(,0,0,2
3:26.219,74239,t,0,0,1
3:26.319,74275,),0,0,2
3:26.467,74328,(,0,0,0
3:26.522,74348,p,0,0,0
3:26.567,74364,),0,0,0
3:26.619,74383,(,0,0,1
3:26.686,74407,N,0,0,0
3:26.717,74418,),0,0,1
3:26.833,74460,(,0,0,2
3:26.919,74491,t,0,0,1
3:27.014,74525,),0,0,2
3:27.161,74578,(,0,0,0
3:27.225,74601,p,0,0,0
3:27.275,74619,),0,0,0
3:27.333,74640,(,0,0,1
3:27.389,74660,N,0,0,0
3:27.431,74675,),0,0,1
3:27.533,74712,(,0,0,2
3:27.633,74748,t,0,0,1
3:27.733,74784,),0,0,2
3:27.881,74837,(,0,0,0
3:27.947,74861,p,0,0,0
3:27.992,74877,),0,0,0
3:28.042,74895,(,0,0,1
3:28.122,74924,N,0,0,0
3:28.158,74937,),0,0,1
3:28.275,74979,(,0,0,2
3:28.342,75003,t,0,0,1
3:28.433,75036,),0,0,2
3:28.569,75085,(,0,0,0
3:28.639,75110,p,0,0,0
3:28.703,75133,),0,0,0
3:28.736,75145,(,0,0,1
3:28.814,75173,N,0,0,0
3:28.883,75198,),0,0,1
3:28.950,75222,(,0,0,2
3:29.039,75254,t,0,0,1
3:29.136,75289,),0,0,2
3:29.411,75388,(,0,0,1
3:29.503,75421,N,0,0,0
3:29.608,75459,),0,0,1
3:29.664,75479,(,0,0,2
3:29.717,75498,t,0,0,1
3:29.814,75533,),0,0,2
3:29.878,75556,(,0,0,0
3:29.914,75569,p,0,0,0
3:29.994,75598,),0,0,0
3:30.058,75621,(,0,0,1
3:30.158,75657,N,0,0,0
3:30.272,75698,),0,0,1
3:30.322,75716,(,0,0,2
3:30.367,75732,t,0,0,1
3:30.467,75768,),0,0,2
3:30.519,75787,(,0,0,0
3:30.542,75795,p,0,0,0
3:30.647,75833,),0,0,0
3:30.728,75862,(,0,0,1
3:30.825,75897,N,0,0,0
3:30.967,75948,),0,0,1
3:30.972,75950,(,0,0,2
3:31.028,75970,t,0,0,1
3:31.142,76011,),0,0,2
3:31.931,76295,(,0,0,1
3:32.044,76336,N,0,0,0
3:32.178,76384,),0,0,1
3:32.183,76386,(,0,0,2
3:32.286,76423,t,0,0,1
3:32.428,76474,),0,0,2
3:32.972,76670,(,0,0,0
3:33.017,76686,p,0,0,0
3:33.064,76703,),0,0,0
3:33.117,76722,(,0,0,1
3:33.214,76757,N,0,0,0
3:33.317,76794,),0,0,1
3:33.356,76808,(,0,0,2
3:33.453,76843,t,0,0,4
3:33.581,76889,t,0,0,4
3:33.656,76916,),0,0,2
3:33.792,76965,(,0,0,0
3:33.836,76981,p,0,0,0
3:33.892,77001,),0,0,0
3:33.933,77016,(,0,0,1
3:34.019,77047,N,0,0,0
3:34.119,77083,),0,0,1
3:34.203,77113,(,0,0,2
3:34.253,77131,t,0,0,4
3:34.350,77166,t,0,0,4
3:34.392,77181,),0,0,2
3:34.600,77256,(,0,0,0
3:34.650,77274,p,0,0,0
3:34.708,77295,),0,0,0
3:34.750,77310,(,0,0,1
3:34.833,77340,N,0,0,0
3:34.936,77377,),0,0,1
3:34.992,77397,(,0,0,2
3:35.061,77422,t,0,0,4
3:35.169,77461,t,0,0,4
3:35.228,77482,),0,0,2
3:35.378,77536,(,0,0,0
3:35.422,77552,p,0,0,0
3:35.472,77570,),0,0,0
3:35.508,77583,(,0,0,1
3:35.600,77616,N,0,0,0
3:35.703,77653,),0,0,1
3:35.750,77670,(,0,0,2
3:35.831,77699,t,0,0,1
3:35.914,77729,),0,0,2
3:36.261,77854,(,0,0,1
3:36.350,77886,N,0,0,0
3:36.386,77899,),0,0,1
3:36.492,77937,(,0,0,2
3:36.581,77969,t,0,0,1
3:36.667,78000,),0,0,2
3:36.889,78080,(,0,0,0
3:36.922,78092,p,0,0,0
3:36.986,78115,),0,0,0
3:37.019,78127,(,0,0,1
3:37.100,78156,N,0,0,0
3:37.219,78199,),0,0,1
3:37.236,78205,(,0,0,2
3:37.319,78235,t,0,0,1
3:37.419,78271,),0,0,2
3:37.600,78336,(,0,0,1
3:37.736,78385,N,0,0,0
3:37.953,78463,),0,0,1
3:37.961,78466,t,0,0,3
3:38.161,78538,),0,0,2
3:38.414,78629,(,0,0,0
3:38.469,78649,p,0,0,0
3:38.514,78665,),0,0,0
3:38.544,78676,(,0,0,1
3:38.658,78717,N,0,0,0
3:38.778,78760,),0,0,1
3:38.853,78787,(,0,0,2
3:38.911,78808,t,0,0,1
3:39.011,78844,),0,0,2
3:39.264,78935,(,0,0,0
3:39.317,78954,p,0,0,0
3:39.378,78976,),0,0,0
3:39.433,78996,(,0,0,1
3:39.517,79026,N,0,0,0
3:39.631,79067,),0,0,1
3:39.697,79091,(,0,0,2
3:39.769,79117,t,0,0,4
3:39.886,79159,t,0,0,4
3:39.972,79190,),0,0,2
3:40.289,79304,(,0,0,1
3:40.353,79327,N,0,0,0
3:40.383,79338,),0,0,1
3:40.389,79340,(,0,0,2
3:40.472,79370,t,0,0,1
3:40.592,79413,),0,0,2
3:40.631,79427,(,0,0,0
3:40.708,79455,p,0,0,0
3:40.731,79463,),0,0,0
3:40.750,79470,(,0,0,1
3:40.839,79502,N,0,0,0
3:40.892,79521,),0,0,1
3:40.953,79543,(,0,0,2
3:41.036,79573,t,0,0,1
3:41.150,79614,),0,0,2
3:41.639,79790,(,0,0,0
3:41.689,79808,p,0,0,0
3:41.753,79831,),0,0,0
3:41.789,79844,(,0,0,1
3:41.850,79866,N,0,0,0
3:41.886,79879,),0,0,1
3:41.892,79881,(,0,0,2
3:42.086,79951,t,0,0,1
3:42.175,79983,),0,0,2
3:42.336,80041,(,0,0,0
3:42.397,80063,p,0,0,0
3:42.442,80079,),0,0,0
3:42.497,80099,(,0,0,1
3:42.556,80120,N,0,0,0
3:42.583,80130,),0,0,1
3:42.611,80140,(,0,0,2
3:42.789,80204,t,0,0,1
3:42.872,80234,),0,0,2
3:43.106,80318,(,0,0,0
3:43.150,80334,p,0,0,0
3:43.206,80354,),0,0,0
3:43.264,80375,(,0,0,1
3:43.328,80398,N,0,0,0
3:43.364,80411,),0,0,1
3:43.369,80413,(,0,0,2
3:43.564,80483,t,0,0,1
3:43.650,80514,),0,0,2
3:43.886,80599,(,0,0,0
3:43.928,80614,p,0,0,0
3:43.989,80636,),0,0,0
3:44.042,80655,(,0,0,1
3:44.108,80679,N,0,0,0
3:44.203,80713,),0,0,1
3:44.242,80727,(,0,0,2
3:44.336,80761,t,0,0,1
3:44.428,80794,),0,0,2
3:44.447,80801,(,0,0,1
3:44.586,80851,N,0,0,0
3:44.694,80890,),0,0,1
3:44.733,80904,(,0,0,2
3:44.822,80936,t,0,0,0
3:44.967,80988,),0,0,2
3:45.481,81173,(,0,0,0
3:45.542,81195,p,0,0,0
3:45.592,81213,),0,0,0
3:45.633,81228,(,0,0,1
3:45.719,81259,N,0,0,0
3:45.753,81271,),0,0,1
3:45.878,81316,(,0,0,2
3:45.986,81355,t,0,0,1
3:46.081,81389,),0,0,2
3:46.300,81468,(,0,0,0
3:46.356,81488,p,0,0,0
3:46.414,81509,),0,0,0
3:46.483,81534,(,0,0,1
3:46.550,81558,N,0,0,0
3:46.589,81572,),0,0,1
3:46.719,81619,(,0,0,2
3:46.792,81645,t,0,0,1
3:46.878,81676,),0,0,2
3:47.092,81753,(,0,0,0
3:47.144,81772,p,0,0,0
3:47.206,81794,),0,0,0
3:47.253,81811,(,0,0,1
3:47.314,81833,N,0,0,0
3:47.417,81870,),0,0,1
3:47.464,81887,(,0,0,2
3:47.547,81917,t,0,0,1
3:47.633,81948,),0,0,2
3:47.817,82014,(,0,0,0
3:47.869,82033,p,0,0,0
3:47.914,82049,),0,0,0
3:47.956,82064,(,0,0,1
3:48.025,82089,N,0,0,0
3:48.056,82100,),0,0,1
3:48.156,82136,(,0,0,2
3:48.247,82169,t,0,0,1
3:48.333,82200,),0,0,2
3:48.533,82272,(,0,0,0
3:48.578,82288,p,0,0,0
3:48.631,82307,),0,0,0
3:48.683,82326,(,0,0,1
3:48.742,82347,N,0,0,0
3:48.842,82383,),0,0,1
3:48.869,82393,t,0,0,3
3:48.967,82428,),0,0,2
3:48.969,82429,(,0,0,0
3:48.981,82433,p,0,0,0
3:49.053,82459,),0,0,0
3:49.092,82473,(,0,0,1
3:49.211,82516,N,0,0,0
3:49.264,82535,),0,0,1
3:49.314,82553,(,0,0,2
3:49.419,82591,t,0,0,0
3:49.553,82639,),0,0,2
3:50.228,82882,(,0,0,1
3:50.294,82906,N,0,0,0
3:50.331,82919,),0,0,1
3:50.442,82959,(,0,0,2
3:50.550,82998,t,0,0,4
3:50.669,83041,t,0,0,4
3:50.756,83072,),0,0,2
3:50.892,83121,(,0,0,0
3:50.942,83139,p,0,0,0
3:51.011,83164,),0,0,0
3:51.078,83188,(,0,0,1
3:51.133,83208,N,0,0,0
3:51.164,83219,),0,0,1
3:51.258,83253,(,0,0,2
3:51.369,83293,t,0,0,4
3:51.478,83332,t,0,0,4
3:51.550,83358,),0,0,2
3:51.697,83411,(,0,0,0
3:51.781,83441,p,0,0,0
3:51.819,83455,),0,0,0
3:51.889,83480,(,0,0,1
3:51.953,83503,N,0,0,0
3:51.986,83515,),0,0,1
3:52.100,83556,(,0,0,2
3:52.197,83591,t,0,0,1
3:52.294,83626,),0,0,2
3:52.494,83698,(,0,0,0
3:52.542,83715,p,0,0,0
3:52.600,83736,),0,0,0
3:52.658,83757,(,0,0,1
3:52.722,83780,N,0,0,0
3:52.753,83791,),0,0,1
3:52.867,83832,(,0,0,2
3:52.953,83863,t,0,0,1
3:53.036,83893,),0,0,2
3:53.269,83977,(,0,0,0
3:53.314,83993,p,0,0,0
3:53.378,84016,),0,0,0
3:53.431,84035,(,0,0,1
3:53.494,84058,N,0,0,0
3:53.589,84092,),0,0,1
3:53.642,84111,(,0,0,2
3:53.722,84140,t,0,0,4
3:53.828,84178,t,0,0,4
3:53.897,84203,),0,0,2
3:54.019,84247,(,0,0,0
3:54.086,84271,p,0,0,0
3:54.131,84287,),0,0,0
3:54.181,84305,(,0,0,1
3:54.236,84325,N,0,0,0
3:54.272,84338,),0,0,1
3:54.394,84382,(,0,0,2
3:54.458,84405,t,0,0,1
3:54.553,84439,),0,0,2
3:54.772,84518,(,0,0,0
3:54.825,84537,p,0,0,0
3:54.872,84554,),0,0,0
3:54.928,84574,(,0,0,1
3:54.983,84594,N,0,0,0
3:55.017,84606,),0,0,1
3:55.139,84650,(,0,0,2
3:55.208,84675,t,0,0,1
3:55.303,84709,),0,0,2
3:55.533,84792,(,0,0,0
3:55.583,84810,p,0,0,0
3:55.631,84827,),0,0,0
3:55.692,84849,(,0,0,1
3:55.753,84871,N,0,0,0
3:55.783,84882,),0,0,1
3:55.894,84922,(,0,0,2
3:55.992,84957,t,0,0,1
3:56.083,84990,),0,0,2
3:56.522,85148,(,0,0,1
3:56.578,85168,N,0,0,0
3:56.642,85191,),0,0,1
3:56.708,85215,(,0,0,2
3:56.819,85255,t,0,0,1
3:56.922,85292,),0,0,2
3:57.211,85396,(,0,0,0
3:57.253,85411,p,0,0,0
3:57.322,85436,),0,0,0
3:57.361,85450,(,0,0,1
3:57.450,85482,N,0,0,0
3:57.483,85494,),0,0,1
3:57.511,85504,(,0,0,2
3:57.717,85578,t,0,0,1
3:57.819,85615,),0,0,2
3:58.275,85779,(,0,0,1
3:58.350,85806,N,0,0,0
3:58.386,85819,),0,0,1
3:58.392,85821,(,0,0,2
3:58.592,85893,t,0,0,1
3:58.675,85923,),0,0,2
3:58.944,86020,(,0,0,0
3:58.983,86034,p,0,0,0
3:59.042,86055,),0,0,0
3:59.075,86067,(,0,0,1
3:59.167,86100,N,0,0,0
3:59.258,86133,),0,0,1
3:59.292,86145,(,0,0,2
3:59.386,86179,t,0,0,1
3:59.472,86210,),0,0,2
3:59.497,86219,(,0,0,1
3:59.617,86262,N,0,0,0
3:59.658,86277,),0,0,1
3:59.661,86278,t,0,0,2
3:59.828,86338,),0,0,2
3:59.983,86394,(,0,0,1
4:00.078,86428,N,0,0,0
4:00.189,86468,),0,0,1
4:00.228,86482,(,0,0,2
4:00.303,86509,t,0,0,0
4:00.450,86562,),0,0,2
4:01.228,86842,(,0,0,0
4:01.275,86859,p,0,0,0
4:01.319,86875,),0,0,0
4:01.386,86899,(,0,0,1
4:01.444,86920,N,0,0,0
4:01.489,86936,),0,0,1
4:01.614,86981,(,0,0,2
4:01.689,87008,t,0,0,4
4:01.808,87051,t,0,0,4
4:01.875,87075,),0,0,2
4:02.211,87196,(,0,0,1
4:02.267,87216,N,0,0,0
4:02.300,87228,),0,0,1
4:02.439,87278,(,0,0,2
4:02.481,87293,t,0,0,4
4:02.611,87340,t,0,0,4
4:02.658,87357,),0,0,2
4:02.808,87411,(,0,0,0
4:02.856,87428,p,0,0,0
4:02.900,87444,),0,0,0
4:03.008,87483,(,0,0,1
4:03.089,87512,N,0,0,0
4:03.122,87524,),0,0,1
4:03.319,87595,(,0,0,2
4:03.356,87608,t,0,0,4
4:03.458,87645,t,0,0,4
4:03.514,87665,),0,0,2
4:03.681,87725,(,0,0,0
4:03.717,87738,p,0,0,0
4:03.775,87759,),0,0,0
4:03.831,87779,(,0,0,1
4:03.900,87804,N,0,0,0
4:03.936,87817,),0,0,1
4:04.019,87847,(,0,0,2
4:04.144,87892,t,0,0,4
4:04.256,87932,t,0,0,4
4:04.328,87958,),0,0,2
4:04.492,88017,(,0,0,0
4:04.533,88032,p,0,0,0
4:04.600,88056,),0,0,0
4:04.653,88075,(,0,0,1
4:04.717,88098,N,0,0,0
4:04.744,88108,),0,0,1
4:04.886,88159,(,0,0,2
4:04.931,88175,t,0,0,4
4:05.033,88212,t,0,0,4
4:05.125,88245,),0,0,2
4:05.275,88299,(,0,0,0
4:05.306,88310,p,0,0,0
4:05.378,88336,),0,0,0
4:05.392,88341,(,0,0,1
4:05.489,88376,N,0,0,0
4:05.519,88387,),0,0,1
4:05.611,88420,(,0,0,2
4:05.692,88449,t,0,0,4
4:05.792,88485,t,0,0,4
4:05.828,88498,),0,0,2
4:06.019,88567,(,0,0,0
4:06.058,88581,p,0,0,0
4:06.125,88605,),0,0,0
4:06.139,88610,(,0,0,1
4:06.228,88642,N,0,0,0
4:06.261,88654,),0,0,1
4:06.328,88678,(,0,0,2
4:06.419,88711,t,0,0,4
4:06.519,88747,t,0,0,4
4:06.578,88768,),0,0,2
4:06.736,88825,(,0,0,0
4:06.781,88841,p,0,0,0
4:06.842,88863,),0,0,0
4:06.869,88873,(,0,0,1
4:06.956,88904,N,0,0,0
4:07.053,88939,),0,0,1
4:07.089,88952,(,0,0,2
4:07.183,88986,t,0,0,4
4:07.408,89067,t,0,0,4
4:07.442,89079,),0,0,2
4:07.511,89104,(,0,0,0
4:07.564,89123,p,0,0,0
4:07.625,89145,),0,0,0
4:07.697,89171,(,0,0,1
4:07.758,89193,N,0,0,0
4:07.850,89226,),0,0,1
4:07.914,89249,(,0,0,2
4:08.006,89282,t,0,0,4
4:08.108,89319,t,0,0,4
4:08.144,89332,),0,0,2
4:08.342,89403,(,0,0,0
4:08.386,89419,p,0,0,0
4:08.456,89444,),0,0,0
4:08.503,89461,(,0,0,1
4:08.567,89484,N,0,0,0
4:08.642,89511,),0,0,1
4:08.744,89548,(,0,0,2
4:08.814,89573,t,0,0,1
4:08.911,89608,),0,0,2
4:09.167,89700,(,0,0,0
4:09.197,89711,p,0,0,0
4:09.261,89734,),0,0,0
4:09.306,89750,(,0,0,1
4:09.375,89775,N,0,0,0
4:09.408,89787,),0,0,1
4:09.517,89826,(,0,0,2
4:09.606,89858,t,0,0,4
4:09.725,89901,t,0,0,4
4:09.806,89930,),0,0,2
4:09.953,89983,(,0,0,0
4:09.997,89999,p,0,0,0
4:10.042,90015,),0,0,0
4:10.106,90038,(,0,0,1
4:10.169,90061,N,0,0,0
4:10.319,90115,),0,0,1
4:10.350,90126,(,0,0,2
4:10.403,90145,t,0,0,4
4:10.528,90190,t,0,0,4
4:10.561,90202,),0,0,2
4:10.731,90263,(,0,0,0
4:10.778,90280,p,0,0,0
4:10.828,90298,),0,0,0
4:10.875,90315,(,0,0,1
4:10.939,90338,N,0,0,0
4:11.028,90370,),0,0,1
4:11.108,90399,(,0,0,2
4:11.161,90418,t,0,0,1
4:11.244,90448,),0,0,2
4:11.453,90523,(,0,0,0
4:11.492,90537,p,0,0,0
4:11.558,90561,),0,0,0
4:11.594,90574,(,0,0,1
4:11.656,90596,N,0,0,0
4:11.747,90629,),0,0,1
4:11.825,90657,(,0,0,2
4:11.875,90675,t,0,0,4
4:12.089,90752,t,0,0,4
4:12.133,90768,),0,0,2
4:12.147,90773,(,0,0,0
4:12.203,90793,p,0,0,0
4:12.261,90814,),0,0,0
4:12.306,90830,(,0,0,1
4:12.375,90855,N,0,0,0
4:12.464,90887,),0,0,1
4:12.561,90922,(,0,0,2
4:12.592,90933,t,0,0,4
4:12.789,91004,t,0,0,4
4:12.822,91016,),0,0,2
4:12.844,91024,(,0,0,0
4:12.894,91042,p,0,0,0
4:12.947,91061,),0,0,0
4:12.994,91078,(,0,0,1
4:13.072,91106,N,0,0,0
4:13.175,91143,),0,0,1
4:13.214,91157,t,0,0,3
4:13.294,91186,),0,0,2
4:13.411,91228,(,0,0,1
4:13.519,91267,N,0,0,0
4:13.614,91301,),0,0,1
4:13.667,91320,(,0,0,2
4:13.733,91344,t,0,0,0
4:13.881,91397,),0,0,2
4:14.281,91541,(,0,0,0
4:14.342,91563,p,0,0,0
4:14.400,91584,),0,0,0
4:14.458,91605,(,0,0,1
4:14.519,91627,N,0,0,0
4:14.550,91638,),0,0,1
4:14.722,91700,(,0,0,2
4:14.781,91721,t,0,0,1
4:14.889,91760,),0,0,2
4:15.103,91837,(,0,0,0
4:15.133,91848,p,0,0,0
4:15.197,91871,),0,0,0
4:15.250,91890,(,0,0,1
4:15.314,91913,N,0,0,0
4:15.414,91949,),0,0,1
4:15.481,91973,(,0,0,0
4:15.539,91994,p,0,0,0
4:15.622,92024,),0,0,0
4:15.667,92040,(,0,0,1
4:15.794,92086,N,0,0,0
4:15.856,92108,),0,0,1
4:15.911,92128,(,0,0,2
4:16.050,92178,t,0,0,0
4:16.192,92229,),0,0,2
4:16.572,92366,(,0,0,0
4:16.631,92387,p,0,0,0
4:16.686,92407,),0,0,0
4:16.744,92428,(,0,0,1
4:16.808,92451,N,0,0,0
4:16.903,92485,),0,0,1
4:16.964,92507,(,0,0,2
4:17.033,92532,t,0,0,1
4:17.119,92563,),0,0,2
4:17.283,92622,(,0,0,0
4:17.325,92637,p,0,0,0
4:17.389,92660,),0,0,0
4:17.447,92681,(,0,0,1
4:17.503,92701,N,0,0,0
4:17.597,92735,),0,0,1
4:17.661,92758,(,0,0,0
4:17.719,92779,p,0,0,0
4:17.789,92804,),0,0,0
4:17.811,92812,(,0,0,1
4:17.911,92848,N,0,0,0
4:17.958,92865,),0,0,1
4:18.011,92884,(,0,0,2
4:18.125,92925,t,0,0,0
4:18.267,92976,),0,0,2
4:18.667,93120,(,0,0,0
4:18.714,93137,p,0,0,0
4:18.758,93153,),0,0,0
4:18.808,93171,(,0,0,1
4:18.883,93198,N,0,0,0
4:18.981,93233,),0,0,1
4:19.061,93262,(,0,0,2
4:19.131,93287,t,0,0,1
4:19.225,93321,),0,0,2
4:19.792,93525,(,0,0,0
4:19.842,93543,p,0,0,0
4:19.928,93574,),0,0,0
4:19.958,93585,(,0,0,1
4:20.092,93633,N,0,0,0
4:20.147,93653,),0,0,1
4:20.244,93688,(,0,0,2
4:20.336,93721,t,0,0,0
4:20.478,93772,),0,0,2
4:20.956,93944,(,0,0,0
4:21.008,93963,p,0,0,0
4:21.064,93983,),0,0,0
4:21.125,94005,(,0,0,1
4:21.189,94028,N,0,0,0
4:21.219,94039,),0,0,1
4:21.247,94049,(,0,0,2
4:21.450,94122,t,0,0,1
4:21.553,94159,),0,0,2
4:21.783,94242,(,0,0,0
4:21.833,94260,p,0,0,0
4:21.900,94284,),0,0,0
4:21.978,94312,(,0,0,1
4:22.042,94335,N,0,0,0
4:22.075,94347,),0,0,1
4:22.111,94360,(,0,0,2
4:22.300,94428,t,0,0,1
4:22.392,94461,),0,0,2
4:22.644,94552,(,0,0,0
4:22.697,94571,p,0,0,0
4:22.753,94591,),0,0,0
4:22.811,94612,(,0,0,1
4:22.872,94634,N,0,0,0
4:22.903,94645,),0,0,1
4:22.942,94659,(,0,0,2
4:23.108,94719,t,0,0,1
4:23.192,94749,),0,0,2
4:23.406,94826,(,0,0,0
4:23.444,94840,p,0,0,0
4:23.492,94857,),0,0,0
4:23.544,94876,(,0,0,1
4:23.600,94896,N,0,0,0
4:23.694,94930,),0,0,1
4:23.753,94951,(,0,0,2
4:23.819,94975,t,0,0,1
4:23.897,95003,),0,0,2
4:24.125,95085,(,0,0,0
4:24.167,95100,p,0,0,0
4:24.222,95120,),0,0,0
4:24.283,95142,(,0,0,1
4:24.344,95164,N,0,0,0
4:24.436,95197,),0,0,1
4:24.464,95207,(,0,0,2
4:24.569,95245,t,0,0,1
4:24.650,95274,),0,0,2
4:24.881,95357,(,0,0,0
4:24.919,95371,p,0,0,0
4:24.972,95390,),0,0,0
4:25.031,95411,(,0,0,1
4:25.092,95433,N,0,0,0
4:25.122,95444,),0,0,1
4:25.153,95455,(,0,0,2
4:25.325,95517,t,0,0,1
4:25.422,95552,),0,0,2
4:25.675,95643,(,0,0,0
4:25.719,95659,p,0,0,0
4:25.781,95681,),0,0,0
4:25.850,95706,(,0,0,1
4:25.911,95728,N,0,0,0
4:25.944,95740,),0,0,1
4:25.978,95752,(,0,0,2
4:26.169,95821,t,0,0,1
4:26.261,95854,),0,0,2
4:26.542,95955,(,0,0,0
4:26.592,95973,p,0,0,0
4:26.644,95992,),0,0,0
4:26.686,96007,(,0,0,1
4:26.775,96039,N,0,0,0
4:26.881,96077,),0,0,1
4:26.933,96096,(,0,0,2
4:27.031,96131,t,0,0,1
4:27.117,96162,),0,0,2
4:27.400,96264,(,0,0,0
4:27.444,96280,p,0,0,0
4:27.500,96300,),0,0,0
4:27.542,96315,(,0,0,1
4:27.633,96348,N,0,0,0
4:27.736,96385,),0,0,1
4:27.814,96413,(,0,0,0
4:27.872,96434,p,0,0,0
4:27.950,96462,),0,0,0
4:28.006,96482,(,0,0,1
4:28.028,96490,(,0,0,0
4:28.061,96502,p,0,0,0
4:28.067,96504,N,0,0,0
4:28.106,96518,),0,0,0
4:28.133,96528,(,0,0,1
4:28.186,96547,),0,0,1
4:28.394,96622,N,0,0,0
4:28.517,96666,),0,0,1
4:28.553,96679,(,0,0,2
4:28.783,96762,t,0,0,1
4:28.864,96791,),0,0,2
4:29.156,96896,(,0,0,0
4:29.197,96911,p,0,0,0
4:29.256,96932,),0,0,0
4:29.289,96944,(,0,0,1
4:29.369,96973,N,0,0,0
4:29.464,97007,),0,0,1
4:29.519,97027,(,0,0,2
4:29.589,97052,t,0,0,4
4:29.686,97087,t,0,0,4
4:29.775,97119,),0,0,2
4:29.947,97181,(,0,0,0
4:29.981,97193,p,0,0,0
4:30.033,97212,),0,0,0
4:30.086,97231,(,0,0,1
4:30.153,97255,N,0,0,0
4:30.244,97288,),0,0,1
4:30.303,97309,(,0,0,2
4:30.361,97330,t,0,0,4
4:30.447,97361,t,0,0,4
4:30.514,97385,),0,0,2
4:30.728,97462,(,0,0,0
4:30.767,97476,p,0,0,0
4:30.825,97497,),0,0,0
4:30.869,97513,(,0,0,1
4:30.942,97539,N,0,0,0
4:31.033,97572,),0,0,1
4:31.092,97593,(,0,0,2
4:31.169,97621,t,0,0,1
4:31.261,97654,),0,0,2
4:31.342,97683,(,0,0,1
4:31.414,97709,N,0,0,0
4:31.461,97726,),0,0,1
4:31.617,97782,(,0,0,2
4:31.697,97811,t,0,0,0
4:31.781,97841,),0,0,2
4:32.444,98080,(,0,0,0
4:32.500,98100,p,0,0,0
4:32.561,98122,),0,0,0
4:32.589,98132,(,0,0,1
4:32.683,98166,N,0,0,0
4:32.786,98203,),0,0,1
4:32.844,98224,(,0,0,2
4:32.939,98258,t,0,0,4
4:33.067,98304,t,0,0,4
4:33.150,98334,),0,0,2
4:33.350,98406,(,0,0,0
4:33.389,98420,p,0,0,0
4:33.453,98443,),0,0,0
4:33.506,98462,(,0,0,1
4:33.581,98489,N,0,0,0
4:33.608,98499,),0,0,1
4:33.642,98511,(,0,0,2
4:33.825,98577,t,0,0,1
4:33.917,98610,),0,0,2
4:34.219,98719,(,0,0,0
4:34.256,98732,p,0,0,0
4:34.317,98754,),0,0,0
4:34.375,98775,(,0,0,1
4:34.450,98802,N,0,0,0
4:34.478,98812,),0,0,1
4:34.506,98822,(,0,0,2
4:34.683,98886,t,0,0,1
4:34.772,98918,),0,0,2
4:35.028,99010,(,0,0,0
4:35.069,99025,p,0,0,0
4:35.131,99047,),0,0,0
4:35.192,99069,(,0,0,1
4:35.253,99091,N,0,0,0
4:35.350,99126,),0,0,1
4:35.411,99148,(,0,0,0
4:35.483,99174,p,0,0,0
4:35.561,99202,),0,0,0
4:35.597,99215,(,0,0,1
4:35.650,99234,N,0,0,0
4:35.764,99275,),0,0,1
4:38.708,100335,N,0,0,0
4:38.708,100335,(,0,0,1
4:38.903,100405,),0,0,1
4:39.244,100528,(,0,0,2
4:39.289,100544,t,0,0,0
4:39.372,100574,),0,0,2
4:46.747,103229,(,0,0,0
4:46.781,103241,p,0,0,0
4:46.811,103252,),0,0,0
4:46.908,103287,(,0,0,1
4:47.028,103330,N,0,0,0
4:47.214,103397,),0,0,1
4:47.528,103510,(,0,0,2
4:47.567,103524,t,0,0,0
4:47.647,103553,),0,0,2
4:48.247,103769,(,0,0,0
4:48.281,103781,p,0,0,0
4:48.311,103792,),0,0,0
4:48.506,103862,N,0,0,0
4:48.511,103864,(,0,0,1
4:48.597,103895,),0,0,1
4:48.975,104031,(,0,0,2
4:49.019,104047,t,0,0,0
4:49.108,104079,),0,0,2
4:51.453,104923,(,0,0,1
4:51.764,105035,N,0,0,0
4:51.900,105084,),0,0,1
4:52.197,105191,),0,0,2
4:52.242,105207,t,0,0,0
4:52.286,105223,(,0,0,2
4:52.300,105228,(,0,0,0
4:52.339,105242,p,0,0,0
4:52.375,105255,),0,0,0
4:52.608,105339,N,0,0,0
4:52.614,105341,(,0,0,1
4:52.717,105378,),0,0,1
4:53.086,105511,(,0,0,2
4:53.131,105527,t,0,0,0
4:53.217,105558,),0,0,2
4:54.672,106082,(,0,0,0
4:54.708,106095,p,0,0,0
4:54.742,106107,),0,0,0
4:54.950,106182,N,0,0,0
4:54.958,106185,(,0,0,1
4:55.150,106254,),0,0,1
4:55.461,106366,(,0,0,2
4:55.503,106381,t,0,0,0
4:55.583,106410,),0,0,2
4:55.961,106546,(,0,0,0
4:55.994,106558,p,0,0,0
4:56.039,106574,),0,0,0
4:56.178,106624,(,0,0,1
4:56.300,106668,N,0,0,0
4:56.356,106688,),0,0,1
4:56.489,106736,(,0,0,2
4:56.519,106747,t,0,0,0
4:56.572,106766,),0,0,2
4:56.589,106772,(,0,0,1
4:56.844,106864,N,0,0,0
4:57.044,106936,),0,0,1
4:57.081,106949,(,0,0,2
4:57.253,107011,t,0,0,1
4:57.408,107067,),0,0,2
4:59.558,107841,(,0,0,1
4:59.628,107866,N,0,0,0
4:59.756,107912,),0,0,1
5:00.322,108116,),0,0,2
5:00.358,108129,t,0,0,0
5:00.394,108142,(,0,0,2
5:04.358,109569,(,0,0,1
5:04.644,109672,N,0,0,0
5:04.819,109735,),0,0,1
5:05.039,109814,),0,0,2
5:05.072,109826,t,0,0,0
5:05.103,109837,(,0,0,2
5:05.119,109843,(,0,0,0
5:05.156,109856,p,0,0,0
5:05.192,109869,),0,0,0
5:05.372,109934,N,0,0,0
5:05.383,109938,(,0,0,1
5:05.481,109973,),0,0,1
5:05.806,110090,(,0,0,2
5:05.847,110105,t,0,0,0
5:05.931,110135,),0,0,2
5:06.536,110353,(,0,0,0
5:06.572,110366,p,0,0,0
5:06.608,110379,),0,0,0
5:06.786,110443,N,0,0,0
5:06.794,110446,(,0,0,1
5:06.900,110484,),0,0,1
5:07.278,110620,(,0,0,2
5:07.322,110636,t,0,0,0
5:07.419,110671,),0,0,2
5:10.683,111846,(,0,0,0
5:10.719,111859,p,0,0,0
5:10.756,111872,),0,0,0
5:10.972,111950,N,0,0,0
5:10.986,111955,(,0,0,1
5:11.172,112022,),0,0,1
5:11.506,112142,(,0,0,2
5:11.544,112156,t,0,0,0
5:11.628,112186,),0,0,2
5:12.664,112559,(,0,0,0
5:12.700,112572,p,0,0,0
5:12.747,112589,),0,0,0
5:12.775,112599,(,0,0,1
5:13.000,112680,N,0,0,0
5:13.067,112704,),0,0,1
5:13.069,112705,t,0,0,3
5:13.175,112743,),0,0,2
5:15.417,113550,(,0,0,1
5:15.511,113584,N,0,0,0
5:15.578,113608,),0,0,1
5:15.631,113627,(,0,0,2
5:15.892,113721,t,0,0,1
5:16.261,113854,),0,0,2
5:20.381,115337,(,0,0,0
5:20.442,115359,p,0,0,0
5:20.514,115385,),0,0,0
5:20.558,115401,(,0,0,1
5:20.675,115443,N,0,0,0
5:20.725,115461,),0,0,1
5:20.731,115463,(,0,0,2
5:20.906,115526,t,0,0,0
5:21.050,115578,),0,0,2
5:23.722,116540,(,0,0,0
5:23.783,116562,p,0,0,0
5:23.858,116589,),0,0,0
5:23.900,116604,(,0,0,1
5:24.006,116642,N,0,0,0
5:24.008,116643,),0,0,1
5:24.056,116660,(,0,0,2
5:24.219,116719,t,0,0,0
5:24.358,116769,),0,0,2
5:42.100,123156,(,0,0,0
5:42.164,123179,p,0,0,0
5:42.233,123204,),0,0,0
5:42.269,123217,(,0,0,1
5:42.378,123256,N,0,0,0
5:42.433,123276,),0,0,1
5:42.436,123277,t,0,0,2
5:42.578,123328,),0,0,2
5:42.761,123394,(,0,0,1
5:42.864,123431,N,0,0,0
5:42.864,123431,),0,0,1
5:43.086,123511,(,0,0,1
5:43.197,123551,N,0,0,0
5:43.197,123551,),0,0,1
5:43.206,123554,(,0,0,2
5:43.394,123622,t,0,0,0
5:43.536,123673,),0,0,2
6:00.106,129638,(,0,0,0
6:00.167,129660,p,0,0,0
6:00.236,129685,),0,0,0
6:00.272,129698,(,0,0,1
6:00.378,129736,N,0,0,0
6:00.428,129754,),0,0,1
6:00.478,129772,(,0,0,2
6:00.589,129812,t,0,0,0
6:00.731,129863,),0,0,2
6:12.486,134095,(,0,0,1
6:12.622,134144,N,0,0,0
6:12.678,134164,),0,0,1
6:12.736,134185,(,0,0,2
6:12.875,134235,t,0,0,5
6:13.214,134357,t,0,0,5
6:13.244,134368,),0,0,2
6:27.242,139407,(,0,0,0
6:27.292,139425,p,0,0,0
6:27.350,139446,),0,0,0
6:27.419,139471,(,0,0,1
6:27.472,139490,N,0,0,0
6:27.506,139502,),0,0,1
6:27.539,139514,(,0,0,2
6:27.739,139586,t,0,0,4
6:28.156,139736,t,0,0,4
6:28.211,139756,),0,0,2
6:29.936,140377,(,0,0,1
6:29.975,140391,N,0,0,0
6:30.006,140402,),0,0,1
6:30.089,140432,t,0,0,3
6:30.189,140468,),0,0,2
6:30.319,140515,(,0,0,1
6:30.425,140553,N,0,0,0
6:30.472,140570,),0,0,1
6:30.528,140590,(,0,0,2
6:30.639,140630,t,0,0,0
6:30.783,140682,),0,0,2
6:31.542,140955,(,0,0,1
6:31.589,140972,N,0,0,0
6:31.617,140982,),0,0,1
6:31.622,140984,(,0,0,2
6:32.078,141148,t,0,0,1
6:32.439,141278,),0,0,2
6:35.069,142225,(,0,0,1
6:35.139,142250,N,0,0,0
6:35.236,142285,),0,0,1
6:35.286,142303,(,0,0,2
6:35.369,142333,t,0,0,1
6:35.458,142365,),0,0,2
6:35.919,142531,(,0,0,1
6:35.967,142548,N,0,0,0
6:36.086,142591,),0,0,1
6:36.106,142598,(,0,0,2
6:36.200,142632,t,0,0,1
6:36.289,142664,),0,0,2
6:36.731,142823,(,0,0,1
6:36.769,142837,N,0,0,0
6:36.869,142873,),0,0,1
6:36.919,142891,(,0,0,2
6:37.006,142922,t,0,0,1
6:37.103,142957,),0,0,2
6:37.550,143118,(,0,0,1
6:37.592,143133,N,0,0,0
6:37.686,143167,),0,0,1
6:37.731,143183,(,0,0,2
6:37.817,143214,t,0,0,1
6:37.908,143247,),0,0,2
6:38.389,143420,(,0,0,1
6:38.436,143437,N,0,0,0
6:38.556,143480,),0,0,1
6:38.572,143486,(,0,0,2
6:38.686,143527,t,0,0,4
6:38.814,143573,t,0,0,4
6:38.917,143610,),0,0,2
6:39.267,143736,(,0,0,1
6:39.306,143750,N,0,0,0
6:39.419,143791,),0,0,1
6:39.478,143812,(,0,0,2
6:39.550,143838,t,0,0,1
6:39.653,143875,),0,0,2
6:40.164,144059,(,0,0,1
6:40.217,144078,N,0,0,0
6:40.336,144121,),0,0,1
6:40.386,144139,(,0,0,2
6:40.475,144171,t,0,0,1
6:40.569,144205,),0,0,2
6:41.036,144373,(,0,0,1
6:41.106,144398,N,0,0,0
6:41.206,144434,),0,0,1
6:41.231,144443,(,0,0,2
6:41.333,144480,t,0,0,1
6:41.419,144511,),0,0,2
6:41.853,144667,(,0,0,1
6:41.894,144682,N,0,0,0
6:41.986,144715,),0,0,1
6:42.231,144803,(,0,0,2
6:42.267,144816,t,0,0,5
6:42.328,144838,t,0,0,5
6:42.544,144916,),0,0,2
6:43.522,145268,(,0,0,1
6:43.569,145285,N,0,0,0
6:43.606,145298,),0,0,1
6:43.733,145344,(,0,0,2
6:43.814,145373,t,0,0,4
6:43.919,145411,t,0,0,4
6:43.992,145437,),0,0,2
6:44.194,145510,(,0,0,0
6:44.239,145526,p,0,0,0
6:44.311,145552,),0,0,0
6:44.389,145580,(,0,0,1
6:44.442,145599,N,0,0,0
6:44.478,145612,),0,0,1
6:44.483,145614,(,0,0,2
6:44.692,145689,t,0,0,1
6:44.778,145720,),0,0,2
6:45.272,145898,(,0,0,1
6:45.322,145916,N,0,0,0
6:45.422,145952,),0,0,1
6:45.450,145962,(,0,0,2
6:45.564,146003,t,0,0,1
6:45.658,146037,),0,0,2
6:46.139,146210,(,0,0,1
6:46.186,146227,N,0,0,0
6:46.217,146238,),0,0,1
6:46.314,146273,(,0,0,2
6:46.417,146310,t,0,0,1
6:46.500,146340,),0,0,2
6:46.783,146442,(,0,0,0
6:46.833,146460,p,0,0,0
6:46.897,146483,),0,0,0
6:46.972,146510,(,0,0,1
6:47.019,146527,N,0,0,0
6:47.122,146564,),0,0,1
6:47.139,146570,(,0,0,2
6:47.250,146610,t,0,0,1
6:47.342,146643,),0,0,2
6:47.775,146799,(,0,0,1
6:47.822,146816,N,0,0,0
6:47.856,146828,),0,0,1
6:48.533,147072,(,0,0,2
6:48.578,147088,t,0,0,0
6:48.658,147117,),0,0,2
6:49.536,147433,(,0,0,0
6:49.600,147456,p,0,0,0
6:49.681,147485,),0,0,0
6:49.864,147551,(,0,0,1
6:49.969,147589,N,0,0,0
6:49.969,147589,),0,0,1
6:49.981,147593,(,0,0,2
6:50.244,147688,t,0,0,0
6:50.392,147741,),0,0,2
6:51.789,148244,(,0,0,0
6:51.850,148266,p,0,0,0
6:51.908,148287,),0,0,0
6:51.972,148310,(,0,0,1
6:52.022,148328,N,0,0,0
6:52.122,148364,),0,0,1
6:52.167,148380,(,0,0,2
6:52.272,148418,t,0,0,1
6:52.369,148453,),0,0,2
6:52.794,148606,(,0,0,1
6:52.844,148624,N,0,0,0
6:52.972,148670,),0,0,1
6:53.233,148764,(,0,0,2
6:53.272,148778,t,0,0,5
6:53.333,148800,t,0,0,5
6:53.533,148872,),0,0,2
6:54.347,149165,(,0,0,1
6:54.394,149182,N,0,0,0
6:54.506,149222,),0,0,1
6:54.547,149237,(,0,0,2
6:54.639,149270,t,0,0,4
6:54.750,149310,t,0,0,4
6:54.792,149325,),0,0,2
6:55.153,149455,(,0,0,1
6:55.189,149468,N,0,0,0
6:55.219,149479,),0,0,1
6:55.325,149517,(,0,0,2
6:55.414,149549,t,0,0,1
6:55.511,149584,),0,0,2
6:55.928,149734,(,0,0,1
6:55.972,149750,N,0,0,0
6:56.089,149792,),0,0,1
6:56.731,150023,(,0,0,2
6:56.778,150040,t,0,0,0
6:56.864,150071,),0,0,2
6:58.494,150658,(,0,0,1
6:58.547,150677,N,0,0,0
6:58.658,150717,),0,0,1
6:59.300,150948,(,0,0,2
6:59.344,150964,t,0,0,0
6:59.433,150996,),0,0,2
7:00.094,151234,(,0,0,1
7:00.139,151250,N,0,0,0
7:00.175,151263,),0,0,1
7:00.836,151501,t,0,0,2
7:00.936,151537,),0,0,2
7:02.625,152145,(,0,0,1
7:02.678,152164,N,0,0,0
7:02.794,152206,),0,0,1
7:02.842,152223,(,0,0,2
7:02.928,152254,t,0,0,4
7:03.069,152305,t,0,0,4
7:03.106,152318,),0,0,2
7:03.475,152451,(,0,0,1
7:03.519,152467,N,0,0,0
7:03.550,152478,),0,0,1
7:03.775,152559,(,0,0,2
7:03.861,152590,t,0,0,5
7:04.028,152650,t,0,0,5
7:04.106,152678,),0,0,2
7:05.408,153147,(,0,0,0
7:05.456,153164,p,0,0,0
7:05.533,153192,),0,0,0
7:05.597,153215,(,0,0,1
7:05.697,153251,N,0,0,0
7:05.744,153268,),0,0,1
7:05.831,153299,(,0,0,2
7:05.925,153333,t,0,0,0
7:06.044,153376,),0,0,2
7:12.925,155853,(,0,0,1
7:12.964,155867,N,0,0,0
7:12.992,155877,),0,0,1
7:13.122,155924,(,0,0,2
7:13.183,155946,t,0,0,1
7:13.269,155977,),0,0,2
7:13.344,156004,(,0,0,1
7:13.428,156034,N,0,0,0
7:13.475,156051,),0,0,1
7:13.556,156080,(,0,0,2
7:13.650,156114,t,0,0,4
7:14.178,156304,t,0,0,4
7:14.247,156329,),0,0,2
7:23.142,159531,(,0,0,0
7:23.194,159550,p,0,0,0
7:23.267,159576,),0,0,0
7:23.319,159595,(,0,0,1
7:23.367,159612,N,0,0,0
7:23.467,159648,),0,0,1
7:23.567,159684,(,0,0,2
7:23.639,159710,t,0,0,0
7:23.769,159757,),0,0,2
7:30.311,162112,(,0,0,1
7:30.383,162138,N,0,0,0
7:30.414,162149,),0,0,1
7:30.494,162178,(,0,0,2
7:30.597,162215,t,0,0,1
7:30.683,162246,),0,0,2
7:31.061,162382,(,0,0,1
7:31.114,162401,N,0,0,0
7:31.144,162412,),0,0,1
7:31.264,162455,(,0,0,2
7:31.344,162484,t,0,0,4
7:31.442,162519,t,0,0,4
7:31.511,162544,),0,0,2
7:31.811,162652,(,0,0,1
7:31.861,162670,N,0,0,0
7:31.894,162682,),0,0,1
7:31.900,162684,(,0,0,2
7:32.097,162755,t,0,0,1
7:32.186,162787,),0,0,2
7:32.328,162838,(,0,0,1
7:32.417,162870,N,0,0,0
7:32.475,162891,),0,0,1
7:32.558,162921,(,0,0,2
7:32.664,162959,t,0,0,1
7:32.786,163003,),0,0,2
7:37.953,164863,(,0,0,0
7:38.019,164887,p,0,0,0
7:38.103,164917,),0,0,0
7:38.156,164936,(,0,0,1
7:38.269,164977,N,0,0,0
7:38.272,164978,),0,0,1
7:38.294,164986,(,0,0,2
7:38.514,165065,t,0,0,0
7:38.661,165118,),0,0,2
7:56.000,171360,(,0,0,0
7:56.047,171377,p,0,0,0
7:56.128,171406,),0,0,0
7:56.256,171452,(,0,0,1
7:56.339,171482,N,0,0,0
7:56.478,171532,),0,0,1
7:56.483,171534,(,0,0,2
7:56.578,171568,t,0,0,1
7:56.697,171611,),0,0,2
7:59.842,172743,(,0,0,0
7:59.894,172762,p,0,0,0
7:59.969,172789,),0,0,0
8:00.011,172804,(,0,0,1
8:00.108,172839,N,0,0,0
8:00.111,172840,),0,0,1
8:00.117,172842,(,0,0,2
8:00.325,172917,t,0,0,0
8:00.467,172968,),0,0,2
8:11.028,176770,(,0,0,1
8:11.072,176786,N,0,0,0
8:11.178,176824,),0,0,1
8:11.225,176841,(,0,0,2
8:11.311,176872,t,0,0,1
8:11.400,176904,),0,0,2
8:11.842,177063,(,0,0,1
8:11.883,177078,N,0,0,0
8:12.011,177124,),0,0,1
8:12.661,177358,(,0,0,2
8:12.703,177373,t,0,0,0
8:12.783,177402,),0,0,2
8:14.828,178138,(,0,0,1
8:14.942,178179,N,0,0,0
8:15.006,178202,),0,0,1
8:15.064,178223,(,0,0,2
8:15.197,178271,t,0,0,0
8:15.344,178324,),0,0,2
8:16.417,178710,(,0,0,0
8:16.506,178742,p,0,0,0
8:16.592,178773,),0,0,0
8:16.753,178831,(,0,0,1
8:16.817,178854,N,0,0,0
8:16.906,178886,),0,0,1
8:16.994,178918,(,0,0,2
8:17.103,178957,t,0,0,0
8:17.236,179005,),0,0,2
8:23.514,181265,(,0,0,0
8:23.572,181286,p,0,0,0
8:23.650,181314,),0,0,0
8:23.697,181331,(,0,0,1
8:23.786,181363,N,0,0,0
8:23.803,181369,),0,0,1
8:23.836,181381,(,0,0,2
8:24.008,181443,t,0,0,0
8:24.161,181498,),0,0,2
9:12.425,198873,(,0,0,0
9:12.461,198886,p,0,0,0
9:12.514,198905,),0,0,0
9:12.575,198927,(,0,0,1
9:12.583,198930,(,0,0,0
9:12.617,198942,p,0,0,0
9:12.619,198943,N,0,0,0
9:12.647,198953,),0,0,0
9:12.647,198953,),0,0,1
9:12.806,199010,(,0,0,1
9:12.844,199024,N,0,0,0
9:13.025,199089,),0,0,1
9:13.269,199177,(,0,0,2
9:13.311,199192,t,0,0,0
9:13.394,199222,),0,0,2
9:13.767,199356,(,0,0,0
9:13.803,199369,p,0,0,0
9:13.842,199383,),0,0,0
9:13.969,199429,(,0,0,1
9:14.075,199467,N,0,0,0
9:14.150,199494,),0,0,1
9:14.744,199708,(,0,0,2
9:14.786,199723,t,0,0,0
9:14.831,199739,),0,0,2
9:15.531,199991,(,0,0,0
9:15.567,200004,p,0,0,0
9:15.600,200016,),0,0,0
9:15.822,200096,N,0,0,0
9:15.833,200100,(,0,0,1
9:15.950,200142,),0,0,1
9:16.267,200256,(,0,0,2
9:16.311,200272,t,0,0,0
9:16.364,200291,),0,0,2
9:18.839,201182,(,0,0,0
9:18.889,201200,p,0,0,0
9:18.953,201223,),0,0,0
9:19.036,201253,(,0,0,1
9:19.306,201350,N,0,0,0
9:19.464,201407,),0,0,1
9:19.522,201428,(,0,0,2
9:19.578,201448,t,0,0,0
9:19.639,201470,),0,0,2
9:19.714,201497,(,0,0,0
9:19.750,201510,p,0,0,0
9:19.783,201522,),0,0,0
9:19.889,201560,(,0,0,1
9:19.986,201595,N,0,0,0
9:20.125,201645,),0,0,1
9:20.439,201758,(,0,0,2
9:20.486,201775,t,0,0,0
9:20.581,201809,),0,0,2
9:22.511,202504,(,0,0,0
9:22.550,202518,p,0,0,0
9:22.592,202533,),0,0,0
9:22.717,202578,(,0,0,1
9:22.839,202622,N,0,0,0
9:23.011,202684,),0,0,1
9:23.394,202822,),0,0,2
9:23.422,202832,t,0,0,0
9:23.450,202842,(,0,0,2
9:23.472,202850,(,0,0,1
9:23.719,202939,N,0,0,0
9:23.864,202991,),0,0,1
9:24.144,203092,(,0,0,2
9:24.186,203107,t,0,0,0
9:24.258,203133,),0,0,2
9:24.311,203152,(,0,0,0
9:24.397,203183,p,0,0,0
9:24.475,203211,),0,0,0
9:24.525,203229,(,0,0,1
9:24.625,203265,N,0,0,0
9:24.675,203283,),0,0,1
9:24.783,203322,(,0,0,2
9:24.869,203353,t,0,0,0
9:25.008,203403,),0,0,2
10:20.928,223534,(,0,0,0
10:20.997,223559,p,0,0,0
10:21.086,223591,),0,0,0
10:21.136,223609,(,0,0,1
10:21.256,223652,N,0,0,0
10:21.306,223670,),0,0,1
10:21.331,223679,(,0,0,2
10:21.492,223737,t,0,0,0
10:21.636,223789,),0,0,2
10:25.947,225341,(,0,0,0
10:26.011,225364,p,0,0,0
10:26.094,225394,),0,0,0
10:26.133,225408,(,0,0,1
10:26.256,225452,N,0,0,0
10:26.308,225471,),0,0,1
10:26.325,225477,(,0,0,2
10:26.497,225539,t,0,0,0
10:26.647,225593,),0,0,2
10:29.419,226591,(,0,0,0
10:29.472,226610,p,0,0,0
10:29.544,226636,),0,0,0
10:29.581,226649,(,0,0,1
10:29.678,226684,N,0,0,0
10:29.681,226685,),0,0,1
10:29.686,226687,(,0,0,2
10:29.900,226764,t,0,0,0
10:30.044,226816,),0,0,2
10:42.611,231340,(,0,0,0
10:42.667,231360,p,0,0,0
10:42.736,231385,),0,0,0
10:42.778,231400,(,0,0,1
10:42.892,231441,N,0,0,0
10:42.942,231459,),0,0,1
10:43.000,231480,(,0,0,2
10:43.119,231523,t,0,0,0
10:43.264,231575,),0,0,2
10:48.253,233371,(,0,0,0
10:48.303,233389,p,0,0,0
10:48.378,233416,),0,0,0
10:48.547,233477,(,0,0,1
10:48.617,233502,N,0,0,0
10:48.658,233517,),0,0,1
10:48.811,233572,(,0,0,2
10:48.892,233601,t,0,0,0
10:48.983,233634,),0,0,2
11:02.469,238489,(,0,0,0
11:02.519,238507,p,0,0,0
11:02.578,238528,),0,0,0
11:02.661,238558,(,0,0,1
11:02.717,238578,N,0,0,0
11:02.750,238590,),0,0,1
11:02.789,238604,(,0,0,2
11:02.847,238625,t,0,0,1
11:02.969,238669,),0,0,2
11:03.175,238743,(,0,0,1
11:03.269,238777,N,0,0,0
11:03.317,238794,),0,0,1
11:03.431,238835,(,0,0,2
11:03.517,238866,t,0,0,1
11:03.647,238913,),0,0,2
11:04.244,239128,(,0,0,0
11:04.294,239146,p,0,0,0
11:04.358,239169,),0,0,0
11:04.439,239198,(,0,0,1
11:04.486,239215,N,0,0,0
11:04.522,239228,),0,0,1
11:04.528,239230,(,0,0,2
11:04.719,239299,t,0,0,4
11:04.811,239332,t,0,0,4
11:04.878,239356,),0,0,2
11:05.033,239412,(,0,0,0
11:05.083,239430,p,0,0,0
11:05.136,239449,),0,0,0
11:05.206,239474,(,0,0,1
11:05.250,239490,N,0,0,0
11:05.281,239501,),0,0,1
11:05.369,239533,(,0,0,2
11:05.469,239569,t,0,0,1
11:05.553,239599,),0,0,2
11:05.797,239687,(,0,0,0
11:05.853,239707,p,0,0,0
11:05.900,239724,),0,0,0
11:05.975,239751,(,0,0,1
11:06.022,239768,N,0,0,0
11:06.050,239778,),0,0,1
11:06.158,239817,(,0,0,2
11:06.236,239845,t,0,0,1
11:06.317,239874,),0,0,2
11:06.733,240024,(,0,0,1
11:06.775,240039,N,0,0,0
11:06.806,240050,),0,0,1
11:06.828,240058,(,0,0,2
11:07.006,240122,t,0,0,1
11:07.092,240153,),0,0,2
11:07.358,240249,(,0,0,0
11:07.411,240268,p,0,0,0
11:07.469,240289,),0,0,0
11:07.556,240320,(,0,0,1
11:07.603,240337,N,0,0,0
11:07.633,240348,),0,0,1
11:07.639,240350,(,0,0,2
11:07.836,240421,t,0,0,1
11:07.922,240452,),0,0,2
11:08.386,240619,(,0,0,1
11:08.436,240637,N,0,0,0
11:08.464,240647,),0,0,1
11:08.497,240659,(,0,0,2
11:08.683,240726,t,0,0,1
11:08.769,240757,),0,0,2
11:09.056,240860,(,0,0,0
11:09.097,240875,p,0,0,0
11:09.156,240896,),0,0,0
11:09.242,240927,(,0,0,1
11:09.294,240946,N,0,0,0
11:09.322,240956,),0,0,1
11:09.353,240967,(,0,0,2
11:09.544,241036,t,0,0,1
11:09.636,241069,),0,0,2
11:10.153,241255,(,0,0,1
11:10.203,241273,N,0,0,0
11:10.233,241284,),0,0,1
11:10.278,241300,(,0,0,2
11:10.472,241370,t,0,0,1
11:10.567,241404,),0,0,2
11:10.864,241511,(,0,0,0
11:10.897,241523,p,0,0,0
11:10.956,241544,),0,0,0
11:11.036,241573,(,0,0,1
11:11.083,241590,N,0,0,0
11:11.111,241600,),0,0,1
11:11.147,241613,(,0,0,2
11:11.550,241758,t,0,0,1
11:11.878,241876,),0,0,2
11:12.061,241942,(,0,0,0
11:12.111,241960,p,0,0,0
11:12.178,241984,),0,0,0
11:12.217,241998,(,0,0,1
11:12.319,242035,N,0,0,0
11:12.364,242051,),0,0,1
11:12.419,242071,(,0,0,2
11:12.533,242112,t,0,0,0
11:12.675,242163,),0,0,2
11:13.333,242400,(,0,0,0
11:13.375,242415,p,0,0,0
11:13.425,242433,),0,0,0
11:13.506,242462,(,0,0,1
11:13.558,242481,N,0,0,0
11:13.592,242493,),0,0,1
11:13.597,242495,(,0,0,2
11:13.806,242570,t,0,0,1
11:13.897,242603,),0,0,2
11:14.419,242791,(,0,0,1
11:14.472,242810,N,0,0,0
11:14.500,242820,),0,0,1
11:14.542,242835,(,0,0,2
11:14.739,242906,t,0,0,1
11:14.825,242937,),0,0,2
11:15.178,243064,(,0,0,0
11:15.211,243076,p,0,0,0
11:15.267,243096,),0,0,0
11:15.356,243128,(,0,0,1
11:15.411,243148,N,0,0,0
11:15.444,243160,),0,0,1
11:15.472,243170,(,0,0,2
11:15.672,243242,t,0,0,4
11:16.136,243409,t,0,0,4
11:16.200,243432,),0,0,2
11:18.808,244371,(,0,0,1
11:18.856,244388,N,0,0,0
11:18.886,244399,),0,0,1
11:18.917,244410,(,0,0,2
11:19.097,244475,t,0,0,1
11:19.183,244506,),0,0,2
11:19.456,244604,(,0,0,0
11:19.489,244616,p,0,0,0
11:19.547,244637,),0,0,0
11:19.639,244670,(,0,0,1
11:19.686,244687,N,0,0,0
11:19.714,244697,),0,0,1
11:19.839,244742,(,0,0,2
11:19.878,244756,t,0,0,1
11:19.919,244771,),0,0,2
11:20.036,244813,(,0,0,1
11:20.147,244853,N,0,0,0
11:20.194,244870,),0,0,1
11:20.222,244880,(,0,0,2
11:20.400,244944,t,0,0,0
11:20.556,245000,),0,0,2
11:21.456,245324,(,0,0,1
11:21.517,245346,N,0,0,0
11:21.547,245357,),0,0,1
11:21.553,245359,(,0,0,2
11:21.792,245445,t,0,0,4
11:22.206,245594,t,0,0,4
11:22.264,245615,),0,0,2
11:23.925,246213,(,0,0,1
11:23.967,246228,N,0,0,0
11:23.997,246239,),0,0,1
11:24.114,246281,(,0,0,2
11:24.203,246313,t,0,0,1
11:24.292,246345,),0,0,2
11:24.514,246425,(,0,0,0
11:24.564,246443,p,0,0,0
11:24.617,246462,),0,0,0
11:24.681,246485,(,0,0,1
11:24.728,246502,N,0,0,0
11:24.764,246515,),0,0,1
11:25.478,246772,(,0,0,2
11:25.519,246787,t,0,0,0
11:25.611,246820,),0,0,2
11:26.097,246995,(,0,0,0
11:26.161,247018,p,0,0,0
11:26.214,247037,),0,0,0
11:26.275,247059,(,0,0,1
11:26.328,247078,N,0,0,0
11:26.358,247089,),0,0,1
11:26.364,247091,(,0,0,2
11:26.456,247124,t,0,0,1
11:26.581,247169,),0,0,2
11:26.725,247221,(,0,0,1
11:26.836,247261,N,0,0,0
11:26.892,247281,),0,0,1
11:26.956,247304,(,0,0,2
11:27.072,247346,t,0,0,0
11:27.231,247403,),0,0,2
11:28.031,247691,(,0,0,1
11:28.081,247709,N,0,0,0
11:28.119,247723,),0,0,1
11:28.125,247725,(,0,0,2
11:28.350,247806,t,0,0,1
11:28.461,247846,),0,0,2
11:28.703,247933,(,0,0,0
11:28.764,247955,p,0,0,0
11:28.814,247973,),0,0,0
11:28.875,247995,(,0,0,1
11:28.922,248012,N,0,0,0
11:28.956,248024,),0,0,1
11:28.961,248026,(,0,0,2
11:29.158,248097,t,0,0,1
11:29.247,248129,),0,0,2
11:29.494,248218,(,0,0,0
11:29.539,248234,p,0,0,0
11:29.592,248253,),0,0,0
11:29.653,248275,(,0,0,1
11:29.700,248292,N,0,0,0
11:29.731,248303,),0,0,1
11:29.825,248337,(,0,0,2
11:29.914,248369,t,0,0,4
11:30.008,248403,t,0,0,4
11:30.089,248432,),0,0,2
11:30.406,248546,(,0,0,1
11:30.450,248562,N,0,0,0
11:30.481,248573,),0,0,1
11:30.606,248618,(,0,0,2
11:30.681,248645,t,0,0,1
11:30.778,248680,),0,0,2
11:31.211,248836,(,0,0,1
11:31.261,248854,N,0,0,0
11:31.292,248865,),0,0,1
11:31.683,249006,(,0,0,2
11:31.725,249021,t,0,0,0
11:31.775,249039,),0,0,2
11:32.647,249353,(,0,0,0
11:32.703,249373,p,0,0,0
11:32.764,249395,),0,0,0
11:32.836,249421,(,0,0,1
11:32.886,249439,N,0,0,0
11:32.922,249452,),0,0,1
11:33.039,249494,(,0,0,2
11:33.136,249529,t,0,0,1
11:33.231,249563,),0,0,2
11:33.444,249640,(,0,0,0
11:33.506,249662,p,0,0,0
11:33.561,249682,),0,0,0
11:33.642,249711,(,0,0,1
11:33.697,249731,N,0,0,0
11:33.731,249743,),0,0,1
11:34.422,249992,t,0,0,2
11:34.517,250026,),0,0,2
11:35.258,250293,(,0,0,1
11:35.306,250310,N,0,0,0
11:35.336,250321,),0,0,1
11:35.342,250323,(,0,0,2
11:35.539,250394,t,0,0,1
11:35.628,250426,),0,0,2
11:35.819,250495,(,0,0,0
11:35.869,250513,p,0,0,0
11:35.931,250535,),0,0,0
11:35.992,250557,(,0,0,1
11:36.036,250573,N,0,0,0
11:36.067,250584,),0,0,1
11:36.164,250619,(,0,0,2
11:36.253,250651,t,0,0,1
11:36.336,250681,),0,0,2
11:36.539,250754,(,0,0,0
11:36.600,250776,p,0,0,0
11:36.647,250793,),0,0,0
11:36.711,250816,(,0,0,1
11:36.753,250831,N,0,0,0
11:36.803,250849,),0,0,1
11:36.889,250880,(,0,0,2
11:36.975,250911,t,0,0,1
11:37.067,250944,),0,0,2
11:37.156,250976,(,0,0,0
11:37.208,250995,p,0,0,0
11:37.325,251037,),0,0,0
11:37.472,251090,(,0,0,1
11:37.514,251105,N,0,0,0
11:37.550,251118,),0,0,1
11:37.556,251120,(,0,0,2
11:37.761,251194,t,0,0,1
11:37.853,251227,),0,0,2
11:38.128,251326,(,0,0,0
11:38.175,251343,p,0,0,0
11:38.242,251367,),0,0,0
11:38.314,251393,(,0,0,1
11:38.367,251412,N,0,0,0
11:38.400,251424,),0,0,1
11:38.517,251466,(,0,0,2
11:38.611,251500,t,0,0,4
11:38.725,251541,t,0,0,4
11:38.817,251574,),0,0,2
11:38.964,251627,(,0,0,0
11:39.025,251649,p,0,0,0
11:39.072,251666,),0,0,0
11:39.161,251698,(,0,0,1
11:39.208,251715,N,0,0,0
11:39.242,251727,),0,0,1
11:39.372,251774,(,0,0,2
11:39.436,251797,t,0,0,1
11:39.531,251831,),0,0,2
11:39.778,251920,(,0,0,0
11:39.831,251939,p,0,0,0
11:39.892,251961,),0,0,0
11:39.975,251991,(,0,0,1
11:40.022,252008,N,0,0,0
11:40.053,252019,),0,0,1
11:40.189,252068,(,0,0,2
11:40.253,252091,t,0,0,4
11:40.358,252129,t,0,0,4
11:40.447,252161,),0,0,2
11:40.633,252228,(,0,0,0
11:40.683,252246,p,0,0,0
11:40.736,252265,),0,0,0
11:40.817,252294,(,0,0,1
11:40.864,252311,N,0,0,0
11:40.897,252323,),0,0,1
11:41.003,252361,(,0,0,2
11:41.075,252387,t,0,0,4
11:41.206,252434,t,0,0,4
11:41.264,252455,),0,0,2
11:41.592,252573,(,0,0,1
11:41.636,252589,N,0,0,0
11:41.669,252601,),0,0,1
11:41.783,252642,(,0,0,2
11:41.861,252670,t,0,0,1
11:41.953,252703,),0,0,2
11:42.206,252794,(,0,0,0
11:42.244,252808,p,0,0,0
11:42.303,252829,),0,0,0
11:42.378,252856,(,0,0,1
11:42.428,252874,N,0,0,0
11:42.461,252886,),0,0,1
11:42.464,252887,t,0,0,3
11:42.647,252953,),0,0,2
11:42.767,252996,(,0,0,1
11:42.875,253035,N,0,0,0
11:42.922,253052,),0,0,1
11:43.011,253084,(,0,0,2
11:43.106,253118,t,0,0,0
11:43.250,253170,),0,0,2
11:43.808,253371,(,0,0,0
11:43.858,253389,p,0,0,0
11:43.903,253405,),0,0,0
11:43.978,253432,(,0,0,1
11:44.028,253450,N,0,0,0
11:44.064,253463,),0,0,1
11:44.069,253465,(,0,0,2
11:44.278,253540,t,0,0,4
11:44.706,253694,t,0,0,4
11:44.767,253716,),0,0,2
11:45.528,253990,(,0,0,0
11:45.606,254018,p,0,0,0
11:45.647,254033,),0,0,0
11:45.731,254063,(,0,0,1
11:45.781,254081,N,0,0,0
11:45.817,254094,),0,0,1
11:45.822,254096,(,0,0,2
11:45.914,254129,t,0,0,1
11:46.044,254176,),0,0,2
11:46.183,254226,(,0,0,1
11:46.297,254267,N,0,0,0
11:46.300,254268,),0,0,1
11:46.303,254269,(,0,0,2
11:46.528,254350,t,0,0,0
11:46.667,254400,),0,0,2
11:47.356,254648,(,0,0,1
11:47.397,254663,N,0,0,0
11:47.439,254678,),0,0,1
11:48.100,254916,(,0,0,2
11:48.142,254931,t,0,0,0
11:48.225,254961,),0,0,2
11:50.597,255815,(,0,0,0
11:50.664,255839,p,0,0,0
11:50.744,255868,),0,0,0
11:50.781,255881,(,0,0,1
11:50.889,255920,N,0,0,0
11:50.892,255921,),0,0,1
11:50.897,255923,(,0,0,2
11:51.133,256008,t,0,0,0
11:51.286,256063,),0,0,2
11:53.344,256804,(,0,0,0
11:53.394,256822,p,0,0,0
11:53.439,256838,),0,0,0
11:53.497,256859,(,0,0,1
11:53.542,256875,N,0,0,0
11:53.572,256886,),0,0,1
11:54.200,257112,(,0,0,2
11:54.242,257127,t,0,0,0
11:54.322,257156,),0,0,2
11:58.339,258602,(,0,0,0
11:58.397,258623,p,0,0,0
11:58.481,258653,),0,0,0
11:58.533,258672,(,0,0,1
11:58.653,258715,N,0,0,0
11:58.703,258733,),0,0,1
11:58.764,258755,(,0,0,2
11:58.889,258800,t,0,0,0
11:59.044,258856,),0,0,2
11:59.747,259109,(,0,0,1
11:59.792,259125,N,0,0,0
11:59.828,259138,),0,0,1
12:00.492,259377,(,0,0,2
12:00.533,259392,t,0,0,0
12:00.608,259419,),0,0,2
12:12.736,263785,(,0,0,0
12:12.822,263816,p,0,0,0
12:12.911,263848,),0,0,0
12:12.956,263864,(,0,0,1
12:13.069,263905,N,0,0,0
12:13.119,263923,),0,0,1
12:13.217,263958,(,0,0,2
12:13.314,263993,t,0,0,0
12:13.461,264046,),0,0,2
12:42.114,274361,(,0,0,0
12:42.192,274389,p,0,0,0
12:42.272,274418,),0,0,0
12:42.308,274431,(,0,0,1
12:42.414,274469,N,0,0,0
12:42.458,274485,),0,0,1
12:42.542,274515,(,0,0,2
12:42.622,274544,t,0,0,0
12:42.744,274588,),0,0,2
12:43.489,274856,(,0,0,1
12:43.536,274873,N,0,0,0
12:43.569,274885,),0,0,1
12:44.281,275141,t,0,0,2
12:44.356,275168,),0,0,2
12:47.375,276255,(,0,0,0
12:47.419,276271,p,0,0,0
12:47.478,276292,),0,0,0
12:47.539,276314,(,0,0,1
12:47.586,276331,N,0,0,0
12:47.619,276343,),0,0,1
12:48.306,276590,(,0,0,2
12:48.344,276604,t,0,0,0
12:48.431,276635,),0,0,2
12:51.681,277805,(,0,0,0
12:51.744,277828,p,0,0,0
12:51.828,277858,),0,0,0
12:51.869,277873,(,0,0,1
12:51.992,277917,N,0,0,0
12:52.039,277934,),0,0,1
12:52.136,277969,(,0,0,2
12:52.247,278009,t,0,0,0
12:52.394,278062,),0,0,2
12:59.553,280639,(,0,0,0
12:59.628,280666,p,0,0,0
12:59.703,280693,),0,0,0
12:59.736,280705,(,0,0,1
12:59.842,280743,N,0,0,0
12:59.844,280744,),0,0,1
12:59.894,280762,(,0,0,2
13:00.061,280822,t,0,0,0
13:00.197,280871,),0,0,2
13:07.558,283521,(,0,0,0
13:07.628,283546,p,0,0,0
13:07.708,283575,),0,0,0
13:07.750,283590,(,0,0,1
13:07.861,283630,N,0,0,0
13:07.864,283631,),0,0,1
13:07.869,283633,(,0,0,2
13:08.103,283717,t,0,0,0
13:08.253,283771,),0,0,2
13:25.983,290154,(,0,0,0
13:26.064,290183,p,0,0,0
13:26.147,290213,),0,0,0
13:26.194,290230,(,0,0,1
13:26.314,290273,N,0,0,0
13:26.367,290292,),0,0,1
13:26.428,290314,(,0,0,2
13:26.550,290358,t,0,0,0
13:26.711,290416,),0,0,2
13:30.847,291905,(,0,0,0
13:30.939,291938,p,0,0,0
13:31.011,291964,),0,0,0
13:31.050,291978,(,0,0,1
13:31.156,292016,N,0,0,0
13:31.200,292032,),0,0,1
13:31.275,292059,(,0,0,2
13:31.367,292092,t,0,0,0
13:31.506,292142,),0,0,2
13:48.411,298228,N,0,0,0
13:48.425,298233,(,0,0,1
13:48.692,298329,),0,0,1
13:48.731,298343,(,0,0,2
13:48.783,298362,t,0,0,0
13:48.842,298383,),0,0,2
13:48.925,298413,(,0,0,0
13:48.961,298426,p,0,0,0
13:48.997,298439,),0,0,0
13:49.208,298515,N,0,0,0
13:49.219,298519,(,0,0,1
13:49.331,298559,),0,0,1
13:49.517,298626,(,0,0,2
13:49.581,298649,t,0,0,0
13:49.633,298668,),0,0,2
13:49.719,298699,(,0,0,1
13:50.000,298800,N,0,0,0
13:50.211,298876,),0,0,1
13:50.558,299001,(,0,0,2
13:50.606,299018,t,0,0,0
13:50.642,299031,),0,0,2
13:51.014,299165,(,0,0,1
13:51.136,299209,N,0,0,0
13:51.139,299210,),0,0,1
13:51.144,299212,(,0,0,2
13:51.381,299297,t,0,0,0
13:51.528,299350,),0,0,2
13:57.386,301459,(,0,0,0
13:57.467,301488,p,0,0,0
13:57.556,301520,),0,0,0
13:57.600,301536,(,0,0,1
13:57.728,301582,N,0,0,0
13:57.781,301601,),0,0,1
13:58.206,301754,(,0,0,2
13:58.244,301768,t,0,0,0
13:58.292,301785,),0,0,2
13:58.464,301847,(,0,0,0
13:58.533,301872,p,0,0,0
13:58.575,301887,),0,0,0
13:58.592,301893,(,0,0,1
13:58.706,301934,N,0,0,0
13:58.764,301955,),0,0,1
13:58.825,301977,(,0,0,2
13:58.944,302020,t,0,0,0
13:59.089,302072,),0,0,2
14:11.719,306619,(,0,0,0
14:11.786,306643,p,0,0,0
14:11.861,306670,),0,0,0
14:11.906,306686,(,0,0,1
14:12.017,306726,N,0,0,0
14:12.064,306743,),0,0,1
14:12.358,306849,(,0,0,1
14:12.444,306880,N,0,0,0
14:12.447,306881,),0,0,1
14:12.456,306884,(,0,0,2
14:12.667,306960,t,0,0,0
14:12.822,307016,),0,0,2
14:18.006,308882,(,0,0,0
14:18.058,308901,p,0,0,0
14:18.136,308929,),0,0,0
14:18.275,308979,(,0,0,1
14:18.369,309013,N,0,0,0
14:18.369,309013,),0,0,1
14:18.381,309017,(,0,0,2
14:18.619,309103,t,0,0,0
14:18.767,309156,),0,0,2
14:22.289,310424,(,0,0,0
14:22.356,310448,p,0,0,0
14:22.439,310478,),0,0,0
14:22.478,310492,(,0,0,1
14:22.594,310534,N,0,0,0
14:22.600,310536,),0,0,1
14:22.619,310543,(,0,0,2
14:22.825,310617,t,0,0,0
14:22.983,310674,),0,0,2
14:31.550,313758,(,0,0,0
14:31.633,313788,p,0,0,0
14:31.711,313816,),0,0,0
14:31.753,313831,(,0,0,1
14:31.872,313874,N,0,0,0
14:31.922,313892,),0,0,1
14:31.983,313914,(,0,0,2
14:32.114,313961,t,0,0,0
14:32.264,314015,),0,0,2
14:48.214,319757,(,0,0,0
14:48.286,319783,p,0,0,0
14:48.358,319809,),0,0,0
14:48.397,319823,(,0,0,1
14:48.500,319860,N,0,0,0
14:48.503,319861,),0,0,1
14:48.550,319878,(,0,0,2
14:48.717,319938,t,0,0,0
14:48.853,319987,),0,0,2
15:03.361,325210,(,0,0,0
15:03.431,325235,p,0,0,0
15:03.514,325265,),0,0,0
15:03.653,325315,(,0,0,1
15:03.769,325357,N,0,0,0
15:03.769,325357,),0,0,1
15:03.828,325378,(,0,0,2
15:04.047,325457,t,0,0,0
15:04.192,325509,),0,0,2
15:10.344,327724,(,0,0,0
15:10.394,327742,p,0,0,0
15:10.486,327775,),0,0,0
15:10.522,327788,(,0,0,1
15:10.636,327829,N,0,0,0
15:10.694,327850,),0,0,1
15:10.756,327872,(,0,0,2
15:10.881,327917,t,0,0,0
15:11.025,327969,),0,0,2
15:13.519,328867,(,0,0,0
15:13.600,328896,p,0,0,0
15:13.672,328922,),0,0,0
15:13.728,328942,(,0,0,1
15:13.839,328982,N,0,0,0
15:13.839,328982,),0,0,1
15:13.847,328985,(,0,0,2
15:14.092,329073,t,0,0,0
15:14.258,329133,),0,0,2
15:26.839,333662,(,0,0,0
15:26.903,333685,p,0,0,0
15:26.983,333714,),0,0,0
15:27.031,333731,(,0,0,1
15:27.144,333772,N,0,0,0
15:27.192,333789,),0,0,1
15:27.294,333826,(,0,0,2
15:27.381,333857,t,0,0,0
15:27.533,333912,),0,0,2
15:38.933,338016,(,0,0,0
15:39.006,338042,p,0,0,0
15:39.042,338055,),0,0,0
15:39.075,338067,(,0,0,1
15:39.122,338084,N,0,0,0
15:39.150,338094,),0,0,1
15:39.181,338105,(,0,0,2
15:39.378,338176,t,0,0,1
15:39.475,338211,),0,0,2
15:40.247,338489,(,0,0,0
15:40.322,338516,p,0,0,0
15:40.400,338544,),0,0,0
15:40.497,338579,(,0,0,1
15:40.578,338608,N,0,0,0
15:40.631,338627,),0,0,1
15:40.722,338660,(,0,0,2
15:40.811,338692,t,0,0,1
15:40.922,338732,),0,0,2
15:41.825,339057,(,0,0,1
15:41.867,339072,N,0,0,0
15:41.903,339085,),0,0,1
15:42.017,339126,(,0,0,2
15:42.103,339157,t,0,0,1
15:42.200,339192,),0,0,2
15:42.681,339365,(,0,0,1
15:42.728,339382,N,0,0,0
15:42.761,339394,),0,0,1
15:42.869,339433,(,0,0,2
15:42.967,339468,t,0,0,1
15:43.058,339501,),0,0,2
15:43.561,339682,(,0,0,1
15:43.611,339700,N,0,0,0
15:43.642,339711,),0,0,1
15:43.750,339750,(,0,0,2
15:43.844,339784,t,0,0,1
15:43.931,339815,),0,0,2
15:44.303,339949,(,0,0,0
15:44.361,339970,p,0,0,0
15:44.392,339981,),0,0,0
15:44.425,339993,(,0,0,1
15:44.469,340009,N,0,0,0
15:44.506,340022,),0,0,1
15:44.931,340175,(,0,0,2
15:44.969,340189,t,0,0,5
15:45.022,340208,t,0,0,5
15:45.072,340226,),0,0,2
15:46.306,340670,(,0,0,1
15:46.353,340687,N,0,0,0
15:46.383,340698,),0,0,1
15:46.389,340700,(,0,0,2
15:46.617,340782,t,0,0,1
15:46.725,340821,),0,0,2
15:47.194,340990,(,0,0,1
15:47.236,341005,N,0,0,0
15:47.269,341017,),0,0,1
15:47.372,341054,(,0,0,2
15:47.475,341091,t,0,0,1
15:47.564,341123,),0,0,2
15:47.994,341278,(,0,0,1
15:48.036,341293,N,0,0,0
15:48.069,341305,),0,0,1
15:48.181,341345,(,0,0,2
15:48.261,341374,t,0,0,1
15:48.347,341405,),0,0,2
15:48.775,341559,(,0,0,1
15:48.825,341577,N,0,0,0
15:48.858,341589,),0,0,1
15:48.864,341591,(,0,0,2
15:49.078,341668,t,0,0,1
15:49.172,341702,),0,0,2
15:49.419,341791,(,0,0,0
15:49.500,341820,p,0,0,0
15:49.539,341834,),0,0,0
15:49.614,341861,(,0,0,1
15:49.664,341879,N,0,0,0
15:49.700,341892,),0,0,1
15:50.403,342145,t,0,0,2
15:50.497,342179,),0,0,2
15:52.153,342775,(,0,0,1
15:52.203,342793,N,0,0,0
15:52.239,342806,),0,0,1
15:52.353,342847,(,0,0,2
15:52.439,342878,t,0,0,1
15:52.536,342913,),0,0,2
15:52.994,343078,(,0,0,1
15:53.039,343094,N,0,0,0
15:53.075,343107,),0,0,1
15:53.758,343353,t,0,0,2
15:53.842,343383,),0,0,2
15:59.489,345416,(,0,0,1
15:59.533,345432,N,0,0,0
15:59.569,345445,),0,0,1
16:00.225,345681,(,0,0,2
16:00.269,345697,t,0,0,0
16:00.353,345727,),0,0,2
16:01.733,346224,(,0,0,1
16:01.778,346240,N,0,0,0
16:01.817,346254,),0,0,1
16:01.906,346286,(,0,0,2
16:02.011,346324,t,0,0,1
16:02.100,346356,),0,0,2
16:02.514,346505,(,0,0,1
16:02.561,346522,N,0,0,0
16:02.597,346535,),0,0,1
16:02.603,346537,(,0,0,2
16:02.819,346615,t,0,0,1
16:02.922,346652,),0,0,2
16:06.697,348011,(,0,0,0
16:06.778,348040,p,0,0,0
16:06.858,348069,),0,0,0
16:06.894,348082,(,0,0,1
16:07.006,348122,N,0,0,0
16:07.069,348145,),0,0,1
16:07.150,348174,(,0,0,2
16:07.233,348204,t,0,0,0
16:07.381,348257,),0,0,2
16:11.283,349662,(,0,0,0
16:11.342,349683,p,0,0,0
16:11.389,349700,),0,0,0
16:11.456,349724,(,0,0,1
16:11.500,349740,N,0,0,0
16:11.544,349756,),0,0,1
16:12.194,349990,(,0,0,2
16:12.236,350005,t,0,0,0
16:12.322,350036,),0,0,2
16:14.900,350964,(,0,0,0
16:14.958,350985,p,0,0,0
16:15.039,351014,),0,0,0
16:15.083,351030,(,0,0,1
16:15.206,351074,N,0,0,0
16:15.208,351075,),0,0,1
16:15.264,351095,(,0,0,2
16:15.456,351164,t,0,0,0
16:15.625,351225,),0,0,2
16:23.294,353986,(,0,0,1
16:23.342,354003,N,0,0,0
16:23.378,354016,),0,0,1
16:23.703,354133,(,0,0,2
16:23.742,354147,t,0,0,5
16:23.811,354172,t,0,0,5
16:24.019,354247,),0,0,2
16:24.786,354523,(,0,0,0
16:24.842,354543,p,0,0,0
16:24.886,354559,),0,0,0
16:24.961,354586,(,0,0,1
16:25.008,354603,N,0,0,0
16:25.053,354619,),0,0,1
16:25.058,354621,(,0,0,2
16:25.250,354690,t,0,0,1
16:25.344,354724,),0,0,2
16:25.747,354869,(,0,0,1
16:25.797,354887,N,0,0,0
16:25.836,354901,),0,0,1
16:25.842,354903,(,0,0,2
16:26.292,355065,t,0,0,1
16:26.642,355191,),0,0,2
16:27.536,355513,(,0,0,1
16:27.639,355550,N,0,0,0
16:27.667,355560,),0,0,1
16:27.692,355569,(,0,0,2
16:27.886,355639,t,0,0,0
16:28.047,355697,),0,0,2
16:28.739,355946,(,0,0,0
16:28.744,355948,p,0,0,0
16:28.867,355992,),0,0,0
16:29.000,356040,(,0,0,1
16:29.044,356056,N,0,0,0
16:29.083,356070,),0,0,1
16:29.089,356072,(,0,0,2
16:29.292,356145,t,0,0,1
16:29.392,356181,),0,0,2
16:29.600,356256,(,0,0,0
16:29.647,356273,p,0,0,0
16:29.700,356292,),0,0,0
16:29.767,356316,(,0,0,1
16:29.811,356332,N,0,0,0
16:29.844,356344,),0,0,1
16:29.942,356379,(,0,0,2
16:30.042,356415,t,0,0,1
16:30.133,356448,),0,0,2
16:30.508,356583,(,0,0,1
16:30.550,356598,N,0,0,0
16:30.586,356611,),0,0,1
16:30.686,356647,(,0,0,2
16:30.781,356681,t,0,0,1
16:30.872,356714,),0,0,2
16:31.250,356850,(,0,0,1
16:31.300,356868,N,0,0,0
16:31.333,356880,),0,0,1
16:32.006,357122,(,0,0,2
16:32.050,357138,t,0,0,0
16:32.136,357169,),0,0,2
16:33.542,357675,(,0,0,1
16:33.592,357693,N,0,0,0
16:33.633,357708,),0,0,1
16:33.639,357710,(,0,0,2
16:33.839,357782,t,0,0,1
16:33.925,357813,),0,0,2
16:34.119,357883,(,0,0,0
16:34.167,357900,p,0,0,0
16:34.239,357926,),0,0,0
16:34.317,357954,(,0,0,1
16:34.369,357973,N,0,0,0
16:34.408,357987,),0,0,1
16:35.114,358241,(,0,0,2
16:35.158,358257,t,0,0,0
16:35.253,358291,),0,0,2
16:35.672,358442,(,0,0,0
16:35.722,358460,p,0,0,0
16:35.775,358479,),0,0,0
16:35.839,358502,(,0,0,1
16:35.883,358518,N,0,0,0
16:35.919,358531,),0,0,1
16:36.550,358758,(,0,0,2
16:36.592,358773,t,0,0,0
16:36.672,358802,),0,0,2
16:37.283,359022,(,0,0,1
16:37.328,359038,N,0,0,0
16:37.358,359049,),0,0,1
16:37.475,359091,(,0,0,2
16:37.567,359124,t,0,0,4
16:37.683,359166,t,0,0,4
16:37.733,359184,),0,0,2
16:37.886,359239,(,0,0,0
16:37.950,359262,p,0,0,0
16:38.000,359280,),0,0,0
16:38.083,359310,(,0,0,1
16:38.133,359328,N,0,0,0
16:38.167,359340,),0,0,1
16:38.839,359582,t,0,0,2
16:38.939,359618,),0,0,2
16:44.700,361692,(,0,0,0
16:44.758,361713,p,0,0,0
16:44.842,361743,),0,0,0
16:44.914,361769,(,0,0,1
16:45.050,361818,N,0,0,0
16:45.097,361835,),0,0,1
16:45.208,361875,(,0,0,2
16:45.300,361908,t,0,0,0
16:45.456,361964,),0,0,2
16:46.094,362194,(,0,0,0
16:46.158,362217,p,0,0,0
16:46.206,362234,),0,0,0
16:46.283,362262,(,0,0,1
16:46.328,362278,N,0,0,0
16:46.369,362293,),0,0,1
16:47.064,362543,t,0,0,2
16:47.142,362571,),0,0,2
16:48.669,363121,(,0,0,1
16:48.708,363135,N,0,0,0
16:48.742,363147,),0,0,1
16:49.444,363400,t,0,0,2
16:49.539,363434,),0,0,2
16:57.939,366458,(,0,0,1
16:57.983,366474,N,0,0,0
16:58.031,366491,),0,0,1
16:58.744,366748,t,0,0,2
16:58.814,366773,),0,0,2
17:00.372,367334,(,0,0,1
17:00.411,367348,N,0,0,0
17:00.456,367364,),0,0,1
17:00.542,367395,(,0,0,2
17:00.633,367428,t,0,0,1
17:00.722,367460,),0,0,2
17:00.922,367532,(,0,0,0
17:00.978,367552,p,0,0,0
17:01.036,367573,),0,0,0
17:01.108,367599,(,0,0,1
17:01.150,367614,N,0,0,0
17:01.186,367627,),0,0,1
17:01.886,367879,(,0,0,2
17:01.931,367895,t,0,0,0
17:02.017,367926,),0,0,2
17:03.778,368560,(,0,0,0
17:03.842,368583,p,0,0,0
17:03.928,368614,),0,0,0
17:03.972,368630,(,0,0,1
17:04.092,368673,N,0,0,0
17:04.147,368693,),0,0,1
17:04.217,368718,(,0,0,2
17:04.336,368761,t,0,0,0
17:04.492,368817,),0,0,2
17:05.064,369023,(,0,0,0
17:05.119,369043,p,0,0,0
17:05.158,369057,),0,0,0
17:05.225,369081,(,0,0,1
17:05.267,369096,N,0,0,0
17:05.303,369109,),0,0,1
17:05.989,369356,(,0,0,2
17:06.031,369371,t,0,0,0
17:06.111,369400,),0,0,2
17:07.533,369912,(,0,0,1
17:07.581,369929,N,0,0,0
17:07.614,369941,),0,0,1
17:08.297,370187,(,0,0,2
17:08.344,370204,t,0,0,0
17:08.428,370234,),0,0,2
17:09.950,370782,(,0,0,1
17:10.000,370800,N,0,0,0
17:10.039,370814,),0,0,1
17:10.722,371060,t,0,0,2
17:10.811,371092,),0,0,2
17:12.233,371604,(,0,0,1
17:12.278,371620,N,0,0,0
17:12.308,371631,),0,0,1
17:12.972,371870,(,0,0,2
17:13.019,371887,t,0,0,0
17:13.108,371919,),0,0,2
17:15.133,372648,(,0,0,0
17:15.183,372666,p,0,0,0
17:15.250,372690,),0,0,0
17:15.322,372716,(,0,0,1
17:15.369,372733,N,0,0,0
17:15.403,372745,),0,0,1
17:16.111,373000,t,0,0,2
17:16.192,373029,),0,0,2
17:19.469,374209,(,0,0,0
17:19.531,374231,p,0,0,0
17:19.608,374259,),0,0,0
17:19.644,374272,(,0,0,1
17:19.764,374315,N,0,0,0
17:19.814,374333,),0,0,1
17:19.836,374341,(,0,0,2
17:20.003,374401,t,0,0,0
17:20.158,374457,),0,0,2
17:26.142,376611,(,0,0,1
17:26.186,376627,N,0,0,0
17:26.219,376639,),0,0,1
17:26.358,376689,(,0,0,2
17:26.439,376718,t,0,0,4
17:26.894,376882,t,0,0,4
17:26.969,376909,),0,0,2
17:29.742,377907,(,0,0,1
17:29.786,377923,N,0,0,0
17:29.825,377937,),0,0,1
17:30.494,378178,t,0,0,2
17:30.597,378215,),0,0,2
17:34.228,379522,(,0,0,1
17:34.278,379540,N,0,0,0
17:34.317,379554,),0,0,1
17:34.881,379757,(,0,0,2
17:34.925,379773,t,0,0,0
17:34.978,379792,),0,0,2
17:35.864,380111,(,0,0,0
17:35.894,380122,p,0,0,0
17:35.950,380142,),0,0,0
17:36.028,380170,(,0,0,1
17:36.067,380184,N,0,0,0
17:36.106,380198,),0,0,1
17:36.792,380445,t,0,0,2
17:36.897,380483,),0,0,2
17:37.686,380767,(,0,0,1
17:37.733,380784,N,0,0,0
17:37.781,380801,),0,0,1
17:37.875,380835,(,0,0,2
17:37.978,380872,t,0,0,1
17:38.075,380907,),0,0,2
17:38.558,381081,(,0,0,1
17:38.606,381098,N,0,0,0
17:38.644,381112,),0,0,1
17:38.650,381114,(,0,0,2
17:38.861,381190,t,0,0,4
17:39.306,381350,t,0,0,4
17:39.361,381370,),0,0,2
17:39.650,381474,(,0,0,0
17:39.731,381503,p,0,0,0
17:39.811,381532,),0,0,0
17:39.853,381547,(,0,0,1
17:39.972,381590,N,0,0,0
17:39.978,381592,),0,0,1
17:40.033,381612,(,0,0,2
17:40.214,381677,t,0,0,0
17:40.378,381736,),0,0,2
17:41.019,381967,(,0,0,0
17:41.097,381995,p,0,0,0
17:41.142,382011,),0,0,0
17:41.217,382038,(,0,0,1
17:41.261,382054,N,0,0,0
17:41.303,382069,),0,0,1
17:41.997,382319,(,0,0,2
17:42.039,382334,t,0,0,0
17:42.131,382367,),0,0,2
17:42.550,382518,(,0,0,0
17:42.617,382542,p,0,0,0
17:42.656,382556,),0,0,0
17:42.731,382583,(,0,0,1
17:42.772,382598,N,0,0,0
17:42.819,382615,),0,0,1
17:42.897,382643,(,0,0,2
17:43.014,382685,t,0,0,1
17:43.108,382719,),0,0,2
17:43.294,382786,(,0,0,0
17:43.375,382815,p,0,0,0
17:43.419,382831,),0,0,0
17:43.497,382859,(,0,0,1
17:43.547,382877,N,0,0,0
17:43.597,382895,),0,0,1
17:44.261,383134,t,0,0,2
17:44.342,383163,),0,0,2
17:57.353,387847,(,0,0,1
17:57.406,387866,N,0,0,0
17:57.467,387888,),0,0,1
17:58.089,388112,(,0,0,2
17:58.136,388129,t,0,0,0
17:58.225,388161,),0,0,2
17:59.350,388566,(,0,0,0
17:59.408,388587,p,0,0,0
17:59.461,388606,),0,0,0
17:59.528,388630,(,0,0,1
17:59.572,388646,N,0,0,0
17:59.603,388657,),0,0,1
18:00.189,388868,(,0,0,2
18:00.231,388883,t,0,0,0
18:00.303,388909,),0,0,2
18:17.933,395256,(,0,0,0
18:18.017,395286,p,0,0,0
18:18.086,395311,),0,0,0
18:18.128,395326,(,0,0,1
18:18.236,395365,N,0,0,0
18:18.242,395367,),0,0,1
18:18.258,395373,(,0,0,2
18:18.450,395442,t,0,0,0
18:18.581,395489,),0,0,2
18:23.181,397145,(,0,0,1
18:23.228,397162,N,0,0,0
18:23.267,397176,),0,0,1
18:23.292,397185,(,0,0,2
18:23.497,397259,t,0,0,0
18:23.628,397306,),0,0,2
18:37.717,402378,(,0,0,1
18:37.828,402418,N,0,0,0
18:37.881,402437,),0,0,1
18:37.936,402457,(,0,0,2
18:38.053,402499,t,0,0,0
18:38.192,402549,),0,0,2
19:05.636,412429,(,0,0,1
19:05.750,412470,N,0,0,0
19:05.772,412478,),0,0,1
19:05.775,412479,t,0,0,2
19:05.989,412556,),0,0,2
19:06.019,412567,(,0,0,1
19:06.128,412606,N,0,0,0
19:06.192,412629,),0,0,1
19:06.239,412646,(,0,0,2
19:06.336,412681,t,0,0,0
19:06.458,412725,),0,0,2
19:56.719,430819,(,0,0,1
19:56.839,430862,N,0,0,0
19:56.883,430878,),0,0,1
19:56.944,430900,(,0,0,2
19:57.072,430946,t,0,0,0
19:57.222,431000,),0,0,2
20:14.100,437076,(,0,0,1
20:14.153,437095,N,0,0,0
20:14.281,437141,),0,0,1
20:14.303,437149,(,0,0,2
20:14.411,437188,t,0,0,1
20:14.500,437220,),0,0,2
20:15.000,437400,(,0,0,1
20:15.058,437421,N,0,0,0
20:15.181,437465,),0,0,1
20:15.219,437479,(,0,0,2
20:15.322,437516,t,0,0,1
20:15.408,437547,),0,0,2
20:15.919,437731,(,0,0,1
20:15.969,437749,N,0,0,0
20:16.003,437761,),0,0,1
20:16.431,437915,(,0,0,2
20:16.467,437928,t,0,0,5
20:16.519,437947,t,0,0,5
20:16.564,437963,),0,0,2
20:17.733,438384,(,0,0,1
20:17.781,438401,N,0,0,0
20:17.869,438433,),0,0,1
20:17.933,438456,(,0,0,2
20:18.011,438484,t,0,0,4
20:18.103,438517,t,0,0,4
20:18.172,438542,),0,0,2
20:18.586,438691,(,0,0,1
20:18.631,438707,N,0,0,0
20:18.750,438750,),0,0,1
20:18.772,438758,(,0,0,2
20:18.864,438791,t,0,0,1
20:18.942,438819,),0,0,2
20:19.436,438997,(,0,0,1
20:19.478,439012,N,0,0,0
20:19.600,439056,),0,0,1
20:19.642,439071,(,0,0,2
20:19.711,439096,t,0,0,4
20:19.808,439131,t,0,0,4
20:19.903,439165,),0,0,2
20:20.283,439302,(,0,0,1
20:20.325,439317,N,0,0,0
20:20.453,439363,),0,0,1
20:20.461,439366,(,0,0,2
20:20.581,439409,t,0,0,1
20:20.672,439442,),0,0,2
20:21.219,439639,(,0,0,1
20:21.272,439658,N,0,0,0
20:21.383,439698,),0,0,1
20:21.467,439728,(,0,0,2
20:21.542,439755,t,0,0,4
20:21.656,439796,t,0,0,4
20:21.750,439830,),0,0,2
20:22.172,439982,(,0,0,1
20:22.225,440001,N,0,0,0
20:22.353,440047,),0,0,1
20:22.669,440161,(,0,0,2
20:22.706,440174,t,0,0,0
20:22.750,440190,),0,0,2
20:23.936,440617,(,0,0,1
20:23.983,440634,N,0,0,0
20:24.086,440671,),0,0,1
20:24.100,440676,(,0,0,2
20:24.206,440714,t,0,0,4
20:24.306,440750,t,0,0,4
20:24.383,440778,),0,0,2
20:24.750,440910,(,0,0,1
20:24.792,440925,N,0,0,0
20:24.819,440935,),0,0,1
20:24.933,440976,(,0,0,2
20:25.019,441007,t,0,0,4
20:25.122,441044,t,0,0,4
20:25.181,441065,),0,0,2
20:25.617,441222,(,0,0,1
20:25.664,441239,N,0,0,0
20:25.783,441282,),0,0,1
20:25.800,441288,(,0,0,2
20:25.903,441325,t,0,0,1
20:25.986,441355,),0,0,2
20:26.492,441537,(,0,0,1
20:26.539,441554,N,0,0,0
20:26.636,441589,),0,0,1
20:26.694,441610,(,0,0,2
20:26.781,441641,t,0,0,1
20:26.867,441672,),0,0,2
20:27.322,441836,(,0,0,1
20:27.397,441863,N,0,0,0
20:27.506,441902,),0,0,1
20:27.567,441924,(,0,0,2
20:27.656,441956,t,0,0,1
20:27.744,441988,),0,0,2
20:28.306,442190,(,0,0,1
20:28.358,442209,N,0,0,0
20:28.492,442257,),0,0,1
20:28.544,442276,(,0,0,2
20:28.617,442302,t,0,0,4
20:28.742,442347,t,0,0,4
20:28.836,442381,),0,0,2
20:29.189,442508,(,0,0,1
20:29.233,442524,N,0,0,0
20:29.342,442563,),0,0,1
20:29.372,442574,(,0,0,2
20:29.472,442610,t,0,0,1
20:29.553,442639,),0,0,2
20:29.992,442797,(,0,0,1
20:30.039,442814,N,0,0,0
20:30.172,442862,),0,0,1
20:30.200,442872,(,0,0,2
20:30.267,442896,t,0,0,1
20:30.344,442924,),0,0,2
20:30.822,443096,(,0,0,1
20:30.864,443111,N,0,0,0
20:30.956,443144,),0,0,1
20:31.006,443162,(,0,0,2
20:31.094,443194,t,0,0,1
20:31.178,443224,),0,0,2
20:31.642,443391,(,0,0,1
20:31.686,443407,N,0,0,0
20:31.806,443450,),0,0,1
20:31.844,443464,(,0,0,2
20:31.933,443496,t,0,0,4
20:32.039,443534,t,0,0,4
20:32.103,443557,),0,0,2
20:32.522,443708,(,0,0,1
20:32.589,443732,N,0,0,0
20:32.706,443774,),0,0,1
20:32.750,443790,t,0,0,3
20:32.842,443823,),0,0,2
20:33.092,443913,(,0,0,1
20:33.156,443936,N,0,0,0
20:33.194,443950,),0,0,1
20:33.256,443972,(,0,0,2
20:33.492,444057,t,0,0,0
20:33.619,444103,),0,0,2
20:34.328,444358,(,0,0,1
20:34.378,444376,N,0,0,0
20:34.492,444417,),0,0,1
20:34.894,444562,(,0,0,2
20:34.942,444579,t,0,0,1
20:35.183,444666,),0,0,2
20:35.992,444957,(,0,0,1
20:36.061,444982,N,0,0,0
20:36.158,445017,),0,0,1
20:36.239,445046,(,0,0,2
20:36.300,445068,t,0,0,1
20:36.386,445099,),0,0,2
20:36.758,445233,(,0,0,1
20:36.808,445251,N,0,0,0
20:36.925,445293,),0,0,1
20:36.950,445302,(,0,0,2
20:37.042,445335,t,0,0,1
20:37.136,445369,),0,0,2
20:37.531,445511,(,0,0,1
20:37.578,445528,N,0,0,0
20:37.681,445565,),0,0,1
20:37.739,445586,(,0,0,2
20:37.828,445618,t,0,0,4
20:37.933,445656,t,0,0,4
20:37.983,445674,),0,0,2
20:38.311,445792,(,0,0,1
20:38.358,445809,N,0,0,0
20:38.478,445852,),0,0,1
20:39.103,446077,t,0,0,2
20:39.186,446107,),0,0,2
20:39.597,446255,(,0,0,1
20:39.653,446275,N,0,0,0
20:39.781,446321,),0,0,1
20:39.889,446360,(,0,0,2
20:39.989,446396,t,0,0,0
20:40.119,446443,),0,0,2
20:40.828,446698,(,0,0,1
20:40.872,446714,N,0,0,0
20:40.961,446746,),0,0,1
20:41.569,446965,(,0,0,2
20:41.611,446980,t,0,0,0
20:41.694,447010,),0,0,2
20:42.300,447228,(,0,0,1
20:42.350,447246,N,0,0,0
20:42.381,447257,),0,0,1
20:42.386,447259,(,0,0,2
20:42.581,447329,t,0,0,1
20:42.658,447357,),0,0,2
20:43.031,447491,(,0,0,1
20:43.083,447510,N,0,0,0
20:43.214,447557,),0,0,1
20:43.222,447560,(,0,0,2
20:43.322,447596,t,0,0,4
20:43.436,447637,t,0,0,4
20:43.506,447662,),0,0,2
20:43.764,447755,(,0,0,1
20:43.814,447773,N,0,0,0
20:43.911,447808,),0,0,1
20:43.967,447828,(,0,0,2
20:44.058,447861,t,0,0,1
20:44.147,447893,),0,0,2
20:44.531,448031,(,0,0,1
20:44.581,448049,N,0,0,0
20:44.611,448060,),0,0,1
20:45.322,448316,(,0,0,2
20:45.369,448333,t,0,0,0
20:45.467,448368,),0,0,2
20:46.150,448614,(,0,0,1
20:46.197,448631,N,0,0,0
20:46.297,448667,),0,0,1
20:46.350,448686,(,0,0,2
20:46.456,448724,t,0,0,1
20:46.553,448759,),0,0,2
20:46.964,448907,(,0,0,1
20:47.003,448921,N,0,0,0
20:47.100,448956,),0,0,1
20:47.678,449164,(,0,0,2
20:47.719,449179,t,0,0,0
20:47.800,449208,),0,0,2
20:48.361,449410,(,0,0,1
20:48.408,449427,N,0,0,0
20:48.439,449438,),0,0,1
20:49.108,449679,(,0,0,2
20:49.150,449694,t,0,0,0
20:49.236,449725,),0,0,2
20:49.572,449846,(,0,0,1
20:49.650,449874,N,0,0,0
20:49.767,449916,),0,0,1
20:49.781,449921,(,0,0,2
20:49.869,449953,t,0,0,1
20:49.986,449995,),0,0,2
21:07.708,456375,(,0,0,1
21:07.786,456403,N,0,0,0
21:07.906,456446,),0,0,1
21:07.922,456452,(,0,0,2
21:08.008,456483,t,0,0,1
21:08.117,456522,),0,0,2
21:10.261,457294,(,0,0,1
21:10.306,457310,N,0,0,0
21:10.397,457343,),0,0,1
21:10.428,457354,(,0,0,2
21:10.606,457418,t,0,0,0
21:10.756,457472,),0,0,2
21:11.397,457703,(,0,0,1
21:11.442,457719,N,0,0,0
21:11.558,457761,),0,0,1
21:12.086,457951,(,0,0,2
21:12.125,457965,t,0,0,0
21:12.200,457992,),0,0,2
21:12.475,458091,(,0,0,1
21:12.519,458107,N,0,0,0
21:12.578,458128,),0,0,1
21:12.583,458130,(,0,0,2
21:12.786,458203,t,0,0,0
21:12.917,458250,),0,0,2
21:14.689,458888,(,0,0,1
21:14.742,458907,N,0,0,0
21:14.811,458932,),0,0,1
21:14.817,458934,(,0,0,2
21:15.058,459021,t,0,0,0
21:15.194,459070,),0,0,2
21:38.342,467403,(,0,0,1
21:38.392,467421,N,0,0,0
21:38.472,467450,),0,0,1
21:38.489,467456,(,0,0,2
21:38.714,467537,t,0,0,0
21:38.872,467594,),0,0,2
21:43.194,469150,(,0,0,1
21:43.233,469164,N,0,0,0
21:43.339,469202,),0,0,1
21:43.394,469222,(,0,0,2
21:43.503,469261,t,0,0,0
21:43.644,469312,),0,0,2
21:54.150,473094,(,0,0,1
21:54.189,473108,N,0,0,0
21:54.247,473129,),0,0,1
21:54.250,473130,(,0,0,2
21:54.475,473211,t,0,0,0
21:54.608,473259,),0,0,2
22:38.731,489143,(,0,0,1
22:38.778,489160,N,0,0,0
22:38.847,489185,),0,0,1
22:38.856,489188,(,0,0,2
22:39.100,489276,t,0,0,0
22:39.242,489327,),0,0,2
23:01.117,497202,(,0,0,1
23:01.236,497245,N,0,0,0
23:01.306,497270,),0,0,1
23:01.383,497298,(,0,0,2
23:01.472,497330,t,0,0,0
23:01.619,497383,),0,0,2
23:13.533,501672,(,0,0,1
23:13.639,501710,N,0,0,0
23:13.683,501726,),0,0,1
23:13.733,501744,(,0,0,2
23:13.856,501788,t,0,0,0
23:13.997,501839,),0,0,2
23:22.619,504943,(,0,0,1
23:22.753,504991,N,0,0,0
23:22.756,504992,),0,0,1
23:22.758,504993,t,0,0,2
23:22.992,505077,),0,0,2
23:23.328,505198,(,0,0,1
23:23.375,505215,N,0,0,0
23:23.467,505248,),0,0,1
23:23.483,505254,(,0,0,2
23:23.553,505279,t,0,0,1
23:23.678,505324,),0,0,2
23:43.958,512625,(,0,0,1
23:44.072,512666,N,0,0,0
23:44.117,512682,),0,0,1
23:44.136,512689,(,0,0,2
23:44.314,512753,t,0,0,0
23:44.464,512807,),0,0,2
24:16.297,524267,(,0,0,1
24:16.431,524315,N,0,0,0
24:16.478,524332,),0,0,1
24:16.558,524361,(,0,0,2
24:16.667,524400,t,0,0,0
24:16.822,524456,),0,0,2
24:34.297,530747,(,0,0,1
24:34.411,530788,N,0,0,0
24:34.467,530808,),0,0,1
24:34.494,530818,(,0,0,2
24:34.664,530879,t,0,0,0
24:34.803,530929,),0,0,2
24:39.178,532504,(,0,0,1
24:39.283,532542,N,0,0,0
24:39.344,532564,),0,0,1
24:39.408,532587,(,0,0,2
24:39.531,532631,t,0,0,0
24:39.703,532693,),0,0,2
24:43.939,534218,(,0,0,1
24:44.078,534268,N,0,0,0
24:44.142,534291,),0,0,1
24:44.194,534310,(,0,0,2
24:44.317,534354,t,0,0,0
24:44.442,534399,),0,0,2
24:49.883,536358,(,0,0,1
24:49.931,536375,N,0,0,0
24:49.964,536387,),0,0,1
24:50.089,536432,(,0,0,2
24:50.189,536468,t,0,0,4
24:50.317,536514,t,0,0,4
24:50.353,536527,),0,0,2
24:50.661,536638,(,0,0,1
24:50.736,536665,N,0,0,0
24:50.914,536729,),0,0,1
24:50.928,536734,(,0,0,2
24:50.983,536754,t,0,0,4
24:51.150,536814,t,0,0,4
24:51.178,536824,),0,0,2
24:51.456,536924,(,0,0,1
24:51.536,536953,N,0,0,0
24:51.667,537000,),0,0,1
24:51.692,537009,(,0,0,2
24:51.769,537037,t,0,0,4
24:51.889,537080,t,0,0,4
24:51.914,537089,),0,0,2
24:52.314,537233,(,0,0,1
24:52.367,537252,N,0,0,0
24:52.556,537320,),0,0,1
24:52.611,537340,(,0,0,2
24:52.636,537349,t,0,0,4
24:52.792,537405,t,0,0,4
24:52.817,537414,),0,0,2
24:53.150,537534,(,0,0,1
24:53.200,537552,N,0,0,0
24:53.253,537571,),0,0,1
24:53.389,537620,(,0,0,2
24:53.425,537633,t,0,0,4
24:53.631,537707,t,0,0,4
24:53.653,537715,),0,0,2
24:53.864,537791,(,0,0,1
24:53.936,537817,N,0,0,0
24:53.967,537828,),0,0,1
24:54.094,537874,(,0,0,2
24:54.144,537892,t,0,0,4
24:54.272,537938,t,0,0,4
24:54.322,537956,),0,0,2
24:54.561,538042,(,0,0,1
24:54.647,538073,N,0,0,0
24:54.800,538128,),0,0,1
24:54.856,538148,(,0,0,2
24:54.878,538156,t,0,0,1
24:54.950,538182,),0,0,2
24:55.317,538314,(,0,0,1
24:55.389,538340,N,0,0,0
24:55.514,538385,),0,0,1
24:55.544,538396,(,0,0,2
24:55.611,538420,t,0,0,1
24:55.692,538449,),0,0,2
24:56.117,538602,(,0,0,1
24:56.169,538621,N,0,0,0
24:56.297,538667,),0,0,1
24:56.314,538673,(,0,0,2
24:56.406,538706,t,0,0,1
24:56.497,538739,),0,0,2
24:56.953,538903,(,0,0,1
24:57.008,538923,N,0,0,0
24:57.147,538973,),0,0,1
24:57.175,538983,(,0,0,2
24:57.264,539015,t,0,0,1
24:57.353,539047,),0,0,2
24:57.783,539202,(,0,0,1
24:57.856,539228,N,0,0,0
24:57.967,539268,),0,0,1
24:58.014,539285,(,0,0,2
24:58.108,539319,t,0,0,1
24:58.203,539353,),0,0,2
24:58.614,539501,(,0,0,1
24:58.689,539528,N,0,0,0
24:58.717,539538,),0,0,1
24:58.836,539581,(,0,0,2
24:58.928,539614,t,0,0,1
24:59.025,539649,),0,0,2
24:59.486,539815,(,0,0,1
24:59.533,539832,N,0,0,0
24:59.636,539869,),0,0,1
24:59.686,539887,(,0,0,2
24:59.775,539919,t,0,0,1
24:59.864,539951,),0,0,2
25:00.267,540096,(,0,0,1
25:00.333,540120,N,0,0,0
25:00.450,540162,),0,0,1
25:00.458,540165,(,0,0,2
25:00.553,540199,t,0,0,1
25:00.650,540234,),0,0,2
25:00.653,540235,(,0,0,1
25:00.786,540283,N,0,0,0
25:00.828,540298,),0,0,1
25:00.889,540320,(,0,0,2
25:01.000,540360,t,0,0,0
25:01.139,540410,),0,0,2
25:01.889,540680,(,0,0,1
25:01.936,540697,N,0,0,0
