Elapsedtime,sample,Type,Sub,Chan,Num
0:00.656,236,(,0,0,0
0:00.694,250,p,0,0,0
0:00.739,266,),0,0,0
0:00.836,301,(,0,0,1
0:00.869,313,N,0,0,0
0:00.922,332,),0,0,1
0:00.956,344,(,0,0,2
0:01.044,376,t,0,0,0
0:01.142,411,),0,0,2
0:01.183,426,(,0,0,0
0:01.219,439,p,0,0,0
0:01.267,456,),0,0,0
0:01.361,490,(,0,0,1
0:01.394,502,N,0,0,0
0:01.453,523,),0,0,1
0:01.486,535,(,0,0,2
0:01.586,571,t,0,0,0
0:01.686,607,),0,0,2
0:01.736,625,(,0,0,0
0:01.769,637,p,0,0,0
0:01.808,651,),0,0,0
0:01.925,693,(,0,0,1
0:01.983,714,N,0,0,0
0:02.008,723,),0,0,1
0:02.031,731,(,0,0,2
0:02.136,769,t,0,0,0
0:02.231,803,),0,0,2
0:02.278,820,(,0,0,0
0:02.319,835,p,0,0,0
0:02.372,854,),0,0,0
0:02.467,888,(,0,0,1
0:02.503,901,N,0,0,0
0:02.556,920,),0,0,1
0:02.622,944,(,0,0,2
0:02.692,969,t,0,0,0
0:02.783,1002,),0,0,2
0:02.836,1021,(,0,0,0
0:02.872,1034,p,0,0,0
0:02.900,1044,),0,0,0
0:03.014,1085,(,0,0,1
0:03.050,1098,N,0,0,0
0:03.100,1116,),0,0,1
0:03.125,1125,(,0,0,2
0:03.228,1162,t,0,0,0
0:03.322,1196,),0,0,2
0:03.372,1214,(,0,0,0
0:03.408,1227,p,0,0,0
0:03.464,1247,),0,0,0
0:03.558,1281,(,0,0,1
0:03.594,1294,N,0,0,0
0:03.650,1314,),0,0,1
0:03.683,1326,(,0,0,2
0:03.781,1361,t,0,0,0
0:03.867,1392,),0,0,2
0:03.914,1409,(,0,0,0
0:03.944,1420,p,0,0,0
0:03.994,1438,),0,0,0
0:04.081,1469,(,0,0,1
0:04.114,1481,N,0,0,0
0:04.164,1499,),0,0,1
0:04.200,1512,(,0,0,2
0:04.283,1542,t,0,0,0
0:04.400,1584,),0,0,2
0:04.419,1591,(,0,0,0
0:04.456,1604,p,0,0,0
0:04.494,1618,),0,0,0
0:04.572,1646,(,0,0,1
0:04.633,1668,N,0,0,0
0:04.686,1687,),0,0,1
0:04.717,1698,(,0,0,2
0:04.808,1731,t,0,0,0
0:04.897,1763,),0,0,2
0:04.953,1783,(,0,0,0
0:04.978,1792,p,0,0,0
0:05.011,1804,),0,0,0
0:05.114,1841,(,0,0,1
0:05.150,1854,N,0,0,0
0:05.200,1872,),0,0,1
0:05.225,1881,(,0,0,2
0:05.322,1916,t,0,0,0
0:05.406,1946,),0,0,2
0:05.456,1964,(,0,0,0
0:05.500,1980,p,0,0,0
0:05.553,1999,),0,0,0
0:05.639,2030,(,0,0,1
0:05.669,2041,N,0,0,0
0:05.722,2060,),0,0,1
0:05.772,2078,(,0,0,2
0:05.836,2101,t,0,0,0
0:05.942,2139,),0,0,2
0:05.969,2149,(,0,0,0
0:06.003,2161,p,0,0,0
0:06.053,2179,),0,0,0
0:06.133,2208,(,0,0,1
0:06.169,2221,N,0,0,0
0:06.217,2238,),0,0,1
0:06.258,2253,(,0,0,2
0:06.336,2281,t,0,0,0
0:06.431,2315,),0,0,2
0:06.458,2325,(,0,0,0
0:06.511,2344,p,0,0,0
0:06.575,2367,),0,0,0
0:06.650,2394,(,0,0,1
0:06.683,2406,N,0,0,0
0:06.736,2425,),0,0,1
0:06.783,2442,(,0,0,2
0:06.856,2468,t,0,0,0
0:06.939,2498,),0,0,2
0:06.986,2515,(,0,0,0
0:07.025,2529,p,0,0,0
0:07.067,2544,),0,0,0
0:07.139,2570,(,0,0,1
0:07.206,2594,N,0,0,0
0:07.256,2612,),0,0,1
0:07.289,2624,(,0,0,2
0:07.381,2657,t,0,0,0
0:07.469,2689,),0,0,2
0:07.517,2706,(,0,0,0
0:07.553,2719,p,0,0,0
0:07.592,2733,),0,0,0
0:07.703,2773,(,0,0,1
0:07.739,2786,N,0,0,0
0:07.792,2805,),0,0,1
0:07.831,2819,(,0,0,2
0:07.922,2852,t,0,0,0
0:08.014,2885,),0,0,2
0:08.061,2902,(,0,0,0
0:08.108,2919,p,0,0,0
0:08.172,2942,),0,0,0
0:08.267,2976,(,0,0,1
0:08.306,2990,N,0,0,0
0:08.358,3009,),0,0,1
0:08.400,3024,(,0,0,2
0:08.494,3058,t,0,0,0
0:08.589,3092,),0,0,2
0:08.650,3114,(,0,0,0
0:08.683,3126,p,0,0,0
0:08.719,3139,),0,0,0
0:08.847,3185,(,0,0,1
0:08.883,3198,N,0,0,0
0:08.939,3218,),0,0,1
0:08.983,3234,(,0,0,2
0:09.078,3268,t,0,0,0
0:09.175,3303,),0,0,2
0:09.203,3313,(,0,0,0
0:09.247,3329,p,0,0,0
0:09.306,3350,),0,0,0
0:09.403,3385,(,0,0,1
0:09.439,3398,N,0,0,0
0:09.492,3417,),0,0,1
0:09.542,3435,(,0,0,2
0:09.628,3466,t,0,0,0
0:09.731,3503,),0,0,2
0:09.794,3526,(,0,0,0
0:09.825,3537,p,0,0,0
0:09.861,3550,),0,0,0
0:09.978,3592,(,0,0,1
0:10.014,3605,N,0,0,0
0:10.067,3624,),0,0,1
0:10.086,3631,(,0,0,2
0:10.189,3668,t,0,0,0
0:10.278,3700,),0,0,2
0:10.319,3715,(,0,0,0
0:10.353,3727,p,0,0,0
0:10.394,3742,),0,0,0
0:10.489,3776,(,0,0,1
0:10.522,3788,N,0,0,0
0:10.572,3806,),0,0,1
0:10.600,3816,(,0,0,2
0:10.689,3848,t,0,0,0
0:10.775,3879,),0,0,2
0:10.825,3897,(,0,0,0
0:10.858,3909,p,0,0,0
0:10.889,3920,),0,0,0
0:10.997,3959,(,0,0,1
0:11.031,3971,N,0,0,0
0:11.081,3989,),0,0,1
0:11.106,3998,(,0,0,2
0:11.194,4030,t,0,0,0
0:11.275,4059,),0,0,2
0:11.336,4081,(,0,0,0
0:11.364,4091,p,0,0,0
0:11.431,4115,),0,0,0
0:11.500,4140,(,0,0,1
0:11.536,4153,N,0,0,0
0:11.586,4171,),0,0,1
0:11.650,4194,(,0,0,2
0:11.708,4215,t,0,0,0
0:11.803,4249,),0,0,2
0:11.858,4269,(,0,0,0
0:11.892,4281,p,0,0,0
0:11.944,4300,),0,0,0
0:12.019,4327,(,0,0,1
0:12.050,4338,N,0,0,0
0:12.100,4356,),0,0,1
0:12.169,4381,(,0,0,2
0:12.208,4395,t,0,0,0
0:12.300,4428,),0,0,2
0:12.347,4445,(,0,0,0
0:12.381,4457,p,0,0,0
0:12.433,4476,),0,0,0
0:12.494,4498,(,0,0,1
0:12.556,4520,N,0,0,0
0:12.608,4539,),0,0,1
0:12.636,4549,(,0,0,2
0:12.728,4582,t,0,0,0
0:12.822,4616,),0,0,2
0:12.869,4633,(,0,0,0
0:12.906,4646,p,0,0,0
0:12.967,4668,),0,0,0
0:13.050,4698,(,0,0,1
0:13.083,4710,N,0,0,0
0:13.136,4729,),0,0,1
0:13.167,4740,(,0,0,2
0:13.258,4773,t,0,0,0
0:13.358,4809,),0,0,2
0:13.419,4831,(,0,0,0
0:13.450,4842,p,0,0,0
0:13.519,4867,),0,0,0
0:13.600,4896,(,0,0,1
0:13.639,4910,N,0,0,0
0:13.694,4930,),0,0,1
0:13.725,4941,(,0,0,2
0:13.828,4978,t,0,0,0
0:13.914,5009,),0,0,2
0:13.994,5038,(,0,0,0
0:14.019,5047,p,0,0,0
0:14.072,5066,),0,0,0
0:14.164,5099,(,0,0,1
0:14.197,5111,N,0,0,0
0:14.247,5129,),0,0,1
0:14.292,5145,(,0,0,2
0:14.375,5175,t,0,0,0
0:14.461,5206,),0,0,2
0:14.517,5226,(,0,0,0
0:14.556,5240,p,0,0,0
0:14.614,5261,),0,0,0
0:14.711,5296,(,0,0,1
0:14.744,5308,N,0,0,0
0:14.800,5328,),0,0,1
0:14.850,5346,(,0,0,2
0:14.925,5373,t,0,0,0
0:15.036,5413,),0,0,2
0:15.067,5424,(,0,0,0
0:15.100,5436,p,0,0,0
0:15.147,5453,),0,0,0
0:15.231,5483,(,0,0,1
0:15.286,5503,N,0,0,0
0:15.333,5520,),0,0,1
0:15.353,5527,(,0,0,2
0:15.458,5565,t,0,0,5
0:15.572,5606,t,0,0,5
0:15.619,5623,),0,0,2
0:15.769,5677,(,0,0,1
0:15.803,5689,N,0,0,0
0:15.850,5706,),0,0,1
0:15.881,5717,(,0,0,2
0:15.978,5752,t,0,0,5
0:16.075,5787,t,0,0,5
0:16.136,5809,),0,0,2
0:16.150,5814,(,0,0,0
0:16.203,5833,p,0,0,0
0:16.225,5841,),0,0,0
0:16.286,5863,(,0,0,1
0:16.322,5876,N,0,0,0
0:16.369,5893,),0,0,1
0:16.397,5903,(,0,0,2
0:16.497,5939,t,0,0,0
0:16.597,5975,),0,0,2
0:16.642,5991,(,0,0,0
0:16.672,6002,p,0,0,0
0:16.736,6025,),0,0,0
0:16.822,6056,(,0,0,1
0:16.858,6069,N,0,0,0
0:16.906,6086,),0,0,1
0:16.950,6102,(,0,0,2
0:17.031,6131,t,0,0,0
0:17.122,6164,),0,0,2
0:17.181,6185,(,0,0,0
0:17.217,6198,p,0,0,0
0:17.278,6220,),0,0,0
0:17.353,6247,(,0,0,1
0:17.408,6267,N,0,0,0
0:17.431,6275,),0,0,1
0:17.503,6301,(,0,0,2
0:17.547,6317,t,0,0,0
0:17.622,6344,),0,0,2
0:17.769,6397,(,0,0,1
0:17.853,6427,N,0,0,0
0:17.889,6440,),0,0,1
0:17.967,6468,t,0,0,2
0:18.067,6504,),0,0,2
0:18.214,6557,(,0,0,0
0:18.253,6571,p,0,0,0
0:18.306,6590,),0,0,0
0:18.383,6618,(,0,0,1
0:18.419,6631,N,0,0,0
0:18.467,6648,),0,0,1
0:18.539,6674,(,0,0,2
0:18.592,6693,t,0,0,0
0:18.683,6726,),0,0,2
0:18.725,6741,(,0,0,0
0:18.761,6754,p,0,0,0
0:18.822,6776,),0,0,0
0:18.872,6794,(,0,0,1
0:18.936,6817,N,0,0,0
0:18.989,6836,),0,0,1
0:19.036,6853,(,0,0,2
0:19.117,6882,t,0,0,0
0:19.206,6914,),0,0,2
0:19.264,6935,(,0,0,0
0:19.300,6948,p,0,0,0
0:19.356,6968,),0,0,0
0:19.444,7000,(,0,0,1
0:19.478,7012,N,0,0,0
0:19.528,7030,),0,0,1
0:19.567,7044,(,0,0,2
0:19.653,7075,t,0,0,0
0:19.747,7109,),0,0,2
0:19.814,7133,(,0,0,0
0:19.853,7147,p,0,0,0
0:19.908,7167,),0,0,0
0:20.008,7203,(,0,0,1
0:20.042,7215,N,0,0,0
0:20.094,7234,),0,0,1
0:20.125,7245,(,0,0,2
0:20.225,7281,t,0,0,0
0:20.328,7318,),0,0,2
0:20.369,7333,(,0,0,0
0:20.408,7347,p,0,0,0
0:20.467,7368,),0,0,0
0:20.553,7399,(,0,0,1
0:20.589,7412,N,0,0,0
0:20.642,7431,),0,0,1
0:20.686,7447,(,0,0,2
0:20.772,7478,t,0,0,0
0:20.867,7512,),0,0,2
0:20.928,7534,(,0,0,0
0:20.967,7548,p,0,0,0
0:21.000,7560,),0,0,0
0:21.119,7603,(,0,0,1
0:21.153,7615,N,0,0,0
0:21.208,7635,),0,0,1
0:21.264,7655,(,0,0,2
0:21.336,7681,t,0,0,0
0:21.414,7709,),0,0,2
0:21.500,7740,(,0,0,0
0:21.528,7750,p,0,0,0
0:21.594,7774,),0,0,0
0:21.669,7801,(,0,0,1
0:21.711,7816,N,0,0,0
0:21.767,7836,),0,0,1
0:21.800,7848,(,0,0,2
0:21.900,7884,t,0,0,0
0:21.986,7915,),0,0,2
0:22.067,7944,(,0,0,0
0:22.094,7954,p,0,0,0
0:22.128,7966,),0,0,0
0:22.239,8006,(,0,0,1
0:22.272,8018,N,0,0,0
0:22.322,8036,),0,0,1
0:22.350,8046,(,0,0,2
0:22.444,8080,t,0,0,5
0:22.567,8124,t,0,0,5
0:22.617,8142,),0,0,2
0:22.736,8185,(,0,0,1
0:22.792,8205,N,0,0,0
0:22.842,8223,),0,0,1
0:22.881,8237,(,0,0,2
0:22.964,8267,t,0,0,0
0:23.050,8298,),0,0,2
0:23.075,8307,(,0,0,0
0:23.144,8332,p,0,0,0
0:23.194,8350,),0,0,0
0:23.275,8379,(,0,0,1
0:23.306,8390,N,0,0,0
0:23.356,8408,),0,0,1
0:23.386,8419,(,0,0,2
0:23.469,8449,t,0,0,0
0:23.550,8478,),0,0,2
0:23.597,8495,(,0,0,0
0:23.639,8510,p,0,0,0
0:23.686,8527,),0,0,0
0:23.772,8558,(,0,0,1
0:23.806,8570,N,0,0,0
0:23.853,8587,),0,0,1
0:23.881,8597,(,0,0,2
0:23.969,8629,t,0,0,0
0:24.064,8663,),0,0,2
0:24.111,8680,(,0,0,0
0:24.144,8692,p,0,0,0
0:24.197,8711,),0,0,0
0:24.281,8741,(,0,0,1
0:24.314,8753,N,0,0,0
0:24.364,8771,),0,0,1
0:24.386,8779,(,0,0,2
0:24.486,8815,t,0,0,0
0:24.572,8846,),0,0,2
0:24.636,8869,(,0,0,0
0:24.669,8881,p,0,0,0
0:24.714,8897,),0,0,0
0:24.814,8933,(,0,0,1
0:24.875,8955,N,0,0,0
0:24.903,8965,),0,0,1
0:24.922,8972,(,0,0,2
0:25.036,9013,t,0,0,0
0:25.133,9048,),0,0,2
0:25.244,9088,(,0,0,0
0:25.278,9100,p,0,0,0
0:25.319,9115,),0,0,0
0:25.453,9163,(,0,0,1
0:25.592,9213,N,0,0,0
0:25.700,9252,),0,0,1
0:25.728,9262,(,0,0,2
0:25.803,9289,t,0,0,0
0:25.894,9322,),0,0,2
0:26.297,9467,(,0,0,0
0:26.347,9485,p,0,0,0
0:26.400,9504,),0,0,0
0:26.489,9536,(,0,0,1
0:26.522,9548,N,0,0,0
0:26.581,9569,),0,0,1
0:26.642,9591,(,0,0,2
0:26.700,9612,t,0,0,0
0:26.822,9656,),0,0,2
0:26.858,9669,(,0,0,0
0:26.892,9681,p,0,0,0
0:26.947,9701,),0,0,0
0:27.036,9733,(,0,0,1
0:27.094,9754,N,0,0,0
0:27.122,9764,),0,0,1
0:27.144,9772,(,0,0,2
0:27.253,9811,t,0,0,5
0:27.392,9861,t,0,0,5
0:27.439,9878,),0,0,2
0:27.453,9883,(,0,0,0
0:27.528,9910,p,0,0,0
0:27.556,9920,),0,0,0
0:27.586,9931,(,0,0,1
0:27.619,9943,N,0,0,0
0:27.675,9963,),0,0,1
0:27.697,9971,(,0,0,2
0:27.797,10007,t,0,0,5
0:27.908,10047,t,0,0,5
0:27.975,10071,),0,0,2
0:28.122,10124,(,0,0,1
0:28.153,10135,N,0,0,0
0:28.206,10154,),0,0,1
0:28.233,10164,(,0,0,2
0:28.333,10200,t,0,0,5
0:28.442,10239,t,0,0,5
0:28.503,10261,),0,0,2
0:28.608,10299,(,0,0,1
0:28.697,10331,N,0,0,0
0:28.722,10340,),0,0,1
0:28.789,10364,(,0,0,2
0:28.842,10383,t,0,0,0
0:28.931,10415,),0,0,2
0:28.933,10416,(,0,0,0
0:28.950,10422,p,0,0,0
0:29.011,10444,),0,0,0
0:29.047,10457,(,0,0,1
0:29.122,10484,N,0,0,0
0:29.175,10503,),0,0,1
0:29.411,10588,(,0,0,1
0:29.497,10619,N,0,0,0
0:29.639,10670,),0,0,1
0:30.011,10804,(,0,0,0
0:30.039,10814,p,0,0,0
0:30.089,10832,),0,0,0
0:30.144,10852,(,0,0,1
0:30.206,10874,N,0,0,0
0:30.264,10895,),0,0,1
0:30.322,10916,(,0,0,2
0:30.394,10942,t,0,0,5
0:30.508,10983,t,0,0,5
0:30.556,11000,),0,0,2
0:30.697,11051,(,0,0,1
0:30.753,11071,N,0,0,0
0:30.781,11081,),0,0,1
0:30.828,11098,(,0,0,2
0:30.897,11123,t,0,0,5
0:31.019,11167,t,0,0,5
0:31.067,11184,),0,0,2
0:31.197,11231,(,0,0,1
0:31.258,11253,N,0,0,0
0:31.314,11273,),0,0,1
0:31.378,11296,(,0,0,2
0:31.447,11321,t,0,0,0
0:31.536,11353,),0,0,2
0:31.603,11377,(,0,0,0
0:31.625,11385,p,0,0,0
0:31.653,11395,),0,0,0
0:31.769,11437,(,0,0,1
0:31.828,11458,N,0,0,0
0:31.853,11467,),0,0,1
0:31.919,11491,(,0,0,2
0:31.981,11513,t,0,0,0
0:32.072,11546,),0,0,2
0:32.125,11565,(,0,0,0
0:32.158,11577,p,0,0,0
0:32.192,11589,),0,0,0
0:32.294,11626,(,0,0,1
0:32.369,11653,N,0,0,0
0:32.397,11663,),0,0,1
0:32.433,11676,(,0,0,2
0:32.528,11710,t,0,0,5
0:32.650,11754,t,0,0,5
0:32.703,11773,),0,0,2
0:32.717,11778,(,0,0,0
0:32.783,11802,p,0,0,0
0:32.800,11808,),0,0,0
0:32.858,11829,(,0,0,1
0:32.892,11841,N,0,0,0
0:32.944,11860,),0,0,1
0:32.986,11875,(,0,0,2
0:33.078,11908,t,0,0,0
0:33.175,11943,),0,0,2
0:33.256,11972,(,0,0,0
0:33.275,11979,p,0,0,0
0:33.308,11991,),0,0,0
0:33.431,12035,(,0,0,1
0:33.472,12050,N,0,0,0
0:33.525,12069,),0,0,1
0:33.569,12085,(,0,0,2
0:33.664,12119,t,0,0,0
0:33.758,12153,),0,0,2
0:33.808,12171,(,0,0,0
0:33.839,12182,p,0,0,0
0:33.872,12194,),0,0,0
0:33.986,12235,(,0,0,1
0:34.022,12248,N,0,0,0
0:34.072,12266,),0,0,1
0:34.094,12274,(,0,0,2
0:34.194,12310,t,0,0,0
0:34.281,12341,),0,0,2
0:34.342,12363,(,0,0,0
0:34.367,12372,p,0,0,0
0:34.397,12383,),0,0,0
0:34.511,12424,(,0,0,1
0:34.544,12436,N,0,0,0
0:34.594,12454,),0,0,1
0:34.639,12470,(,0,0,2
0:34.719,12499,t,0,0,5
0:34.839,12542,t,0,0,5
0:34.875,12555,),0,0,2
0:35.019,12607,(,0,0,1
0:35.075,12627,N,0,0,0
0:35.100,12636,),0,0,1
0:35.136,12649,(,0,0,2
0:35.214,12677,t,0,0,0
0:35.292,12705,),0,0,2
0:35.389,12740,(,0,0,0
0:35.456,12764,p,0,0,0
0:35.481,12773,),0,0,0
0:35.514,12785,(,0,0,1
0:35.572,12806,N,0,0,0
0:35.600,12816,),0,0,1
0:35.622,12824,(,0,0,2
0:35.714,12857,t,0,0,0
0:35.808,12891,),0,0,2
0:35.850,12906,(,0,0,0
0:35.881,12917,p,0,0,0
0:35.933,12936,),0,0,0
0:36.014,12965,(,0,0,1
0:36.044,12976,N,0,0,0
0:36.094,12994,),0,0,1
0:36.119,13003,(,0,0,2
0:36.208,13035,t,0,0,5
0:36.300,13068,t,0,0,5
0:36.372,13094,),0,0,2
0:36.389,13100,(,0,0,0
0:36.453,13123,p,0,0,0
0:36.492,13137,),0,0,0
0:36.519,13147,(,0,0,1
0:36.556,13160,N,0,0,0
0:36.606,13178,),0,0,1
0:36.644,13192,(,0,0,2
0:36.722,13220,t,0,0,0
0:36.825,13257,),0,0,2
0:36.850,13266,(,0,0,0
0:36.883,13278,p,0,0,0
0:36.942,13299,),0,0,0
0:37.000,13320,(,0,0,1
0:37.053,13339,N,0,0,0
0:37.103,13357,),0,0,1
0:37.172,13382,(,0,0,2
0:37.231,13403,t,0,0,0
0:37.317,13434,),0,0,2
0:37.367,13452,(,0,0,0
0:37.397,13463,p,0,0,0
0:37.431,13475,),0,0,0
0:37.556,13520,(,0,0,1
0:37.619,13543,N,0,0,0
0:37.647,13553,),0,0,1
0:37.686,13567,(,0,0,2
0:37.772,13598,t,0,0,0
0:37.861,13630,),0,0,2
0:37.914,13649,(,0,0,0
0:37.953,13663,p,0,0,0
0:38.011,13684,),0,0,0
0:38.081,13709,(,0,0,1
0:38.142,13731,N,0,0,0
0:38.194,13750,),0,0,1
0:38.250,13770,(,0,0,2
0:38.336,13801,t,0,0,0
0:38.419,13831,),0,0,2
0:38.467,13848,(,0,0,0
0:38.514,13865,p,0,0,0
0:38.556,13880,),0,0,0
0:38.675,13923,(,0,0,1
0:38.711,13936,N,0,0,0
0:38.767,13956,),0,0,1
0:38.817,13974,(,0,0,2
0:38.897,14003,t,0,0,0
0:39.000,14040,),0,0,2
0:39.050,14058,(,0,0,0
0:39.081,14069,p,0,0,0
0:39.128,14086,),0,0,0
0:39.233,14124,(,0,0,1
0:39.269,14137,N,0,0,0
0:39.322,14156,),0,0,1
0:39.356,14168,(,0,0,2
0:39.453,14203,t,0,0,5
0:39.564,14243,t,0,0,5
0:39.614,14261,),0,0,2
0:39.775,14319,(,0,0,1
0:39.811,14332,N,0,0,0
0:39.861,14350,),0,0,1
0:39.903,14365,(,0,0,2
0:39.986,14395,t,0,0,0
0:40.075,14427,),0,0,2
0:40.117,14442,(,0,0,0
0:40.150,14454,p,0,0,0
0:40.192,14469,),0,0,0
0:40.292,14505,(,0,0,1
0:40.325,14517,N,0,0,0
0:40.372,14534,),0,0,1
0:40.397,14543,(,0,0,2
0:40.492,14577,t,0,0,0
0:40.578,14608,),0,0,2
0:40.622,14624,(,0,0,0
0:40.658,14637,p,0,0,0
0:40.711,14656,),0,0,0
0:40.800,14688,(,0,0,1
0:40.833,14700,N,0,0,0
0:40.881,14717,),0,0,1
0:40.908,14727,(,0,0,2
0:41.000,14760,t,0,0,0
0:41.086,14791,),0,0,2
0:41.128,14806,(,0,0,0
0:41.172,14822,p,0,0,0
0:41.203,14833,),0,0,0
0:41.314,14873,(,0,0,1
0:41.347,14885,N,0,0,0
0:41.394,14902,),0,0,1
0:41.422,14912,(,0,0,2
0:41.519,14947,t,0,0,0
0:41.614,14981,),0,0,2
0:41.633,14988,(,0,0,1
0:41.717,15018,N,0,0,0
0:41.786,15043,),0,0,1
0:41.833,15060,(,0,0,2
0:41.944,15100,t,0,0,0
0:41.986,15115,),0,0,2
0:42.186,15187,(,0,0,0
0:42.225,15201,p,0,0,0
0:42.278,15220,),0,0,0
0:42.358,15249,(,0,0,1
0:42.392,15261,N,0,0,0
0:42.442,15279,),0,0,1
0:42.508,15303,(,0,0,2
0:42.567,15324,t,0,0,5
0:42.681,15365,t,0,0,5
0:42.744,15388,),0,0,2
0:42.897,15443,(,0,0,1
0:42.931,15455,N,0,0,0
0:42.981,15473,),0,0,1
0:43.014,15485,(,0,0,2
0:43.111,15520,t,0,0,0
0:43.200,15552,),0,0,2
0:43.256,15572,(,0,0,0
0:43.300,15588,p,0,0,0
0:43.358,15609,),0,0,0
0:43.436,15637,(,0,0,1
0:43.467,15648,N,0,0,0
0:43.517,15666,),0,0,1
0:43.553,15679,(,0,0,2
0:43.642,15711,t,0,0,0
0:43.742,15747,),0,0,2
0:43.783,15762,(,0,0,0
0:43.833,15780,p,0,0,0
0:43.892,15801,),0,0,0
0:43.986,15835,(,0,0,1
0:44.044,15856,N,0,0,0
0:44.069,15865,),0,0,1
0:44.106,15878,(,0,0,2
0:44.197,15911,t,0,0,5
0:44.311,15952,t,0,0,5
0:44.369,15973,),0,0,2
0:44.525,16029,(,0,0,1
0:44.561,16042,N,0,0,0
0:44.617,16062,),0,0,1
0:44.650,16074,(,0,0,2
0:44.750,16110,t,0,0,0
0:44.844,16144,),0,0,2
0:44.897,16163,(,0,0,0
0:44.936,16177,p,0,0,0
0:44.997,16199,),0,0,0
0:45.089,16232,(,0,0,1
0:45.122,16244,N,0,0,0
0:45.175,16263,),0,0,1
0:45.200,16272,(,0,0,2
0:45.297,16307,t,0,0,0
0:45.386,16339,),0,0,2
0:45.439,16358,(,0,0,0
0:45.475,16371,p,0,0,0
0:45.528,16390,),0,0,0
0:45.622,16424,(,0,0,1
0:45.656,16436,N,0,0,0
0:45.708,16455,),0,0,1
0:45.744,16468,(,0,0,2
0:45.842,16503,t,0,0,0
0:45.939,16538,),0,0,2
0:45.989,16556,(,0,0,0
0:46.028,16570,p,0,0,0
0:46.089,16592,),0,0,0
0:46.175,16623,(,0,0,1
0:46.233,16644,N,0,0,0
0:46.258,16653,),0,0,1
0:46.286,16663,(,0,0,2
0:46.378,16696,t,0,0,0
0:46.467,16728,),0,0,2
0:46.600,16776,(,0,0,1
0:46.692,16809,N,0,0,0
0:46.725,16821,),0,0,1
0:46.800,16848,t,0,0,2
0:46.919,16891,),0,0,2
0:47.014,16925,(,0,0,0
0:47.069,16945,p,0,0,0
0:47.117,16962,),0,0,0
0:47.178,16984,(,0,0,1
0:47.233,17004,N,0,0,0
0:47.283,17022,),0,0,1
0:47.317,17034,(,0,0,2
0:47.403,17065,t,0,0,0
0:47.489,17096,),0,0,2
0:47.522,17108,(,0,0,0
0:47.556,17120,p,0,0,0
0:47.606,17138,),0,0,0
0:47.692,17169,(,0,0,1
0:47.722,17180,N,0,0,0
0:47.775,17199,),0,0,1
0:47.811,17212,(,0,0,2
0:47.892,17241,t,0,0,0
0:47.986,17275,),0,0,2
0:48.022,17288,(,0,0,0
0:48.061,17302,p,0,0,0
0:48.106,17318,),0,0,0
0:48.194,17350,(,0,0,1
0:48.250,17370,N,0,0,0
0:48.275,17379,),0,0,1
0:48.344,17404,(,0,0,2
0:48.394,17422,t,0,0,5
0:48.508,17463,t,0,0,5
0:48.553,17479,),0,0,2
0:48.697,17531,(,0,0,1
0:48.753,17551,N,0,0,0
0:48.778,17560,),0,0,1
0:48.803,17569,(,0,0,2
0:48.894,17602,t,0,0,0
0:48.989,17636,),0,0,2
0:49.022,17648,(,0,0,0
0:49.064,17663,p,0,0,0
0:49.117,17682,),0,0,0
0:49.211,17716,(,0,0,1
0:49.247,17729,N,0,0,0
0:49.300,17748,),0,0,1
0:49.333,17760,(,0,0,2
0:49.428,17794,t,0,0,0
0:49.531,17831,),0,0,2
0:49.572,17846,(,0,0,0
0:49.606,17858,p,0,0,0
0:49.661,17878,),0,0,0
0:49.758,17913,(,0,0,1
0:49.794,17926,N,0,0,0
0:49.850,17946,),0,0,1
0:49.892,17961,(,0,0,2
0:49.992,17997,t,0,0,0
0:50.083,18030,),0,0,2
0:50.131,18047,(,0,0,0
0:50.169,18061,p,0,0,0
0:50.203,18073,),0,0,0
0:50.322,18116,(,0,0,1
0:50.358,18129,N,0,0,0
0:50.414,18149,),0,0,1
0:50.458,18165,(,0,0,2
0:50.539,18194,t,0,0,0
0:50.628,18226,),0,0,2
0:50.683,18246,(,0,0,0
0:50.719,18259,p,0,0,0
0:50.772,18278,),0,0,0
0:50.872,18314,(,0,0,1
0:50.906,18326,N,0,0,0
0:50.964,18347,),0,0,1
0:51.022,18368,(,0,0,0
0:51.103,18397,p,0,0,0
0:51.175,18423,),0,0,0
0:51.233,18444,(,0,0,1
0:51.294,18466,N,0,0,0
0:51.392,18501,),0,0,1
0:51.417,18510,(,0,0,2
0:51.500,18540,t,0,0,0
0:51.589,18572,),0,0,2
0:51.769,18637,(,0,0,0
0:51.814,18653,p,0,0,0
0:51.864,18671,),0,0,0
0:51.950,18702,(,0,0,1
0:51.986,18715,N,0,0,0
0:52.042,18735,),0,0,1
0:52.083,18750,(,0,0,2
0:52.169,18781,t,0,0,0
0:52.267,18816,),0,0,2
0:52.292,18825,(,0,0,0
0:52.328,18838,p,0,0,0
0:52.386,18859,),0,0,0
0:52.467,18888,(,0,0,1
0:52.497,18899,N,0,0,0
0:52.547,18917,),0,0,1
0:52.583,18930,(,0,0,2
0:52.667,18960,t,0,0,0
0:52.756,18992,),0,0,2
0:52.803,19009,(,0,0,0
0:52.836,19021,p,0,0,0
0:52.889,19040,),0,0,0
0:52.975,19071,(,0,0,1
0:53.011,19084,N,0,0,0
0:53.064,19103,),0,0,1
0:53.094,19114,(,0,0,2
0:53.183,19146,t,0,0,0
0:53.278,19180,),0,0,2
0:53.314,19193,(,0,0,0
0:53.344,19204,p,0,0,0
0:53.397,19223,),0,0,0
0:53.475,19251,(,0,0,1
0:53.506,19262,N,0,0,0
0:53.556,19280,),0,0,1
0:53.619,19303,(,0,0,2
0:53.672,19322,t,0,0,0
0:53.761,19354,),0,0,2
0:53.797,19367,(,0,0,0
0:53.831,19379,p,0,0,0
0:53.875,19395,),0,0,0
0:53.972,19430,(,0,0,1
0:54.006,19442,N,0,0,0
0:54.056,19460,),0,0,1
0:54.108,19479,(,0,0,0
0:54.175,19503,p,0,0,0
0:54.242,19527,),0,0,0
0:54.267,19536,(,0,0,1
0:54.311,19552,N,0,0,0
0:54.464,19607,),0,0,1
0:54.492,19617,t,0,0,3
0:54.608,19659,),0,0,2
0:54.817,19734,(,0,0,0
0:54.858,19749,p,0,0,0
0:54.914,19769,),0,0,0
0:55.006,19802,(,0,0,1
0:55.044,19816,N,0,0,0
0:55.100,19836,),0,0,1
0:55.167,19860,(,0,0,2
0:55.233,19884,t,0,0,0
0:55.336,19921,),0,0,2
0:55.369,19933,(,0,0,0
0:55.408,19947,p,0,0,0
0:55.450,19962,),0,0,0
0:55.550,19998,(,0,0,1
0:55.608,20019,N,0,0,0
0:55.636,20029,),0,0,1
0:55.703,20053,(,0,0,2
0:55.756,20072,t,0,0,0
0:55.850,20106,),0,0,2
0:55.911,20128,(,0,0,0
0:55.944,20140,p,0,0,0
0:56.000,20160,),0,0,0
0:56.097,20195,(,0,0,1
0:56.136,20209,N,0,0,0
0:56.192,20229,),0,0,1
0:56.233,20244,(,0,0,2
0:56.322,20276,t,0,0,0
0:56.422,20312,),0,0,2
0:56.456,20324,(,0,0,0
0:56.492,20337,p,0,0,0
0:56.544,20356,),0,0,0
0:56.636,20389,(,0,0,1
0:56.669,20401,N,0,0,0
0:56.725,20421,),0,0,1
0:56.758,20433,(,0,0,2
0:56.844,20464,t,0,0,0
0:56.942,20499,),0,0,2
0:56.989,20516,(,0,0,0
0:57.019,20527,p,0,0,0
0:57.069,20545,),0,0,0
0:57.172,20582,(,0,0,1
0:57.206,20594,N,0,0,0
0:57.261,20614,),0,0,1
0:57.292,20625,(,0,0,2
0:57.392,20661,t,0,0,0
0:57.483,20694,),0,0,2
0:57.531,20711,(,0,0,0
0:57.572,20726,p,0,0,0
0:57.614,20741,),0,0,0
0:57.725,20781,(,0,0,1
0:57.761,20794,N,0,0,0
0:57.817,20814,),0,0,1
0:57.844,20824,(,0,0,2
0:57.947,20861,t,0,0,0
0:58.036,20893,),0,0,2
0:58.100,20916,(,0,0,0
0:58.133,20928,p,0,0,0
0:58.192,20949,),0,0,0
0:58.250,20970,(,0,0,1
0:58.319,20995,N,0,0,0
0:58.375,21015,),0,0,1
0:58.400,21024,(,0,0,2
0:58.494,21058,t,0,0,0
0:58.589,21092,),0,0,2
0:58.625,21105,(,0,0,0
0:58.664,21119,p,0,0,0
0:58.700,21132,),0,0,0
0:58.797,21167,(,0,0,1
0:58.831,21179,N,0,0,0
0:58.881,21197,),0,0,1
0:58.906,21206,(,0,0,2
0:58.997,21239,t,0,0,0
0:59.092,21273,),0,0,2
0:59.117,21282,(,0,0,0
0:59.158,21297,p,0,0,0
0:59.214,21317,),0,0,0
0:59.297,21347,(,0,0,1
0:59.331,21359,N,0,0,0
0:59.381,21377,),0,0,1
0:59.408,21387,(,0,0,2
0:59.500,21420,t,0,0,0
0:59.586,21451,),0,0,2
0:59.628,21466,(,0,0,0
0:59.658,21477,p,0,0,0
0:59.706,21494,),0,0,0
0:59.767,21516,(,0,0,1
0:59.822,21536,N,0,0,0
0:59.869,21553,),0,0,1
0:59.894,21562,(,0,0,2
0:59.986,21595,t,0,0,0
1:00.075,21627,),0,0,2
1:00.117,21642,(,0,0,0
1:00.150,21654,p,0,0,0
1:00.200,21672,),0,0,0
1:00.292,21705,(,0,0,1
1:00.328,21718,N,0,0,0
1:00.381,21737,),0,0,1
1:00.417,21750,(,0,0,2
1:00.500,21780,t,0,0,0
1:00.583,21810,),0,0,2
1:00.633,21828,(,0,0,0
1:00.669,21841,p,0,0,0
1:00.711,21856,),0,0,0
1:00.806,21890,(,0,0,1
1:00.864,21911,N,0,0,0
1:00.889,21920,),0,0,1
1:00.922,21932,(,0,0,2
1:01.017,21966,t,0,0,0
1:01.114,22001,),0,0,2
1:01.158,22017,(,0,0,0
1:01.200,22032,p,0,0,0
1:01.244,22048,),0,0,0
1:01.347,22085,(,0,0,1
1:01.383,22098,N,0,0,0
1:01.436,22117,),0,0,1
1:01.481,22133,(,0,0,2
1:01.553,22159,t,0,0,0
1:01.653,22195,),0,0,2
1:01.672,22202,(,0,0,0
1:01.717,22218,p,0,0,0
1:01.767,22236,),0,0,0
1:01.833,22260,(,0,0,1
1:01.894,22282,N,0,0,0
1:01.947,22301,),0,0,1
1:01.978,22312,(,0,0,2
1:02.078,22348,t,0,0,0
1:02.181,22385,),0,0,2
1:02.217,22398,(,0,0,0
1:02.269,22417,p,0,0,0
1:02.333,22440,),0,0,0
1:02.425,22473,(,0,0,1
1:02.458,22485,N,0,0,0
1:02.511,22504,),0,0,1
1:02.544,22516,(,0,0,2
1:02.642,22551,t,0,0,0
1:02.753,22591,),0,0,2
1:02.789,22604,(,0,0,0
1:02.822,22616,p,0,0,0
1:02.867,22632,),0,0,0
1:02.981,22673,(,0,0,1
1:03.017,22686,N,0,0,0
1:03.075,22707,),0,0,1
1:03.103,22717,(,0,0,2
1:03.217,22758,t,0,0,0
1:03.306,22790,),0,0,2
1:03.358,22809,(,0,0,0
1:03.400,22824,p,0,0,0
1:03.442,22839,),0,0,0
1:03.556,22880,(,0,0,1
1:03.592,22893,N,0,0,0
1:03.647,22913,),0,0,1
1:03.672,22922,(,0,0,2
1:03.769,22957,t,0,0,5
1:03.892,23001,t,0,0,5
1:03.947,23021,),0,0,2
1:04.094,23074,(,0,0,1
1:04.158,23097,N,0,0,0
1:04.183,23106,),0,0,1
1:04.217,23118,(,0,0,2
1:04.308,23151,t,0,0,0
1:04.400,23184,),0,0,2
1:04.461,23206,(,0,0,0
1:04.494,23218,p,0,0,0
1:04.550,23238,),0,0,0
1:04.606,23258,(,0,0,1
1:04.661,23278,N,0,0,0
1:04.711,23296,),0,0,1
1:04.775,23319,(,0,0,2
1:04.828,23338,t,0,0,0
1:04.914,23369,),0,0,2
1:04.961,23386,(,0,0,0
1:04.994,23398,p,0,0,0
1:05.044,23416,),0,0,0
1:05.128,23446,(,0,0,1
1:05.161,23458,N,0,0,0
1:05.208,23475,),0,0,1
1:05.247,23489,(,0,0,2
1:05.328,23518,t,0,0,0
1:05.414,23549,),0,0,2
1:05.458,23565,(,0,0,0
1:05.494,23578,p,0,0,0
1:05.533,23592,),0,0,0
1:05.625,23625,(,0,0,1
1:05.658,23637,N,0,0,0
1:05.711,23656,),0,0,1
1:05.753,23671,(,0,0,2
1:05.833,23700,t,0,0,0
1:05.917,23730,),0,0,2
1:05.958,23745,(,0,0,0
1:05.992,23757,p,0,0,0
1:06.044,23776,),0,0,0
1:06.133,23808,(,0,0,1
1:06.172,23822,N,0,0,0
1:06.222,23840,),0,0,1
1:06.283,23862,(,0,0,2
1:06.350,23886,t,0,0,0
1:06.450,23922,),0,0,2
1:06.469,23929,(,0,0,0
1:06.525,23949,p,0,0,0
1:06.581,23969,),0,0,0
1:06.644,23992,(,0,0,1
1:06.706,24014,N,0,0,0
1:06.753,24031,),0,0,1
1:06.781,24041,(,0,0,2
1:06.881,24077,t,0,0,0
1:06.967,24108,),0,0,2
1:06.992,24117,(,0,0,0
1:07.050,24138,p,0,0,0
1:07.092,24153,),0,0,0
1:07.167,24180,(,0,0,1
1:07.233,24204,N,0,0,0
1:07.286,24223,),0,0,1
1:07.322,24236,(,0,0,2
1:07.422,24272,t,0,0,0
1:07.511,24304,),0,0,2
1:07.572,24326,(,0,0,0
1:07.603,24337,p,0,0,0
1:07.642,24351,),0,0,0
1:07.758,24393,(,0,0,1
1:07.792,24405,N,0,0,0
1:07.844,24424,),0,0,1
1:07.875,24435,(,0,0,2
1:07.972,24470,t,0,0,0
1:08.064,24503,),0,0,2
1:08.108,24519,(,0,0,0
1:08.153,24535,p,0,0,0
1:08.203,24553,),0,0,0
1:08.300,24588,(,0,0,1
1:08.336,24601,N,0,0,0
1:08.386,24619,),0,0,1
1:08.428,24634,(,0,0,2
1:08.525,24669,t,0,0,0
1:08.617,24702,),0,0,2
1:08.656,24716,(,0,0,0
1:08.711,24736,p,0,0,0
1:08.767,24756,),0,0,0
1:08.853,24787,(,0,0,1
1:08.889,24800,N,0,0,0
1:08.944,24820,),0,0,1
1:08.969,24829,(,0,0,2
1:09.078,24868,t,0,0,0
1:09.181,24905,),0,0,2
1:09.239,24926,(,0,0,0
1:09.272,24938,p,0,0,0
1:09.322,24956,),0,0,0
1:09.428,24994,(,0,0,1
1:09.492,25017,N,0,0,0
1:09.517,25026,),0,0,1
1:09.542,25035,(,0,0,2
1:09.650,25074,t,0,0,0
1:09.733,25104,),0,0,2
1:09.797,25127,(,0,0,0
1:09.831,25139,p,0,0,0
1:09.881,25157,),0,0,0
1:09.969,25189,(,0,0,1
1:10.033,25212,N,0,0,0
1:10.056,25220,),0,0,1
1:10.083,25230,(,0,0,2
1:10.178,25264,t,0,0,0
1:10.264,25295,),0,0,2
1:10.322,25316,(,0,0,0
1:10.358,25329,p,0,0,0
1:10.419,25351,),0,0,0
1:10.503,25381,(,0,0,1
1:10.536,25393,N,0,0,0
1:10.589,25412,),0,0,1
1:10.619,25423,(,0,0,2
1:10.708,25455,t,0,0,0
1:10.803,25489,),0,0,2
1:10.836,25501,(,0,0,0
1:10.869,25513,p,0,0,0
1:10.917,25530,),0,0,0
1:11.006,25562,(,0,0,1
1:11.039,25574,N,0,0,0
1:11.089,25592,),0,0,1
1:11.125,25605,(,0,0,2
1:11.211,25636,t,0,0,0
1:11.297,25667,),0,0,2
1:11.342,25683,(,0,0,0
1:11.378,25696,p,0,0,0
1:11.417,25710,),0,0,0
1:11.519,25747,(,0,0,1
1:11.553,25759,N,0,0,0
1:11.606,25778,),0,0,1
1:11.636,25789,(,0,0,2
1:11.717,25818,t,0,0,0
1:11.806,25850,),0,0,2
1:11.844,25864,(,0,0,0
1:11.881,25877,p,0,0,0
1:11.919,25891,),0,0,0
1:12.017,25926,(,0,0,1
1:12.050,25938,N,0,0,0
1:12.100,25956,),0,0,1
1:12.133,25968,(,0,0,2
1:12.222,26000,t,0,0,0
1:12.308,26031,),0,0,2
1:12.344,26044,(,0,0,1
1:12.428,26074,N,0,0,0
1:12.467,26088,),0,0,1
1:12.586,26131,(,0,0,2
1:12.825,26217,t,0,0,0
1:12.853,26227,),0,0,2
1:12.869,26233,(,0,0,0
1:12.903,26245,p,0,0,0
1:12.964,26267,),0,0,0
1:13.042,26295,(,0,0,1
1:13.078,26308,N,0,0,0
1:13.128,26326,),0,0,1
1:13.156,26336,(,0,0,2
1:13.250,26370,t,0,0,0
1:13.353,26407,),0,0,2
1:13.394,26422,(,0,0,0
1:13.425,26433,p,0,0,0
1:13.486,26455,),0,0,0
1:13.578,26488,(,0,0,1
1:13.611,26500,N,0,0,0
1:13.661,26518,),0,0,1
1:13.689,26528,(,0,0,2
1:13.794,26566,t,0,0,0
1:13.889,26600,),0,0,2
1:13.947,26621,(,0,0,0
1:13.986,26635,p,0,0,0
1:14.047,26657,),0,0,0
1:14.144,26692,(,0,0,1
1:14.178,26704,N,0,0,0
1:14.236,26725,),0,0,1
1:14.269,26737,(,0,0,2
1:14.378,26776,t,0,0,0
1:14.472,26810,),0,0,2
1:14.542,26835,(,0,0,0
1:14.583,26850,p,0,0,0
1:14.647,26873,),0,0,0
1:14.747,26909,(,0,0,1
1:14.781,26921,N,0,0,0
1:14.831,26939,),0,0,1
1:14.892,26961,(,0,0,2
1:14.964,26987,t,0,0,0
1:15.061,27022,),0,0,2
1:15.125,27045,(,0,0,0
1:15.161,27058,p,0,0,0
1:15.217,27078,),0,0,0
1:15.314,27113,(,0,0,1
1:15.347,27125,N,0,0,0
1:15.400,27144,),0,0,1
1:15.433,27156,(,0,0,2
1:15.533,27192,t,0,0,0
1:15.628,27226,),0,0,2
1:15.692,27249,(,0,0,0
1:15.722,27260,p,0,0,0
1:15.756,27272,),0,0,0
1:15.875,27315,(,0,0,1
1:15.908,27327,N,0,0,0
1:15.967,27348,),0,0,1
1:15.997,27359,(,0,0,2
1:16.083,27390,t,0,0,0
1:16.181,27425,),0,0,2
1:16.217,27438,(,0,0,0
1:16.253,27451,p,0,0,0
1:16.294,27466,),0,0,0
1:16.383,27498,(,0,0,1
1:16.419,27511,N,0,0,0
1:16.475,27531,),0,0,1
1:16.494,27538,(,0,0,2
1:16.594,27574,t,0,0,0
1:16.692,27609,),0,0,2
1:16.717,27618,(,0,0,1
1:16.769,27637,(,0,0,0
1:16.808,27651,p,0,0,0
1:16.811,27652,N,0,0,0
1:16.853,27667,),0,0,0
1:16.864,27671,),0,0,1
1:16.967,27708,(,0,0,1
1:17.122,27764,N,0,0,0
1:17.206,27794,),0,0,1
1:17.231,27803,(,0,0,2
1:17.350,27846,t,0,0,0
1:17.392,27861,),0,0,2
1:17.756,27992,(,0,0,0
1:17.783,28002,p,0,0,0
1:17.828,28018,),0,0,0
1:17.867,28032,(,0,0,1
1:17.933,28056,N,0,0,0
1:17.986,28075,),0,0,1
1:18.050,28098,(,0,0,2
1:18.097,28115,t,0,0,0
1:18.206,28154,),0,0,2
1:18.247,28169,(,0,0,0
1:18.278,28180,p,0,0,0
1:18.331,28199,),0,0,0
1:18.414,28229,(,0,0,1
1:18.450,28242,N,0,0,0
1:18.506,28262,),0,0,1
1:18.567,28284,(,0,0,2
1:18.628,28306,t,0,0,0
1:18.717,28338,),0,0,2
1:18.753,28351,(,0,0,0
1:18.803,28369,p,0,0,0
1:18.856,28388,),0,0,0
1:18.931,28415,(,0,0,1
1:18.967,28428,N,0,0,0
1:19.019,28447,),0,0,1
1:19.044,28456,(,0,0,2
1:19.153,28495,t,0,0,0
1:19.247,28529,),0,0,2
1:19.303,28549,(,0,0,0
1:19.336,28561,p,0,0,0
1:19.369,28573,),0,0,0
1:19.486,28615,(,0,0,1
1:19.519,28627,N,0,0,0
1:19.575,28647,),0,0,1
1:19.600,28656,(,0,0,2
1:19.711,28696,t,0,0,0
1:19.817,28734,),0,0,2
1:19.850,28746,(,0,0,0
1:19.889,28760,p,0,0,0
1:19.939,28778,),0,0,0
1:20.028,28810,(,0,0,1
1:20.064,28823,N,0,0,0
1:20.122,28844,),0,0,1
1:20.150,28854,(,0,0,2
1:20.250,28890,t,0,0,0
1:20.344,28924,),0,0,2
1:20.397,28943,(,0,0,0
1:20.431,28955,p,0,0,0
1:20.481,28973,),0,0,0
1:20.578,29008,(,0,0,1
1:20.614,29021,N,0,0,0
1:20.667,29040,),0,0,1
1:20.711,29056,(,0,0,2
1:20.794,29086,t,0,0,0
1:20.889,29120,),0,0,2
1:20.928,29134,(,0,0,0
1:20.967,29148,p,0,0,0
1:21.022,29168,),0,0,0
1:21.108,29199,(,0,0,1
1:21.144,29212,N,0,0,0
1:21.197,29231,),0,0,1
1:21.231,29243,(,0,0,2
1:21.322,29276,t,0,0,0
1:21.411,29308,),0,0,2
1:21.456,29324,(,0,0,0
1:21.489,29336,p,0,0,0
1:21.536,29353,),0,0,0
1:21.628,29386,(,0,0,1
1:21.664,29399,N,0,0,0
1:21.717,29418,),0,0,1
1:21.742,29427,(,0,0,2
1:21.847,29465,t,0,0,0
1:21.947,29501,),0,0,2
1:21.975,29511,(,0,0,0
1:22.014,29525,p,0,0,0
1:22.072,29546,),0,0,0
1:22.156,29576,(,0,0,1
1:22.192,29589,N,0,0,0
1:22.247,29609,),0,0,1
1:22.267,29616,(,0,0,2
1:22.369,29653,t,0,0,0
1:22.464,29687,),0,0,2
1:22.508,29703,(,0,0,0
1:22.542,29715,p,0,0,0
1:22.594,29734,),0,0,0
1:22.681,29765,(,0,0,1
1:22.714,29777,N,0,0,0
1:22.767,29796,),0,0,1
1:22.792,29805,(,0,0,2
1:22.886,29839,t,0,0,0
1:22.986,29875,),0,0,2
1:23.014,29885,(,0,0,0
1:23.050,29898,p,0,0,0
1:23.092,29913,),0,0,0
1:23.178,29944,(,0,0,1
1:23.211,29956,N,0,0,0
1:23.264,29975,),0,0,1
1:23.303,29989,(,0,0,2
1:23.378,30016,t,0,0,0
1:23.467,30048,),0,0,2
1:23.508,30063,(,0,0,0
1:23.542,30075,p,0,0,0
1:23.583,30090,),0,0,0
1:23.681,30125,(,0,0,1
1:23.714,30137,N,0,0,0
1:23.769,30157,),0,0,1
1:23.803,30169,(,0,0,2
1:23.886,30199,t,0,0,0
1:23.978,30232,),0,0,2
1:24.008,30243,(,0,0,0
1:24.036,30253,p,0,0,0
1:24.067,30264,),0,0,0
1:24.161,30298,(,0,0,1
1:24.206,30314,N,0,0,0
1:24.256,30332,),0,0,1
1:24.292,30345,(,0,0,2
1:24.372,30374,t,0,0,0
1:24.450,30402,),0,0,2
1:24.492,30417,(,0,0,0
1:24.519,30427,p,0,0,0
1:24.578,30448,),0,0,0
1:24.633,30468,(,0,0,1
1:24.697,30491,N,0,0,0
1:24.750,30510,),0,0,1
1:24.783,30522,(,0,0,2
1:24.869,30553,t,0,0,0
1:24.961,30586,),0,0,2
1:25.017,30606,(,0,0,0
1:25.039,30614,p,0,0,0
1:25.081,30629,),0,0,0
1:25.172,30662,(,0,0,1
1:25.206,30674,N,0,0,0
1:25.256,30692,),0,0,1
1:25.286,30703,(,0,0,2
1:25.389,30740,t,0,0,0
1:25.489,30776,),0,0,2
1:25.533,30792,(,0,0,1
1:25.622,30824,N,0,0,0
1:25.708,30855,),0,0,1
1:25.744,30868,(,0,0,2
1:25.869,30913,t,0,0,0
1:25.922,30932,),0,0,2
1:26.078,30988,(,0,0,0
1:26.114,31001,p,0,0,0
1:26.181,31025,),0,0,0
1:26.225,31041,(,0,0,1
1:26.289,31064,N,0,0,0
1:26.342,31083,),0,0,1
1:26.375,31095,(,0,0,2
1:26.486,31135,t,0,0,0
1:26.592,31173,),0,0,2
1:26.619,31183,(,0,0,0
1:26.664,31199,p,0,0,0
1:26.697,31211,),0,0,0
1:26.811,31252,(,0,0,1
1:26.850,31266,N,0,0,0
1:26.903,31285,),0,0,1
1:26.936,31297,(,0,0,2
1:27.031,31331,t,0,0,0
1:27.128,31366,),0,0,2
1:27.175,31383,(,0,0,0
1:27.219,31399,p,0,0,0
1:27.258,31413,),0,0,0
1:27.347,31445,(,0,0,1
1:27.411,31468,N,0,0,0
1:27.467,31488,),0,0,1
1:27.500,31500,(,0,0,2
1:27.611,31540,t,0,0,0
1:27.694,31570,),0,0,2
1:27.758,31593,(,0,0,0
1:27.789,31604,p,0,0,0
1:27.842,31623,),0,0,0
1:27.928,31654,(,0,0,1
1:27.972,31670,N,0,0,0
1:28.028,31690,),0,0,1
1:28.050,31698,(,0,0,2
1:28.147,31733,t,0,0,0
1:28.236,31765,),0,0,2
1:28.286,31783,(,0,0,0
1:28.317,31794,p,0,0,0
1:28.353,31807,),0,0,0
1:28.431,31835,(,0,0,1
1:28.489,31856,N,0,0,0
1:28.544,31876,),0,0,1
1:28.581,31889,(,0,0,2
1:28.664,31919,t,0,0,0
1:28.761,31954,),0,0,2
1:28.792,31965,(,0,0,0
1:28.831,31979,p,0,0,0
1:28.883,31998,),0,0,0
1:28.964,32027,(,0,0,1
1:29.000,32040,N,0,0,0
1:29.053,32059,),0,0,1
1:29.086,32071,(,0,0,2
1:29.164,32099,t,0,0,0
1:29.256,32132,),0,0,2
1:29.275,32139,(,0,0,0
1:29.328,32158,p,0,0,0
1:29.383,32178,),0,0,0
1:29.450,32202,(,0,0,1
1:29.489,32216,N,0,0,0
1:29.542,32235,),0,0,1
1:29.575,32247,(,0,0,2
1:29.656,32276,t,0,0,0
1:29.742,32307,),0,0,2
1:29.789,32324,(,0,0,0
1:29.819,32335,p,0,0,0
1:29.875,32355,),0,0,0
1:29.944,32380,(,0,0,1
1:29.986,32395,N,0,0,0
1:30.042,32415,),0,0,1
1:30.097,32435,(,0,0,2
1:30.164,32459,t,0,0,0
1:30.239,32486,),0,0,2
1:30.303,32509,(,0,0,0
1:30.328,32518,p,0,0,0
1:30.372,32534,),0,0,0
1:30.444,32560,(,0,0,1
1:30.511,32584,N,0,0,0
1:30.564,32603,),0,0,1
1:30.614,32621,(,0,0,2
1:30.689,32648,t,0,0,0
1:30.786,32683,),0,0,2
1:30.856,32708,(,0,0,0
1:30.878,32716,p,0,0,0
1:30.933,32736,),0,0,0
1:31.025,32769,(,0,0,1
1:31.061,32782,N,0,0,0
1:31.114,32801,),0,0,1
1:31.133,32808,(,0,0,2
1:31.239,32846,t,0,0,0
1:31.328,32878,),0,0,2
1:31.394,32902,(,0,0,0
1:31.419,32911,p,0,0,0
1:31.478,32932,),0,0,0
1:31.564,32963,(,0,0,1
1:31.606,32978,N,0,0,0
1:31.661,32998,),0,0,1
1:31.689,33008,(,0,0,2
1:31.800,33048,t,0,0,0
1:31.886,33079,),0,0,2
1:31.956,33104,(,0,0,0
1:31.983,33114,p,0,0,0
1:32.008,33123,),0,0,0
1:32.106,33158,(,0,0,1
1:32.167,33180,N,0,0,0
1:32.214,33197,),0,0,1
1:32.242,33207,(,0,0,2
1:32.347,33245,t,0,0,0
1:32.433,33276,),0,0,2
1:32.497,33299,(,0,0,0
1:32.517,33306,p,0,0,0
1:32.572,33326,),0,0,0
1:32.647,33353,(,0,0,1
1:32.706,33374,N,0,0,0
1:32.756,33392,),0,0,1
1:32.783,33402,(,0,0,2
1:32.894,33442,t,0,0,0
1:32.978,33472,),0,0,2
1:33.050,33498,(,0,0,0
1:33.075,33507,p,0,0,0
1:33.103,33517,),0,0,0
1:33.222,33560,(,0,0,1
1:33.258,33573,N,0,0,0
1:33.317,33594,),0,0,1
1:33.336,33601,(,0,0,2
1:33.439,33638,t,0,0,5
1:33.550,33678,t,0,0,5
1:33.600,33696,),0,0,2
1:33.750,33750,(,0,0,1
1:33.811,33772,N,0,0,0
1:33.864,33791,),0,0,1
1:33.947,33821,(,0,0,2
1:33.992,33837,t,0,0,5
1:34.114,33881,t,0,0,5
1:34.158,33897,),0,0,2
1:34.172,33902,(,0,0,0
1:34.225,33921,p,0,0,0
1:34.242,33927,),0,0,0
1:34.297,33947,(,0,0,1
1:34.333,33960,N,0,0,0
1:34.386,33979,),0,0,1
1:34.419,33991,(,0,0,2
1:34.508,34023,t,0,0,0
1:34.600,34056,),0,0,2
1:34.639,34070,(,0,0,0
1:34.675,34083,p,0,0,0
1:34.725,34101,),0,0,0
1:34.814,34133,(,0,0,1
1:34.850,34146,N,0,0,0
1:34.900,34164,),0,0,1
1:34.931,34175,(,0,0,2
1:35.017,34206,t,0,0,0
1:35.103,34237,),0,0,2
1:35.156,34256,(,0,0,0
1:35.183,34266,p,0,0,0
1:35.214,34277,),0,0,0
1:35.325,34317,(,0,0,1
1:35.356,34328,N,0,0,0
1:35.406,34346,),0,0,1
1:35.431,34355,(,0,0,2
1:35.528,34390,t,0,0,0
1:35.619,34423,),0,0,2
1:35.664,34439,(,0,0,0
1:35.703,34453,p,0,0,0
1:35.747,34469,),0,0,0
1:35.836,34501,(,0,0,1
1:35.878,34516,N,0,0,0
1:35.928,34534,),0,0,1
1:35.964,34547,(,0,0,2
1:36.047,34577,t,0,0,0
1:36.144,34612,),0,0,2
1:36.181,34625,(,0,0,0
1:36.222,34640,p,0,0,0
1:36.267,34656,),0,0,0
1:36.361,34690,(,0,0,1
1:36.394,34702,N,0,0,0
1:36.447,34721,),0,0,1
1:36.492,34737,(,0,0,2
1:36.567,34764,t,0,0,0
1:36.656,34796,),0,0,2
1:36.706,34814,(,0,0,1
1:36.792,34845,N,0,0,0
1:36.869,34873,),0,0,1
1:36.914,34889,(,0,0,2
1:37.019,34927,t,0,0,0
1:37.044,34936,),0,0,2
1:37.253,35011,(,0,0,0
1:37.281,35021,p,0,0,0
1:37.342,35043,),0,0,0
1:37.386,35059,(,0,0,1
1:37.453,35083,N,0,0,0
1:37.503,35101,),0,0,1
1:37.522,35108,(,0,0,2
1:37.628,35146,t,0,0,0
1:37.722,35180,),0,0,2
1:37.775,35199,(,0,0,0
1:37.811,35212,p,0,0,0
1:37.869,35233,),0,0,0
1:37.950,35262,(,0,0,1
1:37.997,35279,N,0,0,0
1:38.053,35299,),0,0,1
1:38.089,35312,(,0,0,2
1:38.178,35344,t,0,0,0
1:38.294,35386,),0,0,2
1:38.336,35401,(,0,0,0
1:38.381,35417,p,0,0,0
1:38.442,35439,),0,0,0
1:38.506,35462,(,0,0,1
1:38.567,35484,N,0,0,0
1:38.622,35504,),0,0,1
1:38.678,35524,(,0,0,2
1:38.764,35555,t,0,0,0
1:38.867,35592,),0,0,2
1:38.925,35613,(,0,0,0
1:38.972,35630,p,0,0,0
1:39.025,35649,),0,0,0
1:39.100,35676,(,0,0,1
1:39.172,35702,N,0,0,0
1:39.228,35722,),0,0,1
1:39.269,35737,(,0,0,2
1:39.364,35771,t,0,0,5
1:39.481,35813,t,0,0,5
1:39.542,35835,),0,0,2
1:39.672,35882,(,0,0,1
1:39.733,35904,N,0,0,0
1:39.786,35923,),0,0,1
1:39.861,35950,(,0,0,2
1:39.919,35971,t,0,0,0
1:40.008,36003,),0,0,2
1:40.058,36021,(,0,0,1
1:40.153,36055,N,0,0,0
1:40.239,36086,),0,0,1
1:40.300,36108,(,0,0,2
1:40.392,36141,t,0,0,0
1:40.442,36159,),0,0,2
1:40.578,36208,(,0,0,0
1:40.611,36220,p,0,0,0
1:40.653,36235,),0,0,0
1:40.728,36262,(,0,0,1
1:40.781,36281,N,0,0,0
1:40.842,36303,),0,0,1
1:40.889,36320,(,0,0,2
1:40.950,36342,t,0,0,0
1:41.069,36385,),0,0,2
1:41.083,36390,(,0,0,0
1:41.125,36405,p,0,0,0
1:41.178,36424,),0,0,0
1:41.258,36453,(,0,0,1
1:41.286,36463,N,0,0,0
1:41.333,36480,),0,0,1
1:41.411,36508,(,0,0,2
1:41.453,36523,t,0,0,5
1:41.558,36561,t,0,0,5
1:41.611,36580,),0,0,2
1:41.625,36585,(,0,0,0
1:41.700,36612,p,0,0,0
1:41.731,36623,),0,0,0
1:41.750,36630,(,0,0,1
1:41.794,36646,N,0,0,0
1:41.847,36665,),0,0,1
1:41.889,36680,(,0,0,2
1:41.969,36709,t,0,0,0
1:42.056,36740,),0,0,2
1:42.111,36760,(,0,0,0
1:42.136,36769,p,0,0,0
1:42.183,36786,),0,0,0
1:42.258,36813,(,0,0,1
1:42.300,36828,N,0,0,0
1:42.353,36847,),0,0,1
1:42.375,36855,(,0,0,2
1:42.472,36890,t,0,0,5
1:42.586,36931,t,0,0,5
1:42.636,36949,),0,0,2
1:42.786,37003,(,0,0,1
1:42.825,37017,N,0,0,0
1:42.881,37037,),0,0,1
1:42.919,37051,(,0,0,2
1:43.008,37083,t,0,0,0
1:43.103,37117,),0,0,2
1:43.131,37127,(,0,0,0
1:43.181,37145,p,0,0,0
1:43.211,37156,),0,0,0
1:43.322,37196,(,0,0,1
1:43.358,37209,N,0,0,0
1:43.408,37227,),0,0,1
1:43.433,37236,(,0,0,2
1:43.550,37278,t,0,0,0
1:43.656,37316,),0,0,2
1:43.692,37329,(,0,0,0
1:43.725,37341,p,0,0,0
1:43.769,37357,),0,0,0
1:43.856,37388,(,0,0,1
1:43.922,37412,N,0,0,0
1:43.981,37433,),0,0,1
1:44.042,37455,(,0,0,2
1:44.108,37479,t,0,0,0
1:44.186,37507,),0,0,2
1:44.264,37535,(,0,0,0
1:44.289,37544,p,0,0,0
1:44.342,37563,),0,0,0
1:44.411,37588,(,0,0,1
1:44.469,37609,N,0,0,0
1:44.525,37629,),0,0,1
1:44.569,37645,(,0,0,2
1:44.650,37674,t,0,0,0
1:44.753,37711,),0,0,2
1:44.778,37720,(,0,0,0
1:44.839,37742,p,0,0,0
1:44.903,37765,),0,0,0
1:44.981,37793,(,0,0,1
1:45.031,37811,N,0,0,0
1:45.086,37831,),0,0,1
1:45.142,37851,(,0,0,2
1:45.214,37877,t,0,0,0
1:45.297,37907,),0,0,2
1:45.356,37928,(,0,0,0
1:45.389,37940,p,0,0,0
1:45.431,37955,),0,0,0
1:45.503,37981,(,0,0,1
1:45.569,38005,N,0,0,0
1:45.622,38024,),0,0,1
1:45.669,38041,(,0,0,2
1:45.742,38067,t,0,0,0
1:45.831,38099,),0,0,2
1:45.875,38115,(,0,0,0
1:45.919,38131,p,0,0,0
1:45.961,38146,),0,0,0
1:46.061,38182,(,0,0,1
1:46.100,38196,N,0,0,0
1:46.150,38214,),0,0,1
1:46.197,38231,(,0,0,2
1:46.275,38259,t,0,0,0
1:46.361,38290,),0,0,2
1:46.472,38330,(,0,0,1
1:46.544,38356,N,0,0,0
1:46.628,38386,),0,0,1
1:46.683,38406,(,0,0,2
1:46.769,38437,t,0,0,0
1:46.808,38451,),0,0,2
1:46.931,38495,(,0,0,0
1:46.958,38505,p,0,0,0
1:47.011,38524,),0,0,0
1:47.103,38557,(,0,0,1
1:47.133,38568,N,0,0,0
1:47.186,38587,),0,0,1
1:47.242,38607,(,0,0,2
1:47.306,38630,t,0,0,0
1:47.394,38662,),0,0,2
1:47.433,38676,(,0,0,0
1:47.461,38686,p,0,0,0
1:47.506,38702,),0,0,0
1:47.553,38719,(,0,0,1
1:47.625,38745,N,0,0,0
1:47.675,38763,),0,0,1
1:47.714,38777,(,0,0,2
1:47.783,38802,t,0,0,0
1:47.875,38835,),0,0,2
1:47.928,38854,(,0,0,0
1:47.961,38866,p,0,0,0
1:48.017,38886,),0,0,0
1:48.075,38907,(,0,0,1
1:48.136,38929,N,0,0,0
1:48.186,38947,),0,0,1
1:48.222,38960,(,0,0,2
1:48.306,38990,t,0,0,0
1:48.389,39020,),0,0,2
1:48.433,39036,(,0,0,0
1:48.467,39048,p,0,0,0
1:48.517,39066,),0,0,0
1:48.600,39096,(,0,0,1
1:48.636,39109,N,0,0,0
1:48.686,39127,),0,0,1
1:48.719,39139,(,0,0,2
1:48.803,39169,t,0,0,5
1:48.914,39209,t,0,0,5
1:48.967,39228,),0,0,2
1:48.975,39231,(,0,0,0
1:49.042,39255,p,0,0,0
1:49.078,39268,),0,0,0
1:49.117,39282,(,0,0,1
1:49.153,39295,N,0,0,0
1:49.206,39314,),0,0,1
1:49.244,39328,(,0,0,2
1:49.322,39356,t,0,0,0
1:49.394,39382,),0,0,2
1:49.453,39403,(,0,0,0
1:49.478,39412,p,0,0,0
1:49.519,39427,),0,0,0
1:49.622,39464,(,0,0,1
1:49.658,39477,N,0,0,0
1:49.711,39496,),0,0,1
1:49.747,39509,(,0,0,2
1:49.847,39545,t,0,0,0
1:49.950,39582,),0,0,2
1:49.983,39594,(,0,0,0
1:50.022,39608,p,0,0,0
1:50.092,39633,),0,0,0
1:50.178,39664,(,0,0,1
1:50.214,39677,N,0,0,0
1:50.261,39694,),0,0,1
1:50.308,39711,(,0,0,2
1:50.389,39740,t,0,0,0
1:50.494,39778,),0,0,2
1:50.531,39791,(,0,0,0
1:50.564,39803,p,0,0,0
1:50.603,39817,),0,0,0
1:50.697,39851,(,0,0,1
1:50.747,39869,N,0,0,0
1:50.800,39888,),0,0,1
1:50.861,39910,(,0,0,2
1:50.931,39935,t,0,0,0
1:51.042,39975,),0,0,2
1:51.092,39993,(,0,0,0
1:51.133,40008,p,0,0,0
1:51.169,40021,),0,0,0
1:51.281,40061,(,0,0,1
1:51.319,40075,N,0,0,0
1:51.369,40093,),0,0,1
1:51.408,40107,(,0,0,2
1:51.500,40140,t,0,0,0
1:51.581,40169,),0,0,2
1:51.658,40197,(,0,0,0
1:51.681,40205,p,0,0,0
1:51.744,40228,),0,0,0
1:51.814,40253,(,0,0,1
1:51.872,40274,N,0,0,0
1:51.928,40294,),0,0,1
1:51.944,40300,(,0,0,2
1:52.056,40340,t,0,0,0
1:52.147,40373,),0,0,2
1:52.189,40388,(,0,0,0
1:52.233,40404,p,0,0,0
1:52.269,40417,),0,0,0
1:52.350,40446,(,0,0,1
1:52.406,40466,N,0,0,0
1:52.458,40485,),0,0,1
1:52.506,40502,(,0,0,2
1:52.569,40525,t,0,0,0
1:52.669,40561,),0,0,2
1:52.703,40573,(,0,0,0
1:52.742,40587,p,0,0,0
1:52.781,40601,),0,0,0
1:52.869,40633,(,0,0,1
1:52.906,40646,N,0,0,0
1:52.953,40663,),0,0,1
1:53.008,40683,(,0,0,2
1:53.072,40706,t,0,0,0
1:53.169,40741,),0,0,2
1:53.197,40751,(,0,0,0
1:53.239,40766,p,0,0,0
1:53.294,40786,),0,0,0
1:53.375,40815,(,0,0,1
1:53.408,40827,N,0,0,0
1:53.456,40844,),0,0,1
1:53.500,40860,(,0,0,2
1:53.581,40889,t,0,0,0
1:53.678,40924,),0,0,2
1:53.697,40931,(,0,0,0
1:53.742,40947,p,0,0,0
1:53.794,40966,),0,0,0
1:53.867,40992,(,0,0,1
1:53.906,41006,N,0,0,0
1:53.961,41026,),0,0,1
1:53.997,41039,(,0,0,2
1:54.078,41068,t,0,0,0
1:54.164,41099,),0,0,2
1:54.217,41118,(,0,0,0
1:54.244,41128,p,0,0,0
1:54.303,41149,),0,0,0
1:54.381,41177,(,0,0,1
1:54.419,41191,N,0,0,0
1:54.472,41210,),0,0,1
1:54.539,41234,(,0,0,2
1:54.594,41254,t,0,0,0
1:54.675,41283,),0,0,2
1:54.736,41305,(,0,0,0
1:54.769,41317,p,0,0,0
1:54.828,41338,),0,0,0
1:54.914,41369,(,0,0,1
1:54.950,41382,N,0,0,0
1:55.017,41406,),0,0,1
1:55.047,41417,(,0,0,2
1:55.142,41451,t,0,0,0
1:55.233,41484,),0,0,2
1:55.275,41499,(,0,0,0
1:55.317,41514,p,0,0,0
1:55.364,41531,),0,0,0
1:55.453,41563,(,0,0,1
1:55.497,41579,N,0,0,0
1:55.550,41598,),0,0,1
1:55.569,41605,(,0,0,2
1:55.678,41644,t,0,0,5
1:55.800,41688,t,0,0,5
1:55.853,41707,),0,0,2
1:55.867,41712,(,0,0,0
1:55.906,41726,p,0,0,0
1:55.925,41733,),0,0,0
1:56.000,41760,(,0,0,1
1:56.044,41776,N,0,0,0
1:56.106,41798,),0,0,1
1:56.144,41812,(,0,0,2
1:56.242,41847,t,0,0,0
1:56.353,41887,),0,0,2
1:56.381,41897,(,0,0,0
1:56.422,41912,p,0,0,0
1:56.456,41924,),0,0,0
1:56.550,41958,(,0,0,1
1:56.606,41978,N,0,0,0
1:56.658,41997,),0,0,1
1:56.689,42008,(,0,0,2
1:56.775,42039,t,0,0,0
1:56.878,42076,),0,0,2
1:56.942,42099,(,0,0,0
1:56.983,42114,p,0,0,0
1:57.028,42130,),0,0,0
1:57.111,42160,(,0,0,1
1:57.147,42173,N,0,0,0
1:57.203,42193,),0,0,1
1:57.239,42206,(,0,0,2
1:57.336,42241,t,0,0,0
1:57.447,42281,),0,0,2
1:57.486,42295,(,0,0,0
1:57.511,42304,p,0,0,0
1:57.561,42322,),0,0,0
1:57.650,42354,(,0,0,1
1:57.692,42369,N,0,0,0
1:57.742,42387,),0,0,1
1:57.792,42405,(,0,0,2
1:57.875,42435,t,0,0,5
1:57.994,42478,t,0,0,5
1:58.039,42494,),0,0,2
1:58.056,42500,(,0,0,0
1:58.111,42520,p,0,0,0
1:58.161,42538,),0,0,0
1:58.169,42541,(,0,0,1
1:58.225,42561,N,0,0,0
1:58.275,42579,),0,0,1
1:58.344,42604,(,0,0,2
1:58.403,42625,t,0,0,0
1:58.486,42655,),0,0,2
1:58.522,42668,(,0,0,0
1:58.561,42682,p,0,0,0
1:58.608,42699,),0,0,0
1:58.689,42728,(,0,0,1
1:58.728,42742,N,0,0,0
1:58.778,42760,),0,0,1
1:58.808,42771,(,0,0,2
1:58.900,42804,t,0,0,0
1:59.003,42841,),0,0,2
1:59.053,42859,(,0,0,0
1:59.078,42868,p,0,0,0
1:59.106,42878,),0,0,0
1:59.214,42917,(,0,0,1
1:59.247,42929,N,0,0,0
1:59.303,42949,),0,0,1
1:59.356,42968,(,0,0,2
1:59.419,42991,t,0,0,0
1:59.508,43023,),0,0,2
1:59.553,43039,(,0,0,0
1:59.583,43050,p,0,0,0
1:59.617,43062,),0,0,0
1:59.689,43088,(,0,0,1
1:59.761,43114,N,0,0,0
1:59.817,43134,),0,0,1
1:59.850,43146,(,0,0,2
1:59.942,43179,t,0,0,0
2:00.028,43210,),0,0,2
2:00.083,43230,(,0,0,0
2:00.114,43241,p,0,0,0
2:00.164,43259,),0,0,0
2:00.261,43294,(,0,0,1
2:00.297,43307,N,0,0,0
2:00.344,43324,),0,0,1
2:00.400,43344,(,0,0,2
2:00.464,43367,t,0,0,0
2:00.544,43396,),0,0,2
2:00.594,43414,(,0,0,0
2:00.631,43427,p,0,0,0
2:00.694,43450,),0,0,0
2:00.756,43472,(,0,0,1
2:00.808,43491,N,0,0,0
2:00.861,43510,),0,0,1
2:00.919,43531,(,0,0,2
2:00.989,43556,t,0,0,0
2:01.083,43590,),0,0,2
2:01.122,43604,(,0,0,0
2:01.164,43619,p,0,0,0
2:01.211,43636,),0,0,0
2:01.308,43671,(,0,0,1
2:01.347,43685,N,0,0,0
2:01.397,43703,),0,0,1
2:01.467,43728,(,0,0,2
2:01.528,43750,t,0,0,0
2:01.619,43783,),0,0,2
2:01.661,43798,(,0,0,0
2:01.692,43809,p,0,0,0
2:01.722,43820,),0,0,0
2:01.825,43857,(,0,0,1
2:01.883,43878,N,0,0,0
2:01.933,43896,),0,0,1
2:02.014,43925,(,0,0,2
2:02.058,43941,t,0,0,0
2:02.153,43975,),0,0,2
2:02.211,43996,(,0,0,0
2:02.242,44007,p,0,0,0
2:02.297,44027,),0,0,0
2:02.381,44057,(,0,0,1
2:02.431,44075,N,0,0,0
2:02.483,44094,),0,0,1
2:02.514,44105,(,0,0,2
2:02.622,44144,t,0,0,0
2:02.706,44174,),0,0,2
2:02.783,44202,(,0,0,0
2:02.814,44213,p,0,0,0
2:02.844,44224,),0,0,0
2:02.919,44251,(,0,0,1
2:03.000,44280,N,0,0,0
2:03.064,44303,),0,0,1
2:03.103,44317,(,0,0,2
2:03.194,44350,t,0,0,0
2:03.303,44389,),0,0,2
2:03.369,44413,(,0,0,0
2:03.392,44421,p,0,0,0
2:03.425,44433,),0,0,0
2:03.550,44478,(,0,0,1
2:03.586,44491,N,0,0,0
2:03.639,44510,),0,0,1
2:03.669,44521,(,0,0,2
2:03.767,44556,t,0,0,5
2:03.883,44598,t,0,0,5
2:03.931,44615,),0,0,2
2:04.086,44671,(,0,0,1
2:04.122,44684,N,0,0,0
2:04.175,44703,),0,0,1
2:04.206,44714,(,0,0,2
2:04.300,44748,t,0,0,0
2:04.392,44781,),0,0,2
2:04.450,44802,(,0,0,0
2:04.475,44811,p,0,0,0
2:04.522,44828,),0,0,0
2:04.619,44863,(,0,0,1
2:04.653,44875,N,0,0,0
2:04.703,44893,),0,0,1
2:04.742,44907,(,0,0,2
2:04.822,44936,t,0,0,0
2:04.906,44966,),0,0,2
2:04.953,44983,(,0,0,0
2:04.981,44993,p,0,0,0
2:05.047,45017,),0,0,0
2:05.111,45040,(,0,0,1
2:05.147,45053,N,0,0,0
2:05.200,45072,),0,0,1
2:05.228,45082,(,0,0,2
2:05.314,45113,t,0,0,5
2:05.417,45150,t,0,0,5
2:05.483,45174,),0,0,2
2:05.614,45221,(,0,0,1
2:05.675,45243,N,0,0,0
2:05.703,45253,),0,0,1
2:05.728,45262,(,0,0,2
2:05.817,45294,t,0,0,5
2:05.942,45339,t,0,0,5
2:05.986,45355,),0,0,2
2:06.106,45398,(,0,0,1
2:06.189,45428,N,0,0,0
2:06.219,45439,),0,0,1
2:06.278,45460,(,0,0,2
2:06.342,45483,t,0,0,5
2:06.444,45520,t,0,0,5
2:06.503,45541,),0,0,2
2:06.517,45546,(,0,0,0
2:06.575,45567,p,0,0,0
2:06.597,45575,),0,0,0
2:06.636,45589,(,0,0,1
2:06.694,45610,N,0,0,0
2:06.719,45619,),0,0,1
2:06.775,45639,(,0,0,2
2:06.842,45663,t,0,0,0
2:06.928,45694,),0,0,2
2:06.950,45702,(,0,0,0
2:07.003,45721,p,0,0,0
2:07.042,45735,),0,0,0
2:07.150,45774,(,0,0,1
2:07.197,45791,N,0,0,0
2:07.250,45810,),0,0,1
2:07.317,45834,(,0,0,2
2:07.378,45856,t,0,0,0
2:07.472,45890,),0,0,2
2:07.514,45905,(,0,0,0
2:07.553,45919,p,0,0,0
2:07.606,45938,),0,0,0
2:07.697,45971,(,0,0,1
2:07.736,45985,N,0,0,0
2:07.792,46005,),0,0,1
2:07.833,46020,(,0,0,2
2:07.925,46053,t,0,0,0
2:08.017,46086,),0,0,2
2:08.042,46095,(,0,0,0
2:08.064,46103,p,0,0,0
2:08.103,46117,),0,0,0
2:08.142,46131,(,0,0,1
2:08.219,46159,N,0,0,0
2:08.311,46192,),0,0,1
2:08.400,46224,(,0,0,2
2:08.481,46253,t,0,0,0
2:08.531,46271,),0,0,2
2:08.653,46315,(,0,0,0
2:08.681,46325,p,0,0,0
2:08.722,46340,),0,0,0
2:08.800,46368,(,0,0,1
2:08.864,46391,N,0,0,0
2:08.917,46410,),0,0,1
2:08.961,46426,(,0,0,2
2:09.056,46460,t,0,0,0
2:09.150,46494,),0,0,2
2:09.194,46510,(,0,0,0
2:09.236,46525,p,0,0,0
2:09.281,46541,),0,0,0
2:09.386,46579,(,0,0,1
2:09.450,46602,N,0,0,0
2:09.475,46611,),0,0,1
2:09.500,46620,(,0,0,2
2:09.600,46656,t,0,0,0
2:09.689,46688,),0,0,2
2:09.744,46708,(,0,0,0
2:09.781,46721,p,0,0,0
2:09.839,46742,),0,0,0
2:09.917,46770,(,0,0,1
2:09.956,46784,N,0,0,0
2:10.008,46803,),0,0,1
2:10.047,46817,(,0,0,2
2:10.125,46845,t,0,0,0
2:10.217,46878,),0,0,2
2:10.258,46893,(,0,0,0
2:10.292,46905,p,0,0,0
2:10.342,46923,),0,0,0
2:10.431,46955,(,0,0,1
2:10.467,46968,N,0,0,0
2:10.517,46986,),0,0,1
2:10.564,47003,(,0,0,2
2:10.639,47030,t,0,0,0
2:10.731,47063,),0,0,2
2:10.764,47075,(,0,0,0
2:10.800,47088,p,0,0,0
2:10.847,47105,),0,0,0
2:10.933,47136,(,0,0,1
2:10.972,47150,N,0,0,0
2:11.025,47169,),0,0,1
2:11.067,47184,(,0,0,2
2:11.147,47213,t,0,0,0
2:11.236,47245,),0,0,2
2:11.275,47259,(,0,0,0
2:11.308,47271,p,0,0,0
2:11.356,47288,),0,0,0
2:11.450,47322,(,0,0,1
2:11.511,47344,N,0,0,0
2:11.536,47353,),0,0,1
2:11.569,47365,(,0,0,2
2:11.656,47396,t,0,0,0
2:11.744,47428,),0,0,2
2:11.786,47443,(,0,0,0
2:11.822,47456,p,0,0,0
2:11.872,47474,),0,0,0
2:11.958,47505,(,0,0,1
2:12.019,47527,N,0,0,0
2:12.042,47535,),0,0,1
2:12.081,47549,(,0,0,2
2:12.161,47578,t,0,0,0
2:12.258,47613,),0,0,2
2:12.297,47627,(,0,0,0
2:12.333,47640,p,0,0,0
2:12.392,47661,),0,0,0
2:12.481,47693,(,0,0,1
2:12.517,47706,N,0,0,0
2:12.567,47724,),0,0,1
2:12.600,47736,(,0,0,2
2:12.694,47770,t,0,0,0
2:12.789,47804,),0,0,2
2:12.831,47819,(,0,0,0
2:12.864,47831,p,0,0,0
2:12.922,47852,),0,0,0
2:12.997,47879,(,0,0,1
2:13.033,47892,N,0,0,0
2:13.083,47910,),0,0,1
2:13.128,47926,(,0,0,2
2:13.200,47952,t,0,0,0
2:13.292,47985,),0,0,2
2:13.336,48001,(,0,0,0
2:13.372,48014,p,0,0,0
2:13.433,48036,),0,0,0
2:13.519,48067,(,0,0,1
2:13.556,48080,N,0,0,0
2:13.611,48100,),0,0,1
2:13.664,48119,(,0,0,2
2:13.739,48146,t,0,0,0
2:13.831,48179,),0,0,2
2:13.867,48192,(,0,0,0
2:13.900,48204,p,0,0,0
2:13.956,48224,),0,0,0
2:14.042,48255,(,0,0,1
2:14.111,48280,N,0,0,0
2:14.136,48289,),0,0,1
2:14.169,48301,(,0,0,2
2:14.269,48337,t,0,0,0
2:14.372,48374,),0,0,2
2:14.414,48389,(,0,0,0
2:14.453,48403,p,0,0,0
2:14.489,48416,),0,0,0
2:14.606,48458,(,0,0,1
2:14.644,48472,N,0,0,0
2:14.697,48491,),0,0,1
2:14.731,48503,(,0,0,2
2:14.822,48536,t,0,0,0
2:14.919,48571,),0,0,2
2:14.969,48589,(,0,0,0
2:14.997,48599,p,0,0,0
2:15.047,48617,),0,0,0
2:15.142,48651,(,0,0,1
2:15.181,48665,N,0,0,0
2:15.233,48684,),0,0,1
2:15.275,48699,(,0,0,2
2:15.361,48730,t,0,0,0
2:15.458,48765,),0,0,2
2:15.503,48781,(,0,0,0
2:15.539,48794,p,0,0,0
2:15.594,48814,),0,0,0
2:15.689,48848,(,0,0,1
2:15.725,48861,N,0,0,0
2:15.781,48881,),0,0,1
2:15.819,48895,(,0,0,2
2:15.906,48926,t,0,0,0
2:16.003,48961,),0,0,2
2:16.033,48972,(,0,0,0
2:16.069,48985,p,0,0,0
2:16.119,49003,),0,0,0
2:16.211,49036,(,0,0,1
2:16.247,49049,N,0,0,0
2:16.300,49068,),0,0,1
2:16.325,49077,(,0,0,2
2:16.425,49113,t,0,0,0
2:16.519,49147,),0,0,2
2:16.561,49162,(,0,0,0
2:16.594,49174,p,0,0,0
2:16.633,49188,),0,0,0
2:16.733,49224,(,0,0,1
2:16.769,49237,N,0,0,0
2:16.817,49254,),0,0,1
2:16.842,49263,(,0,0,2
2:16.933,49296,t,0,0,0
2:17.017,49326,),0,0,2
2:17.067,49344,(,0,0,0
2:17.097,49355,p,0,0,0
2:17.147,49373,),0,0,0
2:17.197,49391,(,0,0,1
2:17.269,49417,N,0,0,0
2:17.322,49436,),0,0,1
2:17.353,49447,(,0,0,2
2:17.431,49475,t,0,0,0
2:17.517,49506,),0,0,2
2:17.558,49521,(,0,0,0
2:17.600,49536,p,0,0,0
2:17.653,49555,),0,0,0
2:17.736,49585,(,0,0,1
2:17.769,49597,N,0,0,0
2:17.819,49615,),0,0,1
2:17.858,49629,(,0,0,2
2:17.939,49658,t,0,0,0
2:18.028,49690,),0,0,2
2:18.064,49703,(,0,0,0
2:18.092,49713,p,0,0,0
2:18.125,49725,),0,0,0
2:18.219,49759,(,0,0,1
2:18.256,49772,N,0,0,0
2:18.306,49790,),0,0,1
2:18.358,49809,(,0,0,2
2:18.422,49832,t,0,0,0
2:18.514,49865,),0,0,2
2:18.547,49877,(,0,0,0
2:18.578,49888,p,0,0,0
2:18.619,49903,),0,0,0
2:18.717,49938,(,0,0,1
2:18.753,49951,N,0,0,0
2:18.806,49970,),0,0,1
2:18.842,49983,(,0,0,2
2:18.928,50014,t,0,0,0
2:19.022,50048,),0,0,2
2:19.064,50063,(,0,0,0
2:19.100,50076,p,0,0,0
2:19.156,50096,),0,0,0
2:19.250,50130,(,0,0,1
2:19.289,50144,N,0,0,0
2:19.342,50163,),0,0,1
2:19.381,50177,(,0,0,2
2:19.472,50210,t,0,0,0
2:19.575,50247,),0,0,2
2:19.619,50263,(,0,0,0
2:19.656,50276,p,0,0,0
2:19.711,50296,),0,0,0
2:19.817,50334,(,0,0,1
2:19.853,50347,N,0,0,0
2:19.908,50367,),0,0,1
2:19.953,50383,(,0,0,2
2:20.042,50415,t,0,0,0
2:20.136,50449,),0,0,2
2:20.192,50469,(,0,0,0
2:20.222,50480,p,0,0,0
2:20.261,50494,),0,0,0
2:20.350,50526,(,0,0,1
2:20.411,50548,N,0,0,0
2:20.464,50567,),0,0,1
2:20.489,50576,(,0,0,2
2:20.594,50614,t,0,0,0
2:20.694,50650,),0,0,2
2:20.744,50668,(,0,0,0
2:20.783,50682,p,0,0,0
2:20.817,50694,),0,0,0
2:20.939,50738,(,0,0,1
2:20.978,50752,N,0,0,0
2:21.036,50773,),0,0,1
2:21.072,50786,(,0,0,2
2:21.164,50819,t,0,0,0
2:21.261,50854,),0,0,2
2:21.297,50867,(,0,0,0
2:21.342,50883,p,0,0,0
2:21.389,50900,),0,0,0
2:21.483,50934,(,0,0,1
2:21.550,50958,N,0,0,0
2:21.578,50968,),0,0,1
2:21.606,50978,(,0,0,2
2:21.700,51012,t,0,0,0
2:21.792,51045,),0,0,2
2:21.844,51064,(,0,0,0
2:21.883,51078,p,0,0,0
2:21.936,51097,),0,0,0
2:21.947,51101,(,0,0,1
2:22.050,51138,N,0,0,0
2:22.225,51201,),0,0,1
2:22.372,51254,(,0,0,0
2:22.414,51269,p,0,0,0
2:22.456,51284,),0,0,0
2:22.547,51317,(,0,0,1
2:22.583,51330,N,0,0,0
2:22.636,51349,),0,0,1
2:22.656,51356,(,0,0,2
2:22.758,51393,t,0,0,0
2:22.853,51427,),0,0,2
2:22.881,51437,(,0,0,0
2:22.917,51450,p,0,0,0
2:22.969,51469,),0,0,0
2:23.058,51501,(,0,0,1
2:23.089,51512,N,0,0,0
2:23.139,51530,),0,0,1
2:23.206,51554,(,0,0,2
2:23.250,51570,t,0,0,0
2:23.339,51602,),0,0,2
2:23.383,51618,(,0,0,0
2:23.414,51629,p,0,0,0
2:23.464,51647,),0,0,0
2:23.547,51677,(,0,0,1
2:23.581,51689,N,0,0,0
2:23.633,51708,),0,0,1
2:23.656,51716,(,0,0,2
2:23.758,51753,t,0,0,0
2:23.850,51786,),0,0,2
2:23.897,51803,(,0,0,0
2:23.928,51814,p,0,0,0
2:23.972,51830,),0,0,0
2:24.064,51863,(,0,0,1
2:24.125,51885,N,0,0,0
2:24.147,51893,),0,0,1
2:24.214,51917,(,0,0,2
2:24.267,51936,t,0,0,0
2:24.361,51970,),0,0,2
2:24.408,51987,(,0,0,0
2:24.447,52001,p,0,0,0
2:24.503,52021,),0,0,0
2:24.592,52053,(,0,0,1
2:24.656,52076,N,0,0,0
2:24.681,52085,),0,0,1
2:24.714,52097,(,0,0,2
2:24.808,52131,t,0,0,0
2:24.917,52170,),0,0,2
2:24.950,52182,(,0,0,0
2:24.992,52197,p,0,0,0
2:25.028,52210,),0,0,0
2:25.133,52248,(,0,0,1
2:25.169,52261,N,0,0,0
2:25.225,52281,),0,0,1
2:25.244,52288,(,0,0,2
2:25.347,52325,t,0,0,0
2:25.439,52358,),0,0,2
2:25.483,52374,(,0,0,0
2:25.528,52390,p,0,0,0
2:25.586,52411,),0,0,0
2:25.667,52440,(,0,0,1
2:25.708,52455,N,0,0,0
2:25.764,52475,),0,0,1
2:25.811,52492,(,0,0,2
2:25.900,52524,t,0,0,0
2:26.000,52560,),0,0,2
2:26.053,52579,(,0,0,0
2:26.086,52591,p,0,0,0
2:26.139,52610,),0,0,0
2:26.236,52645,(,0,0,1
2:26.300,52668,N,0,0,0
2:26.328,52678,),0,0,1
2:26.353,52687,(,0,0,2
2:26.458,52725,t,0,0,0
2:26.547,52757,),0,0,2
2:26.597,52775,(,0,0,0
2:26.636,52789,p,0,0,0
2:26.681,52805,),0,0,0
2:26.781,52841,(,0,0,1
2:26.844,52864,N,0,0,0
2:26.872,52874,),0,0,1
2:26.906,52886,(,0,0,2
2:27.006,52922,t,0,0,0
2:27.108,52959,),0,0,2
2:27.156,52976,(,0,0,0
2:27.194,52990,p,0,0,0
2:27.250,53010,),0,0,0
2:27.344,53044,(,0,0,1
2:27.408,53067,N,0,0,0
2:27.436,53077,),0,0,1
2:27.458,53085,(,0,0,2
2:27.567,53124,t,0,0,0
2:27.661,53158,),0,0,2
2:27.706,53174,(,0,0,0
2:27.750,53190,p,0,0,0
2:27.797,53207,),0,0,0
2:27.900,53244,(,0,0,1
2:27.939,53258,N,0,0,0
2:27.994,53278,),0,0,1
2:28.019,53287,(,0,0,2
2:28.131,53327,t,0,0,0
2:28.228,53362,),0,0,2
2:28.269,53377,(,0,0,0
2:28.303,53389,p,0,0,0
2:28.367,53412,),0,0,0
2:28.419,53431,(,0,0,1
2:28.506,53462,N,0,0,0
2:28.531,53471,),0,0,1
2:28.553,53479,(,0,0,2
2:28.650,53514,t,0,0,5
2:28.772,53558,t,0,0,5
2:28.817,53574,),0,0,2
2:28.958,53625,(,0,0,1
2:29.019,53647,N,0,0,0
2:29.044,53656,),0,0,1
2:29.067,53664,(,0,0,2
2:29.167,53700,t,0,0,0
2:29.256,53732,),0,0,2
2:29.303,53749,(,0,0,0
2:29.336,53761,p,0,0,0
2:29.383,53778,),0,0,0
2:29.467,53808,(,0,0,1
2:29.497,53819,N,0,0,0
2:29.550,53838,),0,0,1
2:29.614,53861,(,0,0,2
2:29.661,53878,t,0,0,0
2:29.753,53911,),0,0,2
2:29.783,53922,(,0,0,0
2:29.814,53933,p,0,0,0
2:29.858,53949,),0,0,0
2:29.947,53981,(,0,0,1
2:29.983,53994,N,0,0,0
2:30.033,54012,),0,0,1
2:30.056,54020,(,0,0,2
2:30.153,54055,t,0,0,0
2:30.242,54087,),0,0,2
2:30.292,54105,(,0,0,0
2:30.319,54115,p,0,0,0
2:30.375,54135,),0,0,0
2:30.453,54163,(,0,0,1
2:30.489,54176,N,0,0,0
2:30.539,54194,),0,0,1
2:30.569,54205,(,0,0,2
2:30.656,54236,t,0,0,0
2:30.744,54268,),0,0,2
2:30.792,54285,(,0,0,0
2:30.828,54298,p,0,0,0
2:30.886,54319,),0,0,0
2:30.981,54353,(,0,0,1
2:31.042,54375,N,0,0,0
2:31.067,54384,),0,0,1
2:31.100,54396,(,0,0,2
2:31.200,54432,t,0,0,0
2:31.292,54465,),0,0,2
2:31.342,54483,(,0,0,0
2:31.375,54495,p,0,0,0
2:31.414,54509,),0,0,0
2:31.514,54545,(,0,0,1
2:31.578,54568,N,0,0,0
2:31.606,54578,),0,0,1
2:31.633,54588,(,0,0,2
2:31.728,54622,t,0,0,0
2:31.825,54657,),0,0,2
2:31.856,54668,(,0,0,0
2:31.903,54685,p,0,0,0
2:31.939,54698,),0,0,0
2:32.058,54741,(,0,0,1
2:32.097,54755,N,0,0,0
2:32.153,54775,),0,0,1
2:32.189,54788,(,0,0,2
2:32.289,54824,t,0,0,0
2:32.392,54861,),0,0,2
2:32.431,54875,(,0,0,0
2:32.461,54886,p,0,0,0
2:32.511,54904,),0,0,0
2:32.608,54939,(,0,0,1
2:32.642,54951,N,0,0,0
2:32.697,54971,),0,0,1
2:32.742,54987,(,0,0,2
2:32.836,55021,t,0,0,0
2:32.928,55054,),0,0,2
2:32.986,55075,(,0,0,0
2:33.022,55088,p,0,0,0
2:33.067,55104,),0,0,0
2:33.164,55139,(,0,0,1
2:33.250,55170,N,0,0,0
2:33.278,55180,),0,0,1
2:33.319,55195,(,0,0,2
2:33.419,55231,t,0,0,0
2:33.506,55262,),0,0,2
2:33.564,55283,(,0,0,0
2:33.597,55295,p,0,0,0
2:33.650,55314,),0,0,0
2:33.742,55347,(,0,0,1
2:33.806,55370,N,0,0,0
2:33.831,55379,),0,0,1
2:33.850,55386,(,0,0,2
2:33.953,55423,t,0,0,0
2:34.050,55458,),0,0,2
2:34.094,55474,(,0,0,0
2:34.136,55489,p,0,0,0
2:34.183,55506,),0,0,0
2:34.278,55540,(,0,0,1
2:34.342,55563,N,0,0,0
2:34.367,55572,),0,0,1
2:34.400,55584,(,0,0,2
2:34.483,55614,t,0,0,0
2:34.578,55648,),0,0,2
2:34.608,55659,(,0,0,0
2:34.642,55671,p,0,0,0
2:34.694,55690,),0,0,0
2:34.775,55719,(,0,0,1
2:34.808,55731,N,0,0,0
2:34.858,55749,),0,0,1
2:34.883,55758,(,0,0,2
2:34.972,55790,t,0,0,0
2:35.061,55822,),0,0,2
2:35.097,55835,(,0,0,0
2:35.128,55846,p,0,0,0
2:35.175,55863,),0,0,0
2:35.261,55894,(,0,0,1
2:35.297,55907,N,0,0,0
2:35.347,55925,),0,0,1
2:35.375,55935,(,0,0,2
2:35.467,55968,t,0,0,0
2:35.558,56001,),0,0,2
2:35.594,56014,(,0,0,0
2:35.631,56027,p,0,0,0
2:35.681,56045,),0,0,0
2:35.767,56076,(,0,0,1
2:35.828,56098,N,0,0,0
2:35.853,56107,),0,0,1
2:35.881,56117,(,0,0,2
2:35.972,56150,t,0,0,0
2:36.069,56185,),0,0,2
2:36.111,56200,(,0,0,0
2:36.144,56212,p,0,0,0
2:36.197,56231,),0,0,0
2:36.294,56266,(,0,0,1
2:36.358,56289,N,0,0,0
2:36.383,56298,),0,0,1
2:36.417,56310,(,0,0,2
2:36.508,56343,t,0,0,0
2:36.603,56377,),0,0,2
2:36.639,56390,(,0,0,0
2:36.681,56405,p,0,0,0
2:36.739,56426,),0,0,0
2:36.789,56444,(,0,0,1
2:36.850,56466,N,0,0,0
2:36.903,56485,),0,0,1
2:36.933,56496,(,0,0,2
2:37.031,56531,t,0,0,0
2:37.122,56564,),0,0,2
2:37.158,56577,(,0,0,0
2:37.194,56590,p,0,0,0
2:37.228,56602,),0,0,0
2:37.344,56644,(,0,0,1
2:37.381,56657,N,0,0,0
2:37.436,56677,),0,0,1
2:37.492,56697,(,0,0,2
2:37.564,56723,t,0,0,0
2:37.661,56758,),0,0,2
2:37.714,56777,(,0,0,0
2:37.739,56786,p,0,0,0
2:37.792,56805,),0,0,0
2:37.878,56836,(,0,0,1
2:37.942,56859,N,0,0,0
2:37.967,56868,),0,0,1
2:38.003,56881,(,0,0,2
2:38.089,56912,t,0,0,0
2:38.181,56945,),0,0,2
2:38.244,56968,(,0,0,0
2:38.281,56981,p,0,0,0
2:38.317,56994,),0,0,0
2:38.428,57034,(,0,0,1
2:38.492,57057,N,0,0,0
2:38.519,57067,),0,0,1
2:38.542,57075,(,0,0,2
2:38.639,57110,t,0,0,0
2:38.731,57143,),0,0,2
2:38.783,57162,(,0,0,0
2:38.814,57173,p,0,0,0
2:38.867,57192,),0,0,0
2:38.958,57225,(,0,0,1
2:39.022,57248,N,0,0,0
2:39.047,57257,),0,0,1
2:39.094,57274,(,0,0,2
2:39.175,57303,t,0,0,0
2:39.267,57336,),0,0,2
2:39.342,57363,(,0,0,1
2:39.425,57393,N,0,0,0
2:39.508,57423,),0,0,1
2:39.592,57453,(,0,0,2
2:39.669,57481,t,0,0,0
2:39.725,57501,),0,0,2
2:39.858,57549,(,0,0,0
2:39.889,57560,p,0,0,0
2:39.942,57579,),0,0,0
2:40.025,57609,(,0,0,1
2:40.092,57633,N,0,0,0
2:40.117,57642,),0,0,1
2:40.181,57665,(,0,0,2
2:40.244,57688,t,0,0,5
2:40.353,57727,t,0,0,5
2:40.411,57748,),0,0,2
2:40.556,57800,(,0,0,1
2:40.614,57821,N,0,0,0
2:40.639,57830,),0,0,1
2:40.669,57841,(,0,0,2
2:40.753,57871,t,0,0,0
2:40.836,57901,),0,0,2
2:40.886,57919,(,0,0,0
2:40.914,57929,p,0,0,0
2:40.964,57947,),0,0,0
2:41.050,57978,(,0,0,1
2:41.086,57991,N,0,0,0
2:41.136,58009,),0,0,1
2:41.203,58033,(,0,0,2
2:41.256,58052,t,0,0,0
2:41.344,58084,),0,0,2
2:41.375,58095,(,0,0,0
2:41.408,58107,p,0,0,0
2:41.461,58126,),0,0,0
2:41.547,58157,(,0,0,1
2:41.581,58169,N,0,0,0
2:41.631,58187,),0,0,1
2:41.667,58200,(,0,0,2
2:41.744,58228,t,0,0,5
2:41.844,58264,t,0,0,5
2:41.894,58282,),0,0,2
2:42.031,58331,(,0,0,1
2:42.089,58352,N,0,0,0
2:42.111,58360,),0,0,1
2:42.147,58373,(,0,0,2
2:42.233,58404,t,0,0,0
2:42.319,58435,),0,0,2
2:42.422,58472,(,0,0,1
2:42.506,58502,N,0,0,0
2:42.544,58516,),0,0,1
2:42.597,58535,t,0,0,2
2:42.714,58577,),0,0,2
2:42.883,58638,(,0,0,0
2:42.917,58650,p,0,0,0
2:42.958,58665,),0,0,0
2:43.044,58696,(,0,0,1
2:43.111,58720,N,0,0,0
2:43.139,58730,),0,0,1
2:43.158,58737,(,0,0,2
2:43.264,58775,t,0,0,5
2:43.372,58814,t,0,0,5
2:43.425,58833,),0,0,2
2:43.578,58888,(,0,0,1
2:43.639,58910,N,0,0,0
2:43.664,58919,),0,0,1
2:43.692,58929,(,0,0,2
2:43.792,58965,t,0,0,0
2:43.889,59000,),0,0,2
2:43.922,59012,(,0,0,1
2:43.992,59037,N,0,0,0
2:44.158,59097,),0,0,1
2:44.211,59116,(,0,0,2
2:44.325,59157,t,0,0,1
2:44.386,59179,),0,0,2
2:44.494,59218,(,0,0,0
2:44.542,59235,p,0,0,0
2:44.581,59249,),0,0,0
2:44.664,59279,(,0,0,1
2:44.761,59314,N,0,0,0
2:44.789,59324,),0,0,1
2:44.811,59332,(,0,0,2
2:44.928,59374,t,0,0,0
2:45.028,59410,),0,0,2
2:45.067,59424,(,0,0,0
2:45.097,59435,p,0,0,0
2:45.139,59450,),0,0,0
2:45.239,59486,(,0,0,1
2:45.303,59509,N,0,0,0
2:45.331,59519,),0,0,1
2:45.361,59530,(,0,0,2
2:45.461,59566,t,0,0,0
2:45.561,59602,),0,0,2
2:45.603,59617,(,0,0,0
2:45.642,59631,p,0,0,0
2:45.689,59648,),0,0,0
2:45.794,59686,(,0,0,1
2:45.831,59699,N,0,0,0
2:45.881,59717,),0,0,1
2:45.908,59727,(,0,0,2
2:46.000,59760,t,0,0,0
2:46.094,59794,),0,0,2
2:46.122,59804,(,0,0,0
2:46.158,59817,p,0,0,0
2:46.203,59833,),0,0,0
2:46.292,59865,(,0,0,1
2:46.350,59886,N,0,0,0
2:46.372,59894,),0,0,1
2:46.408,59907,(,0,0,2
2:46.492,59937,t,0,0,0
2:46.581,59969,),0,0,2
2:46.619,59983,(,0,0,0
2:46.656,59996,p,0,0,0
2:46.700,60012,),0,0,0
2:46.794,60046,(,0,0,1
2:46.853,60067,N,0,0,0
2:46.878,60076,),0,0,1
2:46.908,60087,(,0,0,2
2:46.994,60118,t,0,0,0
2:47.092,60153,),0,0,2
2:47.119,60163,(,0,0,1
2:47.211,60196,N,0,0,0
2:47.289,60224,),0,0,1
2:47.325,60237,(,0,0,2
2:47.439,60278,t,0,0,0
2:47.478,60292,),0,0,2
2:47.642,60351,(,0,0,0
2:47.664,60359,p,0,0,0
2:47.714,60377,),0,0,0
2:47.781,60401,(,0,0,1
2:47.858,60429,N,0,0,0
2:47.883,60438,),0,0,1
2:47.931,60455,(,0,0,2
2:47.994,60478,t,0,0,0
2:48.086,60511,),0,0,2
2:48.117,60522,(,0,0,0
2:48.147,60533,p,0,0,0
2:48.175,60543,),0,0,0
2:48.283,60582,(,0,0,1
2:48.317,60594,N,0,0,0
2:48.367,60612,),0,0,1
2:48.397,60623,(,0,0,2
2:48.486,60655,t,0,0,0
2:48.586,60691,),0,0,2
2:48.606,60698,(,0,0,0
2:48.653,60715,p,0,0,0
2:48.711,60736,),0,0,0
2:48.792,60765,(,0,0,1
2:48.831,60779,N,0,0,0
2:48.881,60797,),0,0,1
2:48.919,60811,(,0,0,2
2:49.006,60842,t,0,0,0
2:49.094,60874,),0,0,2
2:49.133,60888,(,0,0,0
2:49.172,60902,p,0,0,0
2:49.225,60921,),0,0,0
2:49.322,60956,(,0,0,1
2:49.386,60979,N,0,0,0
2:49.411,60988,),0,0,1
2:49.450,61002,(,0,0,2
2:49.547,61037,t,0,0,0
2:49.644,61072,),0,0,2
2:49.708,61095,(,0,0,0
2:49.739,61106,p,0,0,0
2:49.783,61122,),0,0,0
2:49.878,61156,(,0,0,1
2:49.939,61178,N,0,0,0
2:49.967,61188,),0,0,1
2:49.992,61197,(,0,0,2
2:50.094,61234,t,0,0,0
2:50.186,61267,),0,0,2
2:50.228,61282,(,0,0,0
2:50.258,61293,p,0,0,0
2:50.294,61306,),0,0,0
2:50.403,61345,(,0,0,1
2:50.489,61376,N,0,0,0
2:50.514,61385,),0,0,1
2:50.550,61398,(,0,0,2
2:50.642,61431,t,0,0,0
2:50.736,61465,),0,0,2
2:50.808,61491,(,0,0,0
2:50.836,61501,p,0,0,0
2:50.894,61522,),0,0,0
2:50.978,61552,(,0,0,1
2:51.042,61575,N,0,0,0
2:51.067,61584,),0,0,1
2:51.094,61594,(,0,0,2
2:51.186,61627,t,0,0,0
2:51.297,61667,),0,0,2
2:51.325,61677,(,0,0,0
2:51.361,61690,p,0,0,0
2:51.403,61705,),0,0,0
2:51.506,61742,(,0,0,1
2:51.567,61764,N,0,0,0
2:51.592,61773,),0,0,1
2:51.639,61790,(,0,0,2
2:51.719,61819,t,0,0,0
2:51.806,61850,),0,0,2
2:51.850,61866,(,0,0,0
2:51.892,61881,p,0,0,0
2:51.922,61892,),0,0,0
2:52.000,61920,(,0,0,1
2:52.097,61955,N,0,0,0
2:52.119,61963,),0,0,1
2:52.153,61975,(,0,0,2
2:52.242,62007,t,0,0,0
2:52.339,62042,),0,0,2
2:52.378,62056,(,0,0,0
2:52.411,62068,p,0,0,0
2:52.478,62092,),0,0,0
2:52.558,62121,(,0,0,1
2:52.622,62144,N,0,0,0
2:52.644,62152,),0,0,1
2:52.694,62170,(,0,0,2
2:52.769,62197,t,0,0,0
2:52.853,62227,),0,0,2
2:52.894,62242,(,0,0,0
2:52.944,62260,p,0,0,0
2:52.989,62276,),0,0,0
2:53.003,62281,(,0,0,1
2:53.094,62314,N,0,0,0
2:53.283,62382,),0,0,1
2:53.342,62403,(,0,0,2
2:53.372,62414,t,0,0,1
2:53.444,62440,),0,0,2
2:53.558,62481,(,0,0,1
2:53.647,62513,N,0,0,0
2:53.669,62521,),0,0,1
2:53.711,62536,(,0,0,2
2:53.794,62566,t,0,0,0
2:53.892,62601,),0,0,2
2:53.900,62604,(,0,0,0
2:53.956,62624,p,0,0,0
2:53.997,62639,),0,0,0
2:54.086,62671,(,0,0,1
2:54.150,62694,N,0,0,0
2:54.169,62701,),0,0,1
2:54.228,62722,(,0,0,2
2:54.289,62744,t,0,0,5
2:54.394,62782,t,0,0,5
2:54.447,62801,),0,0,2
2:54.575,62847,(,0,0,1
2:54.653,62875,N,0,0,0
2:54.678,62884,),0,0,1
2:54.714,62897,(,0,0,2
2:54.797,62927,t,0,0,0
2:54.906,62966,),0,0,2
2:54.964,62987,(,0,0,0
2:54.983,62994,p,0,0,0
2:55.014,63005,),0,0,0
2:55.125,63045,(,0,0,1
2:55.183,63066,N,0,0,0
2:55.203,63073,),0,0,1
2:55.236,63085,(,0,0,2
2:55.331,63119,t,0,0,0
2:55.419,63151,),0,0,2
2:55.469,63169,(,0,0,0
2:55.522,63188,p,0,0,0
2:55.556,63200,),0,0,0
2:55.672,63242,(,0,0,1
2:55.744,63268,N,0,0,0
2:55.769,63277,),0,0,1
2:55.806,63290,(,0,0,2
2:55.894,63322,t,0,0,0
2:56.003,63361,),0,0,2
2:56.028,63370,(,0,0,0
2:56.067,63384,p,0,0,0
2:56.106,63398,),0,0,0
2:56.200,63432,(,0,0,1
2:56.272,63458,N,0,0,0
2:56.297,63467,),0,0,1
2:56.331,63479,(,0,0,2
2:56.419,63511,t,0,0,0
2:56.514,63545,),0,0,2
2:56.572,63566,(,0,0,0
2:56.600,63576,p,0,0,0
2:56.653,63595,),0,0,0
2:56.761,63634,(,0,0,1
2:56.825,63657,N,0,0,0
2:56.850,63666,),0,0,1
2:56.894,63682,(,0,0,2
2:56.989,63716,t,0,0,0
2:57.083,63750,),0,0,2
2:57.133,63768,(,0,0,0
2:57.167,63780,p,0,0,0
2:57.217,63798,),0,0,0
2:57.322,63836,(,0,0,1
2:57.389,63860,N,0,0,0
2:57.417,63870,),0,0,1
2:57.456,63884,(,0,0,2
2:57.547,63917,t,0,0,0
2:57.647,63953,),0,0,2
2:57.711,63976,(,0,0,0
2:57.744,63988,p,0,0,0
2:57.778,64000,),0,0,0
2:57.903,64045,(,0,0,1
2:57.942,64059,N,0,0,0
2:57.997,64079,),0,0,1
2:58.028,64090,(,0,0,2
2:58.114,64121,t,0,0,0
2:58.203,64153,),0,0,2
2:58.239,64166,(,0,0,0
2:58.269,64177,p,0,0,0
2:58.325,64197,),0,0,0
2:58.411,64228,(,0,0,1
2:58.472,64250,N,0,0,0
2:58.494,64258,),0,0,1
2:58.522,64268,(,0,0,2
2:58.614,64301,t,0,0,5
2:58.711,64336,t,0,0,5
2:58.772,64358,),0,0,2
2:58.786,64363,(,0,0,0
2:58.844,64384,p,0,0,0
2:58.869,64393,),0,0,0
2:58.914,64409,(,0,0,1
2:58.975,64431,N,0,0,0
2:58.997,64439,),0,0,1
2:59.317,64554,(,0,0,0
2:59.369,64573,p,0,0,0
2:59.397,64583,),0,0,0
2:59.567,64644,(,0,0,1
2:59.642,64671,N,0,0,0
2:59.703,64693,(,0,0,0
2:59.725,64701,),0,0,1
2:59.772,64718,p,0,0,0
2:59.794,64726,),0,0,0
2:59.917,64770,(,0,0,1
2:59.997,64799,N,0,0,0
3:00.089,64832,),0,0,1
3:00.094,64834,(,0,0,2
3:00.153,64855,t,0,0,0
3:00.258,64893,),0,0,2
3:00.442,64959,(,0,0,1
3:00.508,64983,N,0,0,0
3:00.536,64993,),0,0,1
3:00.597,65015,(,0,0,2
3:00.636,65029,t,0,0,5
3:00.764,65075,t,0,0,5
3:00.822,65096,),0,0,2
3:00.981,65153,(,0,0,1
3:01.042,65175,N,0,0,0
3:01.069,65185,),0,0,1
3:01.119,65203,(,0,0,0
3:01.206,65234,p,0,0,0
3:01.275,65259,),0,0,0
3:01.300,65268,(,0,0,1
3:01.361,65290,N,0,0,0
3:01.467,65328,),0,0,1
3:01.472,65330,(,0,0,2
3:01.606,65378,t,0,0,0
3:01.633,65388,),0,0,2
3:01.894,65482,(,0,0,0
3:01.942,65499,p,0,0,0
3:02.006,65522,),0,0,0
3:02.064,65543,(,0,0,1
3:02.158,65577,N,0,0,0
3:02.192,65589,),0,0,1
3:02.264,65615,(,0,0,2
3:02.308,65631,t,0,0,0
3:02.436,65677,),0,0,2
3:02.472,65690,(,0,0,0
3:02.503,65701,p,0,0,0
3:02.544,65716,),0,0,0
3:02.639,65750,(,0,0,1
3:02.697,65771,N,0,0,0
3:02.722,65780,),0,0,1
3:02.747,65789,(,0,0,2
3:02.853,65827,t,0,0,0
3:02.947,65861,),0,0,2
3:02.972,65870,(,0,0,0
3:03.036,65893,p,0,0,0
3:03.100,65916,),0,0,0
3:03.164,65939,(,0,0,1
3:03.253,65971,N,0,0,0
3:03.281,65981,),0,0,1
3:03.342,66003,(,0,0,2
3:03.406,66026,t,0,0,0
3:03.497,66059,),0,0,2
3:03.544,66076,(,0,0,0
3:03.578,66088,p,0,0,0
3:03.633,66108,),0,0,0
3:03.722,66140,(,0,0,1
3:03.792,66165,N,0,0,0
3:03.819,66175,),0,0,1
3:03.853,66187,(,0,0,2
3:03.944,66220,t,0,0,0
3:04.039,66254,),0,0,2
3:04.086,66271,(,0,0,0
3:04.125,66285,p,0,0,0
3:04.175,66303,),0,0,0
3:04.261,66334,(,0,0,1
3:04.322,66356,N,0,0,0
3:04.347,66365,),0,0,1
3:04.378,66376,(,0,0,2
3:04.461,66406,t,0,0,0
3:04.547,66437,),0,0,2
3:04.592,66453,(,0,0,0
3:04.619,66463,p,0,0,0
3:04.672,66482,),0,0,0
3:04.756,66512,(,0,0,1
3:04.789,66524,N,0,0,0
3:04.842,66543,),0,0,1
3:04.869,66553,(,0,0,2
3:04.961,66586,t,0,0,0
3:05.050,66618,),0,0,2
3:05.075,66627,(,0,0,0
3:05.114,66641,p,0,0,0
3:05.169,66661,),0,0,0
3:05.228,66682,(,0,0,1
3:05.283,66702,N,0,0,0
3:05.331,66719,),0,0,1
3:05.361,66730,(,0,0,2
3:05.444,66760,t,0,0,0
3:05.536,66793,),0,0,2
3:05.578,66808,(,0,0,0
3:05.606,66818,p,0,0,0
3:05.650,66834,),0,0,0
3:05.739,66866,(,0,0,1
3:05.775,66879,N,0,0,0
3:05.828,66898,),0,0,1
3:05.856,66908,(,0,0,2
3:05.944,66940,t,0,0,5
3:06.056,66980,t,0,0,5
3:06.108,66999,),0,0,2
3:06.119,67003,(,0,0,0
3:06.181,67025,p,0,0,0
3:06.219,67039,),0,0,0
3:06.244,67048,(,0,0,1
3:06.308,67071,N,0,0,0
3:06.333,67080,),0,0,1
3:06.356,67088,(,0,0,2
3:06.447,67121,t,0,0,0
3:06.542,67155,),0,0,2
3:06.578,67168,(,0,0,0
3:06.608,67179,p,0,0,0
3:06.653,67195,),0,0,0
3:06.750,67230,(,0,0,1
3:06.808,67251,N,0,0,0
3:06.833,67260,),0,0,1
3:06.864,67271,(,0,0,2
3:06.956,67304,t,0,0,0
3:07.058,67341,),0,0,2
3:07.125,67365,(,0,0,0
3:07.153,67375,p,0,0,0
3:07.183,67386,),0,0,0
3:07.289,67424,(,0,0,1
3:07.350,67446,N,0,0,0
3:07.378,67456,),0,0,1
3:07.456,67484,(,0,0,2
3:07.492,67497,t,0,0,0
3:07.586,67531,),0,0,2
3:07.611,67540,(,0,0,0
3:07.631,67547,p,0,0,0
3:07.656,67556,),0,0,0
3:07.733,67584,(,0,0,1
3:07.844,67624,N,0,0,0
3:07.919,67651,),0,0,1
3:07.944,67660,(,0,0,2
3:08.014,67685,t,0,0,0
3:08.133,67728,),0,0,2
3:08.158,67737,(,0,0,0
3:08.239,67766,p,0,0,0
3:08.286,67783,),0,0,0
3:08.317,67794,(,0,0,1
3:08.419,67831,N,0,0,0
3:08.461,67846,),0,0,1
3:08.494,67858,(,0,0,2
3:08.578,67888,t,0,0,0
3:08.672,67922,),0,0,2
3:08.719,67939,(,0,0,0
3:08.742,67947,p,0,0,0
3:08.764,67955,),0,0,0
3:08.886,67999,(,0,0,1
3:09.006,68042,N,0,0,0
3:09.156,68096,),0,0,1
3:09.211,68116,(,0,0,2
3:09.272,68138,t,0,0,1
3:09.317,68154,),0,0,2
3:09.347,68165,(,0,0,0
3:09.411,68188,p,0,0,0
3:09.483,68214,),0,0,0
3:09.525,68229,(,0,0,1
3:09.594,68254,N,0,0,0
3:09.625,68265,),0,0,1
3:09.750,68310,(,0,0,2
3:09.767,68316,t,0,0,5
3:09.872,68354,t,0,0,5
3:09.897,68363,),0,0,2
3:09.922,68372,(,0,0,0
3:09.942,68379,p,0,0,0
3:09.961,68386,),0,0,0
3:09.992,68397,(,0,0,1
3:10.133,68448,N,0,0,0
3:10.217,68478,),0,0,1
3:10.278,68500,(,0,0,2
3:10.294,68506,t,0,0,0
3:10.364,68531,),0,0,2
3:10.428,68554,(,0,0,0
3:10.447,68561,p,0,0,0
3:10.475,68571,),0,0,0
3:10.503,68581,(,0,0,1
3:10.639,68630,N,0,0,0
3:10.772,68678,),0,0,1
3:10.814,68693,(,0,0,2
3:10.872,68714,t,0,0,1
3:10.917,68730,),0,0,2
3:10.964,68747,(,0,0,0
3:10.989,68756,p,0,0,0
3:11.006,68762,),0,0,0
3:11.039,68774,(,0,0,1
3:11.106,68798,N,0,0,0
3:11.197,68831,),0,0,1
3:11.214,68837,(,0,0,2
3:11.281,68861,t,0,0,0
3:11.344,68884,),0,0,2
3:11.375,68895,(,0,0,0
3:11.428,68914,p,0,0,0
3:11.489,68936,),0,0,0
3:11.514,68945,(,0,0,1
3:11.581,68969,N,0,0,0
3:11.675,69003,),0,0,1
3:11.722,69020,(,0,0,2
3:11.739,69026,t,0,0,5
3:11.856,69068,t,0,0,5
3:11.886,69079,),0,0,2
3:12.042,69135,(,0,0,1
3:12.106,69158,N,0,0,0
3:12.147,69173,),0,0,1
3:12.178,69184,(,0,0,2
3:12.242,69207,t,0,0,0
3:12.325,69237,),0,0,2
3:12.350,69246,(,0,0,0
3:12.389,69260,p,0,0,0
3:12.444,69280,),0,0,0
3:12.492,69297,(,0,0,1
3:12.608,69339,N,0,0,0
3:12.636,69349,),0,0,1
3:12.689,69368,(,0,0,2
3:12.747,69389,t,0,0,0
3:12.850,69426,),0,0,2
3:12.861,69430,(,0,0,0
3:12.883,69438,p,0,0,0
3:12.914,69449,),0,0,0
3:13.056,69500,(,0,0,1
3:13.142,69531,N,0,0,0
3:13.167,69540,),0,0,1
3:13.250,69570,(,0,0,2
3:13.294,69586,t,0,0,0
3:13.389,69620,),0,0,2
3:13.433,69636,(,0,0,0
3:13.467,69648,p,0,0,0
3:13.517,69666,),0,0,0
3:13.586,69691,(,0,0,1
3:13.644,69712,N,0,0,0
3:13.703,69733,),0,0,1
3:13.742,69747,(,0,0,2
3:13.831,69779,t,0,0,0
3:13.933,69816,),0,0,2
3:13.981,69833,(,0,0,0
3:14.014,69845,p,0,0,0
3:14.058,69861,),0,0,0
3:14.158,69897,(,0,0,1
3:14.239,69926,N,0,0,0
3:14.264,69935,),0,0,1
3:14.308,69951,(,0,0,2
3:14.397,69983,t,0,0,0
3:14.483,70014,),0,0,2
3:14.528,70030,(,0,0,0
3:14.572,70046,p,0,0,0
3:14.631,70067,),0,0,0
3:14.717,70098,(,0,0,1
3:14.783,70122,N,0,0,0
3:14.808,70131,),0,0,1
3:14.839,70142,(,0,0,2
3:14.939,70178,t,0,0,0
3:15.044,70216,),0,0,2
3:15.103,70237,(,0,0,0
3:15.131,70247,p,0,0,0
3:15.186,70267,),0,0,0
3:15.233,70284,(,0,0,1
3:15.347,70325,N,0,0,0
3:15.378,70336,),0,0,1
3:15.433,70356,(,0,0,2
3:15.483,70374,t,0,0,0
3:15.569,70405,),0,0,2
3:15.689,70448,(,0,0,0
3:15.731,70463,p,0,0,0
3:15.786,70483,),0,0,0
3:15.825,70497,(,0,0,1
3:15.872,70514,N,0,0,0
3:15.972,70550,),0,0,1
3:16.078,70588,(,0,0,0
3:16.103,70597,p,0,0,0
3:16.122,70604,),0,0,0
3:16.286,70663,(,0,0,1
3:16.392,70701,N,0,0,0
3:16.533,70752,),0,0,1
3:16.583,70770,(,0,0,2
3:16.617,70782,t,0,0,1
3:16.656,70796,),0,0,2
3:16.706,70814,(,0,0,0
3:16.758,70833,p,0,0,0
3:16.786,70843,),0,0,0
3:16.819,70855,(,0,0,1
3:16.856,70868,N,0,0,0
3:16.906,70886,),0,0,1
3:16.961,70906,(,0,0,2
3:17.031,70931,t,0,0,5
3:17.147,70973,t,0,0,5
3:17.181,70985,),0,0,2
3:17.194,70990,(,0,0,0
3:17.247,71009,p,0,0,0
3:17.278,71020,),0,0,0
3:17.333,71040,(,0,0,1
3:17.392,71061,N,0,0,0
3:17.411,71068,),0,0,1
3:17.433,71076,(,0,0,2
3:17.531,71111,t,0,0,5
3:17.644,71152,t,0,0,5
3:17.689,71168,),0,0,2
3:17.703,71173,(,0,0,0
3:17.753,71191,p,0,0,0
3:17.792,71205,),0,0,0
3:17.819,71215,(,0,0,1
3:17.892,71241,N,0,0,0
3:17.917,71250,),0,0,1
3:17.958,71265,(,0,0,2
3:18.036,71293,t,0,0,0
3:18.119,71323,),0,0,2
3:18.164,71339,(,0,0,0
3:18.194,71350,p,0,0,0
3:18.272,71378,),0,0,0
3:18.344,71404,(,0,0,1
3:18.419,71431,N,0,0,0
3:18.447,71441,),0,0,1
3:18.511,71464,(,0,0,0
3:18.567,71484,p,0,0,0
3:18.628,71506,),0,0,0
3:18.656,71516,(,0,0,1
3:18.736,71545,N,0,0,0
3:18.847,71585,),0,0,1
3:19.025,71649,(,0,0,1
3:19.114,71681,N,0,0,0
3:19.231,71723,),0,0,1
3:19.286,71743,(,0,0,2
3:19.339,71762,t,0,0,0
3:19.400,71784,),0,0,2
3:19.769,71917,(,0,0,0
3:19.797,71927,p,0,0,0
3:19.842,71943,),0,0,0
3:19.900,71964,(,0,0,1
3:19.969,71989,N,0,0,0
3:20.031,72011,),0,0,1
3:20.122,72044,(,0,0,2
3:20.172,72062,t,0,0,0
3:20.275,72099,),0,0,2
3:20.319,72115,(,0,0,0
3:20.339,72122,p,0,0,0
3:20.361,72130,),0,0,0
3:20.497,72179,(,0,0,1
3:20.575,72207,N,0,0,0
3:20.597,72215,),0,0,1
3:20.619,72223,(,0,0,2
3:20.717,72258,t,0,0,0
3:20.811,72292,),0,0,2
3:20.872,72314,(,0,0,0
3:20.900,72324,p,0,0,0
3:20.950,72342,),0,0,0
3:21.042,72375,(,0,0,1
3:21.081,72389,N,0,0,0
3:21.139,72410,),0,0,1
3:21.186,72427,(,0,0,2
3:21.275,72459,t,0,0,0
3:21.364,72491,),0,0,2
3:21.406,72506,(,0,0,0
3:21.453,72523,p,0,0,0
3:21.508,72543,),0,0,0
3:21.569,72565,(,0,0,1
3:21.664,72599,N,0,0,0
3:21.686,72607,),0,0,1
3:21.731,72623,(,0,0,2
3:21.811,72652,t,0,0,0
3:21.911,72688,),0,0,2
3:21.961,72706,(,0,0,0
3:21.992,72717,p,0,0,0
3:22.042,72735,),0,0,0
3:22.139,72770,(,0,0,1
3:22.206,72794,N,0,0,0
3:22.231,72803,),0,0,1
3:22.297,72827,(,0,0,2
3:22.353,72847,t,0,0,0
3:22.442,72879,),0,0,2
3:22.497,72899,(,0,0,1
3:22.583,72930,N,0,0,0
3:22.658,72957,),0,0,1
3:22.703,72973,(,0,0,2
3:22.794,73006,t,0,0,0
3:22.844,73024,),0,0,2
3:22.975,73071,(,0,0,0
3:23.006,73082,p,0,0,0
3:23.056,73100,),0,0,0
3:23.136,73129,(,0,0,1
3:23.175,73143,N,0,0,0
3:23.228,73162,),0,0,1
3:23.264,73175,(,0,0,2
3:23.350,73206,t,0,0,5
3:23.456,73244,t,0,0,5
3:23.497,73259,),0,0,2
3:23.508,73263,(,0,0,0
3:23.556,73280,p,0,0,0
3:23.575,73287,),0,0,0
3:23.628,73306,(,0,0,1
3:23.689,73328,N,0,0,0
3:23.714,73337,),0,0,1
3:23.750,73350,(,0,0,2
3:23.825,73377,t,0,0,0
3:23.919,73411,),0,0,2
3:23.944,73420,(,0,0,0
3:23.986,73435,p,0,0,0
3:24.031,73451,),0,0,0
3:24.108,73479,(,0,0,1
3:24.181,73505,N,0,0,0
3:24.206,73514,),0,0,1
3:24.231,73523,(,0,0,2
3:24.322,73556,t,0,0,0
3:24.414,73589,),0,0,2
3:24.447,73601,(,0,0,0
3:24.481,73613,p,0,0,0
3:24.517,73626,),0,0,0
3:24.619,73663,(,0,0,1
3:24.694,73690,N,0,0,0
3:24.725,73701,),0,0,1
3:24.742,73707,(,0,0,2
3:24.833,73740,t,0,0,0
3:24.928,73774,),0,0,2
3:24.975,73791,(,0,0,0
3:25.006,73802,p,0,0,0
3:25.067,73824,),0,0,0
3:25.125,73845,(,0,0,1
3:25.228,73882,N,0,0,0
3:25.258,73893,),0,0,1
3:25.286,73903,(,0,0,2
3:25.383,73938,t,0,0,0
3:25.478,73972,),0,0,2
3:25.564,74003,(,0,0,0
3:25.625,74025,p,0,0,0
3:25.661,74038,),0,0,0
3:25.694,74050,(,0,0,1
3:25.775,74079,N,0,0,0
3:25.822,74096,),0,0,1
3:25.861,74110,(,0,0,2
3:25.919,74131,t,0,0,0
3:26.011,74164,),0,0,2
3:26.044,74176,(,0,0,0
3:26.081,74189,p,0,0,0
3:26.128,74206,),0,0,0
3:26.203,74233,(,0,0,1
3:26.311,74272,N,0,0,0
3:26.361,74290,),0,0,1
3:26.375,74295,(,0,0,2
3:26.469,74329,t,0,0,0
3:26.572,74366,),0,0,2
3:26.603,74377,(,0,0,0
3:26.644,74392,p,0,0,0
3:26.706,74414,),0,0,0
3:26.767,74436,(,0,0,1
3:26.869,74473,N,0,0,0
3:26.900,74484,),0,0,1
3:26.914,74489,(,0,0,2
3:27.011,74524,t,0,0,0
3:27.103,74557,),0,0,2
3:27.139,74570,(,0,0,0
3:27.172,74582,p,0,0,0
3:27.222,74600,),0,0,0
3:27.308,74631,(,0,0,1
3:27.392,74661,N,0,0,0
3:27.428,74674,),0,0,1
3:27.458,74685,(,0,0,2
3:27.547,74717,t,0,0,0
3:27.642,74751,),0,0,2
3:27.686,74767,(,0,0,0
3:27.719,74779,p,0,0,0
3:27.756,74792,),0,0,0
3:27.850,74826,(,0,0,1
3:27.925,74853,N,0,0,0
3:28.056,74900,),0,0,1
3:28.067,74904,t,0,0,3
3:28.156,74936,),0,0,2
3:28.172,74942,(,0,0,0
3:28.228,74962,p,0,0,0
3:28.286,74983,),0,0,0
3:28.372,75014,(,0,0,1
3:28.442,75039,N,0,0,0
3:28.481,75053,),0,0,1
3:28.483,75054,(,0,0,2
3:28.581,75089,t,0,0,0
3:28.669,75121,),0,0,2
3:28.719,75139,(,0,0,0
3:28.750,75150,p,0,0,0
3:28.806,75170,),0,0,0
3:28.869,75193,(,0,0,1
3:28.942,75219,N,0,0,0
3:29.053,75259,),0,0,1
3:29.094,75274,(,0,0,2
3:29.197,75311,t,0,0,1
3:29.250,75330,),0,0,2
3:29.356,75368,(,0,0,1
3:29.453,75403,N,0,0,0
3:29.578,75448,),0,0,1
3:29.603,75457,(,0,0,2
3:29.686,75487,t,0,0,1
3:29.750,75510,),0,0,2
3:29.833,75540,(,0,0,1
3:29.947,75581,N,0,0,0
3:30.078,75628,),0,0,1
3:30.100,75636,(,0,0,2
3:30.208,75675,t,0,0,1
3:30.258,75693,),0,0,2
3:30.408,75747,(,0,0,1
3:30.478,75772,N,0,0,0
3:30.522,75788,),0,0,1
3:30.528,75790,(,0,0,2
3:30.617,75822,t,0,0,5
3:30.733,75864,t,0,0,5
3:30.772,75878,),0,0,2
3:30.889,75920,(,0,0,1
3:30.983,75954,N,0,0,0
3:31.036,75973,),0,0,1
3:31.078,75988,(,0,0,2
3:31.133,76008,t,0,0,0
3:31.208,76035,),0,0,2
3:31.253,76051,(,0,0,0
3:31.281,76061,p,0,0,0
3:31.306,76070,),0,0,0
3:31.458,76125,(,0,0,1
3:31.525,76149,N,0,0,0
3:31.553,76159,),0,0,1
3:31.569,76165,(,0,0,2
3:31.672,76202,t,0,0,0
3:31.764,76235,),0,0,2
3:31.800,76248,(,0,0,0
3:31.836,76261,p,0,0,0
3:31.875,76275,),0,0,0
3:31.944,76300,(,0,0,1
3:32.047,76337,N,0,0,0
3:32.100,76356,),0,0,1
3:32.122,76364,(,0,0,2
3:32.192,76389,t,0,0,0
3:32.289,76424,),0,0,2
3:32.342,76443,(,0,0,0
3:32.375,76455,p,0,0,0
3:32.428,76474,),0,0,0
3:32.492,76497,(,0,0,1
3:32.589,76532,N,0,0,0
3:32.617,76542,),0,0,1
3:32.647,76553,(,0,0,2
3:32.742,76587,t,0,0,5
3:32.842,76623,t,0,0,5
3:32.903,76645,),0,0,2
3:32.919,76651,(,0,0,0
3:32.953,76663,p,0,0,0
3:32.975,76671,),0,0,0
3:33.044,76696,(,0,0,1
3:33.144,76732,N,0,0,0
3:33.164,76739,),0,0,1
3:33.183,76746,(,0,0,2
3:33.297,76787,t,0,0,5
3:33.406,76826,t,0,0,5
3:33.458,76845,),0,0,2
3:33.578,76888,(,0,0,1
3:33.703,76933,N,0,0,0
3:33.725,76941,),0,0,1
3:33.758,76953,(,0,0,2
3:33.847,76985,t,0,0,5
3:33.956,77024,t,0,0,5
3:33.983,77034,),0,0,2
3:34.156,77096,(,0,0,1
3:34.217,77118,N,0,0,0
3:34.242,77127,),0,0,1
3:34.328,77158,(,0,0,2
3:34.358,77169,t,0,0,5
3:34.464,77207,t,0,0,5
3:34.519,77227,),0,0,2
3:34.667,77280,(,0,0,1
3:34.736,77305,N,0,0,0
3:34.761,77314,),0,0,1
3:34.778,77320,(,0,0,2
3:34.872,77354,t,0,0,0
3:34.958,77385,),0,0,2
3:34.997,77399,(,0,0,0
3:35.042,77415,p,0,0,0
3:35.103,77437,),0,0,0
3:35.169,77461,(,0,0,1
3:35.225,77481,N,0,0,0
3:35.250,77490,),0,0,1
3:35.308,77511,(,0,0,2
3:35.358,77529,t,0,0,5
3:35.469,77569,t,0,0,5
3:35.519,77587,),0,0,2
3:35.658,77637,(,0,0,1
3:35.719,77659,N,0,0,0
3:35.744,77668,),0,0,1
3:35.778,77680,(,0,0,2
3:35.847,77705,t,0,0,0
3:35.942,77739,),0,0,2
3:35.978,77752,(,0,0,0
3:36.008,77763,p,0,0,0
3:36.061,77782,),0,0,0
3:36.111,77800,(,0,0,1
3:36.206,77834,N,0,0,0
3:36.228,77842,),0,0,1
3:36.267,77856,(,0,0,2
3:36.350,77886,t,0,0,0
3:36.439,77918,),0,0,2
3:36.483,77934,(,0,0,0
3:36.517,77946,p,0,0,0
3:36.575,77967,),0,0,0
3:36.656,77996,(,0,0,1
3:36.719,78019,N,0,0,0
3:36.742,78027,),0,0,1
3:36.803,78049,(,0,0,2
3:36.850,78066,t,0,0,0
3:36.947,78101,),0,0,2
3:36.983,78114,(,0,0,0
3:37.022,78128,p,0,0,0
3:37.061,78142,),0,0,0
3:37.167,78180,(,0,0,1
3:37.231,78203,N,0,0,0
3:37.256,78212,),0,0,1
3:37.297,78227,(,0,0,2
3:37.383,78258,t,0,0,0
3:37.472,78290,),0,0,2
3:37.514,78305,(,0,0,0
3:37.561,78322,p,0,0,0
3:37.631,78347,),0,0,0
3:37.689,78368,(,0,0,1
3:37.781,78401,N,0,0,0
3:37.803,78409,),0,0,1
3:37.831,78419,(,0,0,2
3:37.925,78453,t,0,0,0
3:38.019,78487,),0,0,2
3:38.072,78506,(,0,0,0
3:38.111,78520,p,0,0,0
3:38.156,78536,),0,0,0
3:38.244,78568,(,0,0,1
3:38.333,78600,N,0,0,0
3:38.361,78610,),0,0,1
3:38.403,78625,(,0,0,2
3:38.489,78656,t,0,0,0
3:38.583,78690,),0,0,2
3:38.650,78714,(,0,0,0
3:38.675,78723,p,0,0,0
3:38.728,78742,),0,0,0
3:38.811,78772,(,0,0,1
3:38.889,78800,N,0,0,0
3:38.911,78808,),0,0,1
3:38.961,78826,(,0,0,2
3:39.039,78854,t,0,0,0
3:39.133,78888,),0,0,2
3:39.194,78910,(,0,0,0
3:39.222,78920,p,0,0,0
3:39.261,78934,),0,0,0
3:39.358,78969,(,0,0,1
3:39.444,79000,N,0,0,0
3:39.467,79008,),0,0,1
3:39.494,79018,(,0,0,2
3:39.597,79055,t,0,0,0
3:39.689,79088,),0,0,2
3:39.750,79110,(,0,0,0
3:39.781,79121,p,0,0,0
3:39.825,79137,),0,0,0
3:39.917,79170,(,0,0,1
3:39.981,79193,N,0,0,0
3:40.003,79201,),0,0,1
3:40.022,79208,(,0,0,2
3:40.117,79242,t,0,0,5
3:40.228,79282,t,0,0,5
3:40.272,79298,),0,0,2
3:40.283,79302,(,0,0,0
3:40.339,79322,p,0,0,0
3:40.383,79338,),0,0,0
3:40.417,79350,(,0,0,1
3:40.478,79372,N,0,0,0
3:40.497,79379,),0,0,1
3:40.539,79394,(,0,0,2
3:40.617,79422,t,0,0,0
3:40.694,79450,),0,0,2
3:40.744,79468,(,0,0,0
3:40.778,79480,p,0,0,0
3:40.825,79497,),0,0,0
3:40.917,79530,(,0,0,1
3:40.981,79553,N,0,0,0
3:41.003,79561,),0,0,1
3:41.028,79570,(,0,0,2
3:41.128,79606,t,0,0,0
3:41.214,79637,),0,0,2
3:41.275,79659,(,0,0,0
3:41.297,79667,p,0,0,0
3:41.339,79682,),0,0,0
3:41.436,79717,(,0,0,1
3:41.497,79739,N,0,0,0
3:41.519,79747,),0,0,1
3:41.544,79756,(,0,0,2
3:41.642,79791,t,0,0,0
3:41.725,79821,),0,0,2
3:41.772,79838,(,0,0,0
3:41.814,79853,p,0,0,0
3:41.856,79868,),0,0,0
3:41.947,79901,(,0,0,1
3:42.011,79924,N,0,0,0
3:42.036,79933,),0,0,1
3:42.069,79945,(,0,0,2
3:42.153,79975,t,0,0,0
3:42.250,80010,),0,0,2
3:42.308,80031,(,0,0,0
3:42.342,80043,p,0,0,0
3:42.392,80061,),0,0,0
3:42.478,80092,(,0,0,1
3:42.542,80115,N,0,0,0
3:42.572,80126,),0,0,1
3:42.589,80132,(,0,0,2
3:42.692,80169,t,0,0,0
3:42.786,80203,),0,0,2
3:42.842,80223,(,0,0,0
3:42.878,80236,p,0,0,0
3:42.925,80253,),0,0,0
3:43.006,80282,(,0,0,1
3:43.072,80306,N,0,0,0
3:43.094,80314,),0,0,1
3:43.133,80328,(,0,0,2
3:43.211,80356,t,0,0,5
3:43.328,80398,t,0,0,5
3:43.381,80417,),0,0,2
3:43.517,80466,(,0,0,1
3:43.594,80494,N,0,0,0
3:43.622,80504,),0,0,1
3:43.644,80512,(,0,0,2
3:43.744,80548,t,0,0,0
3:43.833,80580,),0,0,2
3:43.892,80601,(,0,0,0
3:43.922,80612,p,0,0,0
3:43.964,80627,),0,0,0
3:44.061,80662,(,0,0,1
3:44.125,80685,N,0,0,0
3:44.150,80694,),0,0,1
3:44.175,80703,(,0,0,2
3:44.278,80740,t,0,0,0
3:44.361,80770,),0,0,2
3:44.425,80793,(,0,0,0
3:44.458,80805,p,0,0,0
3:44.500,80820,),0,0,0
3:44.581,80849,(,0,0,1
3:44.675,80883,N,0,0,0
3:44.700,80892,),0,0,1
3:44.739,80906,(,0,0,2
3:44.825,80937,t,0,0,0
3:44.906,80966,),0,0,2
3:44.958,80985,(,0,0,0
3:44.997,80999,p,0,0,0
3:45.047,81017,),0,0,0
3:45.136,81049,(,0,0,1
3:45.200,81072,N,0,0,0
3:45.225,81081,),0,0,1
3:45.267,81096,(,0,0,2
3:45.350,81126,t,0,0,0
3:45.439,81158,),0,0,2
3:45.486,81175,(,0,0,0
3:45.539,81194,p,0,0,0
3:45.567,81204,),0,0,0
3:45.694,81250,(,0,0,1
3:45.758,81273,N,0,0,0
3:45.783,81282,),0,0,1
3:45.833,81300,(,0,0,2
3:45.914,81329,t,0,0,0
3:45.994,81358,),0,0,2
3:46.050,81378,(,0,0,0
3:46.083,81390,p,0,0,0
3:46.119,81403,),0,0,0
3:46.197,81431,(,0,0,1
3:46.281,81461,N,0,0,0
3:46.306,81470,),0,0,1
3:46.347,81485,(,0,0,2
3:46.425,81513,t,0,0,5
3:46.556,81560,t,0,0,5
3:46.589,81572,),0,0,2
3:46.644,81592,(,0,0,0
3:46.678,81604,p,0,0,0
3:46.697,81611,),0,0,0
3:46.717,81618,(,0,0,1
3:46.803,81649,N,0,0,0
3:46.822,81656,),0,0,1
3:46.864,81671,(,0,0,2
3:46.936,81697,t,0,0,5
3:47.056,81740,t,0,0,5
3:47.094,81754,),0,0,2
3:47.231,81803,(,0,0,1
3:47.297,81827,N,0,0,0
3:47.322,81836,),0,0,1
3:47.358,81849,(,0,0,2
3:47.431,81875,t,0,0,0
3:47.525,81909,),0,0,2
3:47.639,81950,(,0,0,0
3:47.667,81960,p,0,0,0
3:47.689,81968,),0,0,0
3:47.744,81988,(,0,0,1
3:47.803,82009,N,0,0,0
3:47.825,82017,),0,0,1
3:47.900,82044,(,0,0,2
3:47.933,82056,t,0,0,5
3:48.025,82089,t,0,0,5
3:48.050,82098,),0,0,2
3:48.092,82113,(,0,0,0
3:48.117,82122,p,0,0,0
3:48.183,82146,),0,0,0
3:48.200,82152,(,0,0,1
3:48.306,82190,N,0,0,0
3:48.325,82197,),0,0,1
3:48.361,82210,(,0,0,2
3:48.433,82236,t,0,0,0
3:48.539,82274,),0,0,2
3:48.672,82322,(,0,0,1
3:48.797,82367,N,0,0,0
3:48.878,82396,),0,0,1
3:48.914,82409,(,0,0,2
3:48.956,82424,t,0,0,5
3:49.083,82470,t,0,0,5
3:49.125,82485,),0,0,2
3:49.264,82535,(,0,0,1
3:49.350,82566,N,0,0,0
3:49.378,82576,),0,0,1
3:49.425,82593,(,0,0,2
3:49.506,82622,t,0,0,0
3:49.594,82654,),0,0,2
3:49.639,82670,(,0,0,0
3:49.714,82697,p,0,0,0
3:49.764,82715,),0,0,0
3:49.836,82741,(,0,0,1
3:49.919,82771,N,0,0,0
3:49.958,82785,),0,0,1
3:49.994,82798,(,0,0,2
3:50.072,82826,t,0,0,0
3:50.161,82858,),0,0,2
3:50.231,82883,(,0,0,0
3:50.275,82899,p,0,0,0
3:50.322,82916,),0,0,0
3:50.394,82942,(,0,0,1
3:50.478,82972,N,0,0,0
3:50.500,82980,),0,0,1
3:50.553,82999,(,0,0,2
3:50.628,83026,t,0,0,0
3:50.722,83060,),0,0,2
3:50.772,83078,(,0,0,0
3:50.828,83098,p,0,0,0
3:50.875,83115,),0,0,0
3:50.983,83154,(,0,0,1
3:51.047,83177,N,0,0,0
3:51.078,83188,),0,0,1
3:51.114,83201,(,0,0,2
3:51.192,83229,t,0,0,0
3:51.272,83258,),0,0,2
3:51.350,83286,(,0,0,0
3:51.381,83297,p,0,0,0
3:51.422,83312,),0,0,0
3:51.514,83345,(,0,0,1
3:51.583,83370,N,0,0,0
3:51.611,83380,),0,0,1
3:51.661,83398,(,0,0,2
3:51.733,83424,t,0,0,0
3:51.836,83461,),0,0,2
3:51.881,83477,(,0,0,0
3:51.908,83487,p,0,0,0
3:51.961,83506,),0,0,0
3:52.022,83528,(,0,0,1
3:52.114,83561,N,0,0,0
3:52.133,83568,),0,0,1
3:52.169,83581,(,0,0,2
3:52.247,83609,t,0,0,0
3:52.336,83641,),0,0,2
3:52.372,83654,(,0,0,0
3:52.403,83665,p,0,0,0
3:52.456,83684,),0,0,0
3:52.550,83718,(,0,0,1
3:52.614,83741,N,0,0,0
3:52.636,83749,),0,0,1
3:52.675,83763,(,0,0,2
3:52.756,83792,t,0,0,0
3:52.847,83825,),0,0,2
3:52.881,83837,(,0,0,0
3:52.908,83847,p,0,0,0
3:52.961,83866,),0,0,0
3:53.050,83898,(,0,0,1
3:53.108,83919,N,0,0,0
3:53.131,83927,),0,0,1
3:53.164,83939,(,0,0,2
3:53.242,83967,t,0,0,0
3:53.331,83999,),0,0,2
3:53.356,84008,(,0,0,0
3:53.392,84021,p,0,0,0
3:53.444,84040,),0,0,0
3:53.536,84073,(,0,0,1
3:53.597,84095,N,0,0,0
3:53.619,84103,),0,0,1
3:53.647,84113,(,0,0,2
3:53.742,84147,t,0,0,0
3:53.822,84176,),0,0,2
3:53.942,84219,(,0,0,1
3:54.033,84252,N,0,0,0
3:54.217,84318,),0,0,1
3:54.272,84338,(,0,0,2
3:54.322,84356,t,0,0,1
3:54.417,84390,),0,0,2
3:54.567,84444,(,0,0,1
3:54.633,84468,N,0,0,0
3:54.658,84477,),0,0,1
3:54.681,84485,(,0,0,2
3:54.789,84524,t,0,0,0
3:54.881,84557,),0,0,2
3:54.925,84573,(,0,0,0
3:54.956,84584,p,0,0,0
3:55.008,84603,),0,0,0
3:55.106,84638,(,0,0,1
3:55.167,84660,N,0,0,0
3:55.186,84667,),0,0,1
3:55.233,84684,(,0,0,2
3:55.314,84713,t,0,0,0
3:55.406,84746,),0,0,2
3:55.461,84766,(,0,0,0
3:55.494,84778,p,0,0,0
3:55.547,84797,),0,0,0
3:55.647,84833,(,0,0,1
3:55.711,84856,N,0,0,0
3:55.731,84863,),0,0,1
3:55.769,84877,(,0,0,2
3:55.864,84911,t,0,0,0
3:55.964,84947,),0,0,2
3:56.019,84967,(,0,0,0
3:56.056,84980,p,0,0,0
3:56.114,85001,),0,0,0
3:56.200,85032,(,0,0,1
3:56.264,85055,N,0,0,0
3:56.286,85063,),0,0,1
3:56.328,85078,(,0,0,2
3:56.414,85109,t,0,0,0
3:56.511,85144,),0,0,2
3:56.564,85163,(,0,0,0
3:56.614,85181,p,0,0,0
3:56.658,85197,),0,0,0
3:56.756,85232,(,0,0,1
3:56.817,85254,N,0,0,0
3:56.853,85267,),0,0,1
3:56.872,85274,(,0,0,2
3:56.964,85307,t,0,0,0
3:57.064,85343,),0,0,2
3:57.117,85362,(,0,0,0
3:57.144,85372,p,0,0,0
3:57.172,85382,),0,0,0
3:57.292,85425,(,0,0,1
3:57.356,85448,N,0,0,0
3:57.381,85457,),0,0,1
3:57.411,85468,(,0,0,2
3:57.514,85505,t,0,0,5
3:57.628,85546,t,0,0,5
3:57.664,85559,),0,0,2
3:57.731,85583,(,0,0,0
3:57.756,85592,p,0,0,0
3:57.778,85600,),0,0,0
3:57.842,85623,(,0,0,1
3:57.908,85647,N,0,0,0
3:57.942,85659,),0,0,1
3:57.967,85668,(,0,0,2
3:58.064,85703,t,0,0,5
3:58.175,85743,t,0,0,5
3:58.211,85756,),0,0,2
3:58.344,85804,(,0,0,1
3:58.431,85835,N,0,0,0
3:58.458,85845,),0,0,1
3:58.519,85867,(,0,0,2
3:58.569,85885,t,0,0,0
3:58.642,85911,),0,0,2
3:58.681,85925,(,0,0,0
3:58.728,85942,p,0,0,0
3:58.767,85956,),0,0,0
3:58.867,85992,(,0,0,1
3:58.928,86014,N,0,0,0
3:58.953,86023,),0,0,1
3:58.983,86034,(,0,0,2
3:59.067,86064,t,0,0,5
3:59.169,86101,t,0,0,5
3:59.197,86111,),0,0,2
3:59.217,86118,(,0,0,0
3:59.239,86126,p,0,0,0
3:59.275,86139,),0,0,0
3:59.342,86163,(,0,0,1
3:59.425,86193,N,0,0,0
3:59.444,86200,),0,0,1
3:59.503,86221,(,0,0,2
3:59.547,86237,t,0,0,0
3:59.639,86270,),0,0,2
3:59.675,86283,(,0,0,0
3:59.711,86296,p,0,0,0
3:59.742,86307,),0,0,0
3:59.831,86339,(,0,0,1
3:59.914,86369,N,0,0,0
3:59.933,86376,),0,0,1
3:59.983,86394,(,0,0,2
4:00.042,86415,t,0,0,0
4:00.153,86455,),0,0,2
4:00.206,86474,(,0,0,0
4:00.231,86483,p,0,0,0
4:00.253,86491,),0,0,0
4:00.361,86530,(,0,0,1
4:00.417,86550,N,0,0,0
4:00.444,86560,),0,0,1
4:00.469,86569,(,0,0,2
4:00.550,86598,t,0,0,0
4:00.639,86630,),0,0,2
4:00.753,86671,(,0,0,0
4:00.775,86679,p,0,0,0
4:00.803,86689,),0,0,0
4:00.842,86703,(,0,0,1
4:00.919,86731,N,0,0,0
4:00.942,86739,),0,0,1
4:00.994,86758,(,0,0,2
4:01.072,86786,t,0,0,5
4:01.167,86820,t,0,0,5
4:01.214,86837,),0,0,2
4:01.225,86841,(,0,0,0
4:01.283,86862,p,0,0,0
4:01.308,86871,),0,0,0
4:01.328,86878,(,0,0,1
4:01.419,86911,N,0,0,0
4:01.442,86919,),0,0,1
4:01.489,86936,(,0,0,2
4:01.567,86964,t,0,0,0
4:01.636,86989,),0,0,2
4:01.756,87032,(,0,0,0
4:01.797,87047,p,0,0,0
4:01.828,87058,),0,0,0
4:01.869,87073,(,0,0,1
4:01.953,87103,N,0,0,0
4:01.972,87110,),0,0,1
4:02.003,87121,(,0,0,2
4:02.103,87157,t,0,0,0
4:02.211,87196,),0,0,2
4:02.236,87205,(,0,0,0
4:02.264,87215,p,0,0,0
4:02.336,87241,),0,0,0
4:02.408,87267,(,0,0,1
4:02.497,87299,N,0,0,0
4:02.517,87306,),0,0,1
4:02.581,87329,(,0,0,2
4:02.658,87357,t,0,0,0
4:02.739,87386,),0,0,2
4:02.794,87406,(,0,0,0
4:02.819,87415,p,0,0,0
4:02.872,87434,),0,0,0
4:02.989,87476,(,0,0,1
4:03.058,87501,N,0,0,0
4:03.086,87511,),0,0,1
4:03.167,87540,(,0,0,2
4:03.225,87561,t,0,0,0
4:03.308,87591,),0,0,2
4:03.381,87617,(,0,0,0
4:03.403,87625,p,0,0,0
4:03.433,87636,),0,0,0
4:03.544,87676,(,0,0,1
4:03.608,87699,N,0,0,0
4:03.631,87707,),0,0,1
4:03.714,87737,(,0,0,2
4:03.750,87750,t,0,0,5
4:03.881,87797,t,0,0,5
4:03.908,87807,),0,0,2
4:03.994,87838,(,0,0,0
4:04.017,87846,p,0,0,0
4:04.042,87855,),0,0,0
4:04.072,87866,(,0,0,1
4:04.142,87891,N,0,0,0
4:04.172,87902,),0,0,1
4:04.206,87914,(,0,0,2
4:04.289,87944,t,0,0,5
4:04.422,87992,t,0,0,5
4:04.447,88001,),0,0,2
4:04.569,88045,(,0,0,1
4:04.647,88073,N,0,0,0
4:04.664,88079,),0,0,1
4:04.725,88101,(,0,0,2
4:04.778,88120,t,0,0,0
4:04.875,88155,),0,0,2
4:04.900,88164,(,0,0,0
4:04.936,88177,p,0,0,0
4:04.969,88189,),0,0,0
4:05.069,88225,(,0,0,1
4:05.136,88249,N,0,0,0
4:05.169,88261,),0,0,1
4:05.197,88271,(,0,0,2
4:05.278,88300,t,0,0,5
4:05.372,88334,t,0,0,5
4:05.400,88344,),0,0,2
4:05.444,88360,(,0,0,0
4:05.472,88370,p,0,0,0
4:05.503,88381,),0,0,0
4:05.544,88396,(,0,0,1
4:05.625,88425,N,0,0,0
4:05.644,88432,),0,0,1
4:05.681,88445,(,0,0,2
4:05.761,88474,t,0,0,5
4:05.864,88511,t,0,0,5
4:05.911,88528,),0,0,2
4:05.928,88534,(,0,0,0
4:05.989,88556,p,0,0,0
4:06.028,88570,),0,0,0
4:06.061,88582,(,0,0,1
4:06.131,88607,N,0,0,0
4:06.153,88615,),0,0,1
4:06.214,88637,(,0,0,2
4:06.286,88663,t,0,0,0
4:06.369,88693,),0,0,2
4:06.406,88706,(,0,0,0
4:06.442,88719,p,0,0,0
4:06.481,88733,),0,0,0
4:06.592,88773,(,0,0,1
4:06.653,88795,N,0,0,0
4:06.672,88802,),0,0,1
4:06.731,88823,(,0,0,2
4:06.794,88846,t,0,0,5
4:06.919,88891,t,0,0,5
4:06.956,88904,),0,0,2
4:06.972,88910,(,0,0,0
4:07.053,88939,p,0,0,0
4:07.078,88948,),0,0,0
4:07.111,88960,(,0,0,1
4:07.183,88986,N,0,0,0
4:07.203,88993,),0,0,1
4:07.269,89017,(,0,0,2
4:07.325,89037,t,0,0,0
4:07.453,89083,),0,0,2
4:07.467,89088,(,0,0,0
4:07.517,89106,p,0,0,0
4:07.569,89125,),0,0,0
4:07.617,89142,(,0,0,1
4:07.728,89182,N,0,0,0
4:07.744,89188,),0,0,1
4:07.797,89207,(,0,0,2
4:07.878,89236,t,0,0,5
4:07.992,89277,t,0,0,5
4:08.028,89290,),0,0,2
4:08.175,89343,(,0,0,1
4:08.261,89374,N,0,0,0
4:08.289,89384,),0,0,1
4:08.331,89399,(,0,0,2
4:08.417,89430,t,0,0,0
4:08.536,89473,),0,0,2
4:08.586,89491,(,0,0,0
4:08.611,89500,p,0,0,0
4:08.639,89510,),0,0,0
4:08.750,89550,(,0,0,1
4:08.808,89571,N,0,0,0
4:08.833,89580,),0,0,1
4:08.883,89598,(,0,0,2
4:08.953,89623,t,0,0,0
4:09.047,89657,),0,0,2
4:09.131,89687,(,0,0,0
4:09.156,89696,p,0,0,0
4:09.219,89719,),0,0,0
4:09.294,89746,(,0,0,1
4:09.367,89772,N,0,0,0
4:09.408,89787,),0,0,1
4:09.442,89799,(,0,0,2
4:09.525,89829,t,0,0,0
4:09.619,89863,),0,0,2
4:09.669,89881,(,0,0,0
4:09.689,89888,p,0,0,0
4:09.714,89897,),0,0,0
4:09.825,89937,(,0,0,1
4:09.889,89960,N,0,0,0
4:09.914,89969,),0,0,1
4:09.939,89978,(,0,0,2
4:10.031,90011,t,0,0,5
4:10.131,90047,t,0,0,5
4:10.164,90059,),0,0,2
4:10.319,90115,(,0,0,1
4:10.394,90142,N,0,0,0
4:10.425,90153,),0,0,1
4:10.456,90164,(,0,0,2
4:10.539,90194,t,0,0,5
4:10.647,90233,t,0,0,5
4:10.683,90246,),0,0,2
4:10.814,90293,(,0,0,1
4:10.889,90320,N,0,0,0
4:11.014,90365,),0,0,1
4:11.050,90378,(,0,0,2
4:11.131,90407,t,0,0,1
4:11.172,90422,),0,0,2
4:11.208,90435,(,0,0,0
4:11.258,90453,p,0,0,0
4:11.292,90465,),0,0,0
4:11.331,90479,(,0,0,1
4:11.397,90503,N,0,0,0
4:11.419,90511,),0,0,1
4:11.461,90526,(,0,0,2
4:11.533,90552,t,0,0,0
4:11.619,90583,),0,0,2
4:11.661,90598,(,0,0,0
4:11.686,90607,p,0,0,0
4:11.714,90617,),0,0,0
4:11.825,90657,(,0,0,1
4:11.883,90678,N,0,0,0
4:11.906,90686,),0,0,1
4:11.958,90705,(,0,0,2
4:12.017,90726,t,0,0,0
4:12.122,90764,),0,0,2
4:12.153,90775,(,0,0,0
4:12.186,90787,p,0,0,0
4:12.219,90799,),0,0,0
4:12.308,90831,(,0,0,1
4:12.394,90862,N,0,0,0
4:12.419,90871,),0,0,1
4:12.461,90886,(,0,0,2
4:12.542,90915,t,0,0,5
4:12.642,90951,t,0,0,5
4:12.669,90961,),0,0,2
4:12.689,90968,(,0,0,0
4:12.703,90973,p,0,0,0
4:12.747,90989,),0,0,0
4:12.844,91024,(,0,0,1
4:12.903,91045,N,0,0,0
4:12.928,91054,),0,0,1
4:12.958,91065,(,0,0,2
4:13.053,91099,t,0,0,0
4:13.136,91129,),0,0,2
4:13.203,91153,(,0,0,0
4:13.222,91160,p,0,0,0
4:13.247,91169,),0,0,0
4:13.314,91193,(,0,0,1
4:13.433,91236,N,0,0,0
4:13.456,91244,),0,0,1
4:13.483,91254,(,0,0,2
4:13.583,91290,t,0,0,0
4:13.681,91325,),0,0,2
4:13.747,91349,(,0,0,0
4:13.769,91357,p,0,0,0
4:13.797,91367,),0,0,0
4:13.917,91410,(,0,0,1
4:13.992,91437,N,0,0,0
4:14.017,91446,),0,0,1
4:14.067,91464,(,0,0,2
4:14.156,91496,t,0,0,0
4:14.236,91525,),0,0,2
4:14.303,91549,(,0,0,0
4:14.336,91561,p,0,0,0
4:14.389,91580,),0,0,0
4:14.503,91621,(,0,0,1
4:14.583,91650,N,0,0,0
4:14.603,91657,),0,0,1
4:14.650,91674,(,0,0,2
4:14.747,91709,t,0,0,0
4:14.833,91740,),0,0,2
4:14.889,91760,(,0,0,0
4:14.922,91772,p,0,0,0
4:14.956,91784,),0,0,0
4:15.072,91826,(,0,0,1
4:15.144,91852,N,0,0,0
4:15.172,91862,),0,0,1
4:15.217,91878,(,0,0,2
4:15.294,91906,t,0,0,0
4:15.378,91936,),0,0,2
4:15.506,91982,(,0,0,0
4:15.536,91993,p,0,0,0
4:15.572,92006,),0,0,0
4:15.614,92021,(,0,0,1
4:15.686,92047,N,0,0,0
4:15.708,92055,),0,0,1
4:15.781,92081,(,0,0,2
4:15.842,92103,t,0,0,5
4:15.969,92149,t,0,0,5
4:15.997,92159,),0,0,2
4:16.069,92185,(,0,0,0
4:16.094,92194,p,0,0,0
4:16.114,92201,),0,0,0
4:16.136,92209,(,0,0,1
4:16.200,92232,N,0,0,0
4:16.239,92246,),0,0,1
4:16.289,92264,(,0,0,2
4:16.339,92282,t,0,0,0
4:16.417,92310,),0,0,2
4:16.458,92325,(,0,0,0
4:16.500,92340,p,0,0,0
4:16.586,92371,),0,0,0
4:16.633,92388,(,0,0,1
4:16.708,92415,N,0,0,0
4:16.731,92423,),0,0,1
4:16.772,92438,(,0,0,2
4:16.850,92466,t,0,0,5
4:16.978,92512,t,0,0,5
4:17.006,92522,),0,0,2
4:17.017,92526,(,0,0,0
4:17.072,92546,p,0,0,0
4:17.131,92567,),0,0,0
4:17.158,92577,(,0,0,1
4:17.214,92597,N,0,0,0
4:17.239,92606,),0,0,1
4:17.294,92626,(,0,0,2
4:17.356,92648,t,0,0,5
4:17.464,92687,t,0,0,5
4:17.519,92707,),0,0,2
4:17.528,92710,(,0,0,0
4:17.553,92719,p,0,0,0
4:17.564,92723,),0,0,0
4:17.633,92748,(,0,0,1
4:17.725,92781,N,0,0,0
4:17.753,92791,),0,0,1
4:17.811,92812,(,0,0,2
4:17.861,92830,t,0,0,5
4:17.956,92864,t,0,0,5
4:18.011,92884,),0,0,2
4:18.117,92922,(,0,0,1
4:18.208,92955,N,0,0,0
4:18.228,92962,),0,0,1
4:18.275,92979,(,0,0,2
4:18.342,93003,t,0,0,0
4:18.425,93033,),0,0,2
4:18.475,93051,(,0,0,0
4:18.508,93063,p,0,0,0
4:18.542,93075,),0,0,0
4:18.656,93116,(,0,0,1
4:18.722,93140,N,0,0,0
4:18.750,93150,),0,0,1
4:18.772,93158,(,0,0,2
4:18.864,93191,t,0,0,5
4:18.969,93229,t,0,0,5
4:19.017,93246,),0,0,2
4:19.039,93254,(,0,0,0
4:19.108,93279,p,0,0,0
4:19.142,93291,),0,0,0
4:19.175,93303,(,0,0,1
4:19.253,93331,N,0,0,0
4:19.281,93341,),0,0,1
4:19.308,93351,(,0,0,2
4:19.408,93387,t,0,0,0
4:19.503,93421,),0,0,2
4:19.553,93439,(,0,0,0
4:19.592,93453,p,0,0,0
4:19.639,93470,),0,0,0
4:19.692,93489,(,0,0,1
4:19.822,93536,N,0,0,0
4:19.847,93545,),0,0,1
4:19.872,93554,(,0,0,2
4:19.975,93591,t,0,0,0
4:20.058,93621,),0,0,2
4:20.200,93672,(,0,0,1
4:20.292,93705,N,0,0,0
4:20.489,93776,),0,0,1
4:20.681,93845,(,0,0,0
4:20.739,93866,p,0,0,0
4:20.775,93879,),0,0,0
4:20.828,93898,(,0,0,1
4:20.931,93935,N,0,0,0
4:20.956,93944,),0,0,1
4:21.019,93967,(,0,0,2
4:21.094,93994,t,0,0,0
4:21.181,94025,),0,0,2
4:21.208,94035,(,0,0,0
4:21.247,94049,p,0,0,0
4:21.308,94071,),0,0,0
4:21.375,94095,(,0,0,1
4:21.467,94128,N,0,0,0
4:21.486,94135,),0,0,1
4:21.556,94160,(,0,0,2
4:21.608,94179,t,0,0,0
4:21.686,94207,),0,0,2
4:21.769,94237,(,0,0,0
4:21.794,94246,p,0,0,0
4:21.833,94260,),0,0,0
4:21.903,94285,(,0,0,1
4:22.000,94320,N,0,0,0
4:22.025,94329,),0,0,1
4:22.083,94350,(,0,0,2
4:22.139,94370,t,0,0,0
4:22.236,94405,),0,0,2
4:22.289,94424,(,0,0,0
4:22.322,94436,p,0,0,0
4:22.364,94451,),0,0,0
4:22.433,94476,(,0,0,1
4:22.528,94510,N,0,0,0
4:22.567,94524,),0,0,1
4:22.592,94533,(,0,0,2
4:22.675,94563,t,0,0,0
4:22.769,94597,),0,0,2
4:22.825,94617,(,0,0,0
4:22.858,94629,p,0,0,0
4:22.881,94637,),0,0,0
4:22.972,94670,(,0,0,1
4:23.064,94703,N,0,0,0
4:23.097,94715,),0,0,1
4:23.156,94736,(,0,0,2
4:23.206,94754,t,0,0,5
4:23.331,94799,t,0,0,5
4:23.364,94811,),0,0,2
4:23.464,94847,(,0,0,1
4:23.564,94883,N,0,0,0
4:23.597,94895,),0,0,1
4:23.625,94905,(,0,0,2
4:23.703,94933,t,0,0,5
4:23.817,94974,t,0,0,5
4:23.869,94993,),0,0,2
4:24.019,95047,(,0,0,1
4:24.086,95071,N,0,0,0
4:24.108,95079,),0,0,1
4:24.150,95094,(,0,0,2
4:24.219,95119,t,0,0,0
4:24.319,95155,),0,0,2
4:24.344,95164,(,0,0,0
4:24.383,95178,p,0,0,0
4:24.411,95188,),0,0,0
4:24.483,95214,(,0,0,1
4:24.581,95249,N,0,0,0
4:24.603,95257,),0,0,1
4:24.625,95265,(,0,0,2
4:24.717,95298,t,0,0,0
4:24.797,95327,),0,0,2
4:24.869,95353,(,0,0,0
4:24.894,95362,p,0,0,0
4:24.922,95372,),0,0,0
4:25.044,95416,(,0,0,1
4:25.111,95440,N,0,0,0
4:25.133,95448,),0,0,1
4:25.178,95464,(,0,0,2
4:25.253,95491,t,0,0,0
4:25.350,95526,),0,0,2
4:25.400,95544,(,0,0,0
4:25.422,95552,p,0,0,0
4:25.453,95563,),0,0,0
4:25.519,95587,(,0,0,1
4:25.636,95629,N,0,0,0
4:25.667,95640,),0,0,1
4:25.711,95656,(,0,0,2
4:25.781,95681,t,0,0,0
4:25.894,95722,),0,0,2
4:25.956,95744,(,0,0,0
4:25.981,95753,p,0,0,0
4:26.047,95777,),0,0,0
4:26.136,95809,(,0,0,1
4:26.203,95833,N,0,0,0
4:26.228,95842,),0,0,1
4:26.264,95855,(,0,0,2
4:26.347,95885,t,0,0,0
4:26.447,95921,),0,0,2
4:26.497,95939,(,0,0,0
4:26.542,95955,p,0,0,0
4:26.600,95976,),0,0,0
4:26.689,96008,(,0,0,1
4:26.756,96032,N,0,0,0
4:26.781,96041,),0,0,1
4:26.836,96061,(,0,0,2
4:26.917,96090,t,0,0,0
4:27.011,96124,),0,0,2
4:27.083,96150,(,0,0,0
4:27.139,96170,p,0,0,0
4:27.189,96188,),0,0,0
4:27.233,96204,(,0,0,1
4:27.331,96239,N,0,0,0
4:27.361,96250,),0,0,1
4:27.389,96260,(,0,0,2
4:27.472,96290,t,0,0,0
4:27.578,96328,),0,0,2
4:27.647,96353,(,0,0,0
4:27.669,96361,p,0,0,0
4:27.694,96370,),0,0,0
4:27.811,96412,(,0,0,1
4:27.894,96442,N,0,0,0
4:27.917,96450,),0,0,1
4:27.947,96461,(,0,0,2
4:28.058,96501,t,0,0,0
4:28.142,96531,),0,0,2
4:28.206,96554,(,0,0,0
4:28.233,96564,p,0,0,0
4:28.286,96583,),0,0,0
4:28.353,96607,(,0,0,1
4:28.431,96635,N,0,0,0
4:28.458,96645,),0,0,1
4:28.475,96651,(,0,0,2
4:28.575,96687,t,0,0,5
4:28.697,96731,t,0,0,5
4:28.725,96741,),0,0,2
4:28.811,96772,(,0,0,0
4:28.839,96782,p,0,0,0
4:28.847,96785,),0,0,0
4:28.883,96798,(,0,0,1
4:28.944,96820,N,0,0,0
4:28.969,96829,),0,0,1
4:29.006,96842,(,0,0,2
4:29.086,96871,t,0,0,0
4:29.183,96906,),0,0,2
4:29.247,96929,(,0,0,0
4:29.267,96936,p,0,0,0
4:29.294,96946,),0,0,0
4:29.358,96969,(,0,0,1
4:29.458,97005,N,0,0,0
4:29.475,97011,),0,0,1
4:29.533,97032,(,0,0,2
4:29.586,97051,t,0,0,5
4:29.708,97095,t,0,0,5
4:29.758,97113,),0,0,2
4:29.797,97127,(,0,0,0
4:29.833,97140,p,0,0,0
4:29.861,97150,),0,0,0
4:29.903,97165,(,0,0,1
4:29.961,97186,N,0,0,0
4:29.983,97194,),0,0,1
4:30.022,97208,(,0,0,2
4:30.103,97237,t,0,0,0
4:30.178,97264,),0,0,2
4:30.253,97291,(,0,0,0
4:30.278,97300,p,0,0,0
4:30.303,97309,),0,0,0
4:30.414,97349,(,0,0,1
4:30.481,97373,N,0,0,0
4:30.503,97381,),0,0,1
4:30.581,97409,(,0,0,2
4:30.628,97426,t,0,0,0
4:30.719,97459,),0,0,2
4:30.750,97470,(,0,0,0
4:30.797,97487,p,0,0,0
4:30.822,97496,),0,0,0
4:30.928,97534,(,0,0,1
4:31.022,97568,N,0,0,0
4:31.050,97578,),0,0,1
4:31.131,97607,(,0,0,2
4:31.186,97627,t,0,0,0
4:31.286,97663,),0,0,2
4:31.342,97683,(,0,0,0
4:31.364,97691,p,0,0,0
4:31.394,97702,),0,0,0
4:31.483,97734,(,0,0,1
4:31.581,97769,N,0,0,0
4:31.600,97776,),0,0,1
4:31.642,97791,(,0,0,2
4:31.733,97824,t,0,0,0
4:31.808,97851,),0,0,2
4:31.886,97879,(,0,0,0
4:31.911,97888,p,0,0,0
4:31.967,97908,),0,0,0
4:32.047,97937,(,0,0,1
4:32.136,97969,N,0,0,0
4:32.169,97981,),0,0,1
4:32.203,97993,(,0,0,2
4:32.311,98032,t,0,0,0
4:32.403,98065,),0,0,2
4:32.433,98076,(,0,0,0
4:32.494,98098,p,0,0,0
4:32.528,98110,),0,0,0
4:32.619,98143,(,0,0,1
4:32.703,98173,N,0,0,0
4:32.728,98182,),0,0,1
4:32.764,98195,(,0,0,2
4:32.853,98227,t,0,0,0
4:32.922,98252,),0,0,2
4:33.042,98295,(,0,0,0
4:33.089,98312,p,0,0,0
4:33.117,98322,),0,0,0
4:33.156,98336,(,0,0,1
4:33.256,98372,N,0,0,0
4:33.281,98381,),0,0,1
4:33.311,98392,(,0,0,2
4:33.403,98425,t,0,0,5
4:33.522,98468,t,0,0,5
4:33.558,98481,),0,0,2
4:33.717,98538,(,0,0,1
4:33.778,98560,N,0,0,0
4:33.797,98567,),0,0,1
4:33.825,98577,(,0,0,2
4:33.925,98613,t,0,0,0
4:34.025,98649,),0,0,2
4:34.039,98654,(,0,0,0
4:34.092,98673,p,0,0,0
4:34.167,98700,),0,0,0
4:34.228,98722,(,0,0,1
4:34.308,98751,N,0,0,0
4:34.336,98761,),0,0,1
4:34.361,98770,(,0,0,2
4:34.453,98803,t,0,0,0
4:34.542,98835,),0,0,2
4:34.592,98853,(,0,0,0
4:34.622,98864,p,0,0,0
4:34.667,98880,),0,0,0
4:34.758,98913,(,0,0,1
4:34.819,98935,N,0,0,0
4:34.839,98942,),0,0,1
4:34.861,98950,(,0,0,2
4:34.961,98986,t,0,0,0
4:35.053,99019,),0,0,2
4:35.108,99039,(,0,0,0
4:35.139,99050,p,0,0,0
4:35.167,99060,),0,0,0
4:35.278,99100,(,0,0,1
4:35.339,99122,N,0,0,0
4:35.364,99131,),0,0,1
4:35.400,99144,(,0,0,2
4:35.478,99172,t,0,0,5
4:35.603,99217,t,0,0,5
4:35.650,99234,),0,0,2
4:35.781,99281,(,0,0,1
4:35.858,99309,N,0,0,0
4:35.858,99309,),0,0,1
4:36.347,99485,(,0,0,2
4:36.378,99496,t,0,0,5
4:36.414,99509,t,0,0,5
4:36.539,99554,),0,0,2
5:04.322,109556,(,0,0,1
5:04.344,109564,N,0,0,0
5:04.369,109573,),0,0,1
5:04.808,109731,(,0,0,2
5:04.839,109742,t,0,0,5
5:04.875,109755,t,0,0,5
5:04.997,109799,),0,0,2
5:05.283,109902,(,0,0,1
5:05.347,109925,N,0,0,0
5:05.375,109935,),0,0,1
5:05.681,110045,(,0,0,2
5:05.900,110124,t,0,0,0
5:06.131,110207,),0,0,2
6:22.361,137650,(,0,0,1
6:22.408,137667,N,0,0,0
6:22.433,137676,),0,0,1
6:22.442,137679,(,0,0,2
6:22.578,137728,t,0,0,0
6:22.661,137758,),0,0,2
6:22.886,137839,(,0,0,1
6:22.894,137842,N,0,0,0
6:22.967,137868,),0,0,1
6:23.403,138025,(,0,0,2
6:23.431,138035,t,0,0,5
6:23.467,138048,t,0,0,5
6:23.594,138094,),0,0,2
6:27.131,139367,(,0,0,1
6:27.194,139390,N,0,0,0
6:27.222,139400,),0,0,1
6:27.286,139423,(,0,0,2
6:27.381,139457,t,0,0,0
6:27.481,139493,),0,0,2
6:27.731,139583,(,0,0,1
6:27.756,139592,N,0,0,0
6:27.783,139602,),0,0,1
6:27.858,139629,(,0,0,2
6:27.928,139654,t,0,0,0
6:28.008,139683,),0,0,2
6:28.247,139769,(,0,0,1
6:28.267,139776,N,0,0,0
6:28.294,139786,),0,0,1
6:28.342,139803,(,0,0,2
6:28.442,139839,t,0,0,0
6:28.511,139864,),0,0,2
6:28.758,139953,(,0,0,1
6:28.778,139960,N,0,0,0
6:28.803,139969,),0,0,1
6:28.808,139971,(,0,0,2
6:28.942,140019,t,0,0,0
6:29.042,140055,),0,0,2
6:29.272,140138,(,0,0,1
6:29.289,140144,N,0,0,0
6:29.314,140153,),0,0,1
6:29.389,140180,(,0,0,2
6:29.456,140204,t,0,0,0
6:29.553,140239,),0,0,2
6:29.781,140321,(,0,0,1
6:29.800,140328,N,0,0,0
6:29.828,140338,),0,0,1
6:29.892,140361,(,0,0,2
6:29.958,140385,t,0,0,5
6:30.064,140423,t,0,0,5
6:30.092,140433,),0,0,2
6:30.289,140504,(,0,0,1
6:30.317,140514,N,0,0,0
6:30.344,140524,),0,0,1
6:30.444,140560,(,0,0,2
6:30.486,140575,t,0,0,0
6:30.583,140610,),0,0,2
6:30.817,140694,(,0,0,1
6:30.839,140702,N,0,0,0
6:30.864,140711,),0,0,1
6:30.922,140732,(,0,0,2
6:31.011,140764,t,0,0,5
6:31.153,140815,t,0,0,5
6:31.186,140827,),0,0,2
6:31.350,140886,(,0,0,1
6:31.394,140902,N,0,0,0
6:31.419,140911,),0,0,1
6:31.469,140929,(,0,0,2
6:31.575,140967,t,0,0,0
6:31.672,141002,),0,0,2
6:31.917,141090,(,0,0,1
6:31.942,141099,N,0,0,0
6:31.969,141109,),0,0,1
6:32.056,141140,(,0,0,2
6:32.122,141164,t,0,0,5
6:32.264,141215,t,0,0,5
6:32.308,141231,),0,0,2
6:32.458,141285,(,0,0,1
6:32.508,141303,N,0,0,0
6:32.572,141326,),0,0,1
6:32.625,141345,(,0,0,2
6:32.703,141373,t,0,0,0
6:32.781,141401,),0,0,2
6:33.050,141498,(,0,0,1
6:33.075,141507,N,0,0,0
6:33.100,141516,),0,0,1
6:33.181,141545,(,0,0,2
6:33.244,141568,t,0,0,5
6:33.369,141613,t,0,0,5
6:33.431,141635,),0,0,2
6:33.583,141690,(,0,0,1
6:33.619,141703,N,0,0,0
6:33.644,141712,),0,0,1
6:33.653,141715,(,0,0,2
6:33.797,141767,t,0,0,0
6:33.886,141799,),0,0,2
6:34.133,141888,(,0,0,1
6:34.158,141897,N,0,0,0
6:34.183,141906,),0,0,1
6:34.261,141934,(,0,0,2
6:34.336,141961,t,0,0,5
6:34.453,142003,t,0,0,5
6:34.486,142015,),0,0,2
6:34.667,142080,(,0,0,1
6:34.692,142089,N,0,0,0
6:34.719,142099,),0,0,1
6:34.783,142122,(,0,0,2
6:34.861,142150,t,0,0,0
6:34.950,142182,),0,0,2
6:35.150,142254,(,0,0,1
6:35.197,142271,N,0,0,0
6:35.222,142280,),0,0,1
6:35.264,142295,(,0,0,2
6:35.361,142330,t,0,0,0
6:35.450,142362,),0,0,2
6:35.686,142447,(,0,0,1
6:35.711,142456,N,0,0,0
6:35.733,142464,),0,0,1
6:35.742,142467,(,0,0,2
6:35.878,142516,t,0,0,0
6:35.964,142547,),0,0,2
6:36.197,142631,(,0,0,1
6:36.217,142638,N,0,0,0
6:36.244,142648,),0,0,1
6:36.300,142668,(,0,0,2
6:36.375,142695,t,0,0,0
6:36.458,142725,),0,0,2
6:36.717,142818,(,0,0,1
6:36.739,142826,N,0,0,0
6:36.764,142835,),0,0,1
6:36.825,142857,(,0,0,2
6:36.914,142889,t,0,0,0
6:36.994,142918,),0,0,2
6:37.231,143003,(,0,0,1
6:37.267,143016,N,0,0,0
6:37.294,143026,),0,0,1
6:37.344,143044,(,0,0,2
6:37.456,143084,t,0,0,0
6:37.556,143120,),0,0,2
6:37.800,143208,(,0,0,1
6:37.833,143220,N,0,0,0
6:37.861,143230,),0,0,1
6:37.936,143257,(,0,0,2
6:38.014,143285,t,0,0,0
6:38.097,143315,),0,0,2
6:38.331,143399,(,0,0,1
6:38.375,143415,N,0,0,0
6:38.406,143426,),0,0,1
6:38.489,143456,(,0,0,2
6:38.569,143485,t,0,0,0
6:38.675,143523,),0,0,2
6:38.939,143618,(,0,0,1
6:38.964,143627,N,0,0,0
6:38.989,143636,),0,0,1
6:39.506,143822,(,0,0,2
6:39.539,143834,t,0,0,5
6:39.575,143847,t,0,0,5
6:39.633,143868,),0,0,2
6:40.081,144029,(,0,0,1
6:40.103,144037,N,0,0,0
6:40.128,144046,),0,0,1
6:40.578,144208,(,0,0,2
6:40.606,144218,t,0,0,5
6:40.644,144232,t,0,0,5
6:40.778,144280,),0,0,2
6:40.783,144282,(,0,0,0
6:40.833,144300,p,0,0,0
6:40.875,144315,),0,0,0
6:41.094,144394,(,0,0,1
6:41.117,144402,N,0,0,0
6:41.142,144411,),0,0,1
6:41.581,144569,(,0,0,2
6:41.608,144579,t,0,0,5
6:41.644,144592,t,0,0,5
6:41.689,144608,),0,0,2
6:42.650,144954,(,0,0,1
6:42.672,144962,N,0,0,0
6:42.700,144972,),0,0,1
6:42.761,144994,(,0,0,2
6:42.856,145028,t,0,0,0
6:42.950,145062,),0,0,2
6:43.158,145137,(,0,0,1
6:43.233,145164,N,0,0,0
6:43.258,145173,),0,0,1
6:43.333,145200,(,0,0,2
6:43.411,145228,t,0,0,0
6:43.492,145257,),0,0,2
6:43.761,145354,(,0,0,1
6:43.783,145362,N,0,0,0
6:43.811,145372,),0,0,1
6:43.883,145398,(,0,0,2
6:43.986,145435,t,0,0,0
6:44.072,145466,),0,0,2
6:44.294,145546,(,0,0,1
6:44.364,145571,N,0,0,0
6:44.392,145581,),0,0,1
6:44.447,145601,(,0,0,2
6:44.544,145636,t,0,0,0
6:44.639,145670,),0,0,2
6:44.894,145762,(,0,0,1
6:44.914,145769,N,0,0,0
6:44.942,145779,),0,0,1
6:45.011,145804,(,0,0,2
6:45.108,145839,t,0,0,0
6:45.206,145874,),0,0,2
6:45.283,145902,(,0,0,1
6:45.344,145924,N,0,0,0
6:45.408,145947,),0,0,1
6:46.003,146161,(,0,0,2
6:46.031,146171,t,0,0,5
6:46.069,146185,t,0,0,5
6:46.108,146199,),0,0,2
6:48.422,147032,(,0,0,1
6:48.478,147052,N,0,0,0
6:48.531,147071,),0,0,1
6:49.119,147283,(,0,0,2
6:49.150,147294,t,0,0,5
6:49.186,147307,t,0,0,5
6:49.219,147319,),0,0,2
6:49.664,147479,(,0,0,1
6:49.686,147487,N,0,0,0
6:49.714,147497,),0,0,1
6:49.722,147500,(,0,0,2
6:49.869,147553,t,0,0,5
6:49.972,147590,t,0,0,5
6:50.019,147607,),0,0,2
6:50.211,147676,(,0,0,1
6:50.233,147684,N,0,0,0
6:50.264,147695,),0,0,1
6:50.764,147875,(,0,0,2
6:50.797,147887,t,0,0,5
6:50.836,147901,t,0,0,5
6:50.986,147955,),0,0,2
6:52.481,148493,(,0,0,1
6:52.503,148501,N,0,0,0
6:52.528,148510,),0,0,1
6:52.942,148659,(,0,0,2
6:52.972,148670,t,0,0,0
6:53.006,148682,),0,0,2
7:07.683,153966,(,0,0,1
7:07.744,153988,N,0,0,0
7:07.869,154033,),0,0,1
7:08.247,154169,(,0,0,2
7:08.278,154180,t,0,0,5
7:08.317,154194,t,0,0,5
7:08.350,154206,),0,0,2
7:12.828,155818,(,0,0,1
7:12.900,155844,N,0,0,0
7:12.939,155858,),0,0,1
7:13.506,156062,(,0,0,2
7:13.539,156074,t,0,0,0
7:13.575,156087,),0,0,2
7:18.889,158000,(,0,0,1
7:18.908,158007,N,0,0,0
7:18.933,158016,),0,0,1
7:19.392,158181,(,0,0,2
7:19.422,158192,t,0,0,5
7:19.461,158206,t,0,0,5
7:19.611,158260,),0,0,2
7:20.367,158532,(,0,0,1
7:20.425,158553,N,0,0,0
7:20.497,158579,),0,0,1
7:21.136,158809,(,0,0,2
7:21.167,158820,t,0,0,0
7:21.203,158833,),0,0,2
7:30.619,162223,(,0,0,1
7:30.625,162225,N,0,0,0
7:30.700,162252,),0,0,1
7:31.164,162419,(,0,0,2
7:31.194,162430,t,0,0,5
7:31.233,162444,t,0,0,5
7:31.272,162458,),0,0,2
8:01.461,173326,(,0,0,1
8:01.531,173351,N,0,0,0
8:01.575,173367,),0,0,1
8:02.233,173604,(,0,0,2
8:02.264,173615,t,0,0,0
8:02.300,173628,),0,0,2
8:14.681,178085,(,0,0,1
8:14.742,178107,N,0,0,0
8:14.778,178120,),0,0,1
8:15.392,178341,(,0,0,2
8:15.422,178352,t,0,0,5
8:15.461,178366,t,0,0,5
8:15.503,178381,),0,0,2
8:16.383,178698,(,0,0,1
8:16.436,178717,N,0,0,0
8:16.492,178737,),0,0,1
8:16.942,178899,(,0,0,2
8:16.975,178911,t,0,0,5
8:17.011,178924,t,0,0,5
8:17.147,178973,),0,0,2
8:18.869,179593,(,0,0,1
8:18.917,179610,N,0,0,0
8:19.014,179645,),0,0,1
8:19.161,179698,(,0,0,1
8:19.206,179714,N,0,0,0
8:19.275,179739,),0,0,1
8:19.378,179776,(,0,0,2
8:19.422,179792,t,0,0,0
8:19.486,179815,),0,0,2
8:20.108,180039,(,0,0,1
8:20.142,180051,N,0,0,0
8:20.169,180061,),0,0,1
8:20.258,180093,(,0,0,2
8:20.328,180118,t,0,0,0
8:20.439,180158,),0,0,2
8:20.517,180186,(,0,0,1
8:20.597,180215,N,0,0,0
8:20.642,180231,),0,0,1
8:21.233,180444,(,0,0,2
8:21.267,180456,t,0,0,5
8:21.306,180470,t,0,0,5
8:21.450,180522,),0,0,2
8:28.161,182938,(,0,0,1
8:28.178,182944,N,0,0,0
8:28.239,182966,),0,0,1
8:28.683,183126,(,0,0,2
8:28.714,183137,t,0,0,5
8:28.747,183149,t,0,0,5
8:28.781,183161,),0,0,2
8:46.758,189633,(,0,0,1
8:46.811,189652,N,0,0,0
8:46.881,189677,),0,0,1
8:47.453,189883,(,0,0,2
8:47.481,189893,t,0,0,5
8:47.519,189907,t,0,0,5
8:47.644,189952,),0,0,2
8:53.264,191975,(,0,0,1
8:53.331,191999,N,0,0,0
8:53.419,192031,),0,0,1
8:53.439,192038,t,0,0,2
8:53.550,192078,),0,0,2
9:12.108,198759,(,0,0,1
9:12.217,198798,N,0,0,0
9:12.319,198835,),0,0,1
9:12.333,198840,(,0,0,2
9:12.378,198856,t,0,0,0
9:12.428,198874,),0,0,2
9:12.714,198977,(,0,0,1
9:12.731,198983,N,0,0,0
9:12.842,199023,),0,0,1
9:13.164,199139,(,0,0,1
9:13.267,199176,N,0,0,0
9:13.303,199189,),0,0,1
9:13.411,199228,(,0,0,2
9:13.439,199238,t,0,0,0
9:13.500,199260,),0,0,2
9:13.792,199365,(,0,0,1
9:13.814,199373,N,0,0,0
9:13.981,199433,),0,0,1
9:14.264,199535,(,0,0,1
9:14.367,199572,N,0,0,0
9:14.403,199585,),0,0,1
9:14.497,199619,(,0,0,2
9:14.536,199633,t,0,0,0
9:14.572,199646,),0,0,2
9:14.842,199743,(,0,0,1
9:14.917,199770,N,0,0,0
9:14.950,199782,),0,0,1
9:15.156,199856,(,0,0,1
9:15.381,199937,N,0,0,0
9:15.547,199997,),0,0,1
9:15.622,200024,(,0,0,1
9:15.725,200061,N,0,0,0
9:15.783,200082,),0,0,1
9:15.825,200097,(,0,0,2
9:15.856,200108,t,0,0,0
9:15.889,200120,),0,0,2
9:15.936,200137,(,0,0,1
9:16.053,200179,N,0,0,0
9:16.103,200197,),0,0,1
9:16.169,200221,(,0,0,2
9:16.211,200236,t,0,0,0
9:16.253,200251,),0,0,2
9:16.467,200328,(,0,0,1
9:16.564,200363,N,0,0,0
9:16.625,200385,),0,0,1
9:16.686,200407,(,0,0,2
9:16.722,200420,t,0,0,0
9:16.758,200433,),0,0,2
9:16.814,200453,(,0,0,0
9:16.822,200456,p,0,0,0
9:16.883,200478,),0,0,0
9:16.897,200483,(,0,0,1
9:17.067,200544,N,0,0,0
9:17.142,200571,),0,0,1
9:17.178,200584,(,0,0,2
9:17.217,200598,t,0,0,0
9:17.267,200616,),0,0,2
9:17.394,200662,(,0,0,1
9:17.558,200721,N,0,0,0
9:17.631,200747,),0,0,1
9:17.669,200761,(,0,0,2
9:17.708,200775,t,0,0,0
9:17.758,200793,),0,0,2
9:17.883,200838,(,0,0,1
9:18.047,200897,N,0,0,0
9:18.219,200959,(,0,0,0
9:18.233,200964,),0,0,1
9:18.314,200993,p,0,0,0
9:18.386,201019,),0,0,0
9:18.403,201025,(,0,0,1
9:18.569,201085,N,0,0,0
9:18.650,201114,),0,0,1
9:18.681,201125,(,0,0,2
9:18.742,201147,t,0,0,0
9:18.803,201169,),0,0,2
9:18.894,201202,(,0,0,0
9:18.922,201212,p,0,0,0
9:18.950,201222,),0,0,0
9:19.022,201248,(,0,0,1
9:19.119,201283,N,0,0,0
9:19.189,201308,),0,0,1
9:19.306,201350,(,0,0,0
9:19.389,201380,p,0,0,0
9:19.481,201413,),0,0,0
9:19.500,201420,(,0,0,1
9:19.675,201483,N,0,0,0
9:19.719,201499,),0,0,1
9:20.131,201647,(,0,0,1
9:20.233,201684,N,0,0,0
9:20.383,201738,),0,0,1
9:20.453,201763,(,0,0,0
9:20.550,201798,p,0,0,0
9:20.631,201827,),0,0,0
9:20.647,201833,(,0,0,1
9:20.822,201896,N,0,0,0
9:20.881,201917,),0,0,1
9:20.989,201956,(,0,0,0
9:21.081,201989,p,0,0,0
9:21.161,202018,),0,0,0
9:21.178,202024,(,0,0,1
9:21.356,202088,N,0,0,0
9:21.428,202114,),0,0,1
9:21.542,202155,(,0,0,0
9:21.606,202178,p,0,0,0
9:21.703,202213,),0,0,0
9:21.719,202219,(,0,0,1
9:21.892,202281,N,0,0,0
9:21.958,202305,),0,0,1
9:22.056,202340,(,0,0,0
9:22.117,202362,p,0,0,0
9:22.219,202399,),0,0,0
9:22.233,202404,(,0,0,1
9:22.408,202467,N,0,0,0
9:22.489,202496,),0,0,1
9:22.578,202528,(,0,0,2
9:22.619,202543,t,0,0,0
9:22.667,202560,),0,0,2
9:23.072,202706,(,0,0,0
9:23.150,202734,p,0,0,0
9:23.231,202763,),0,0,0
9:23.247,202769,(,0,0,1
9:23.406,202826,N,0,0,0
9:23.458,202845,),0,0,1
9:23.581,202889,(,0,0,0
9:23.686,202927,p,0,0,0
9:23.731,202943,),0,0,0
9:23.747,202949,(,0,0,1
9:23.914,203009,N,0,0,0
9:23.978,203032,),0,0,1
9:24.044,203056,(,0,0,2
9:24.086,203071,t,0,0,0
9:24.144,203092,),0,0,2
9:24.278,203140,(,0,0,1
9:24.450,203202,N,0,0,0
9:24.650,203274,),0,0,1
9:24.661,203278,t,0,0,2
9:24.703,203293,),0,0,2
9:24.778,203320,(,0,0,1
9:24.953,203383,N,0,0,0
9:25.036,203413,),0,0,1
9:25.125,203445,(,0,0,0
9:25.178,203464,p,0,0,0
9:25.294,203506,),0,0,0
9:25.311,203512,(,0,0,1
9:25.489,203576,N,0,0,0
9:25.572,203606,),0,0,1
9:25.661,203638,(,0,0,0
9:25.750,203670,p,0,0,0
9:25.828,203698,),0,0,0
9:25.844,203704,(,0,0,1
9:26.019,203767,N,0,0,0
9:26.097,203795,),0,0,1
9:26.142,203811,(,0,0,2
9:26.189,203828,t,0,0,0
9:26.239,203846,),0,0,2
9:26.242,203847,(,0,0,0
9:26.286,203863,p,0,0,0
9:26.367,203892,),0,0,0
9:26.383,203898,(,0,0,1
9:26.575,203967,N,0,0,0
9:26.650,203994,),0,0,1
9:26.950,204102,(,0,0,1
9:27.139,204170,N,0,0,0
9:27.192,204189,),0,0,1
9:27.531,204311,(,0,0,1
9:27.714,204377,N,0,0,0
9:27.792,204405,),0,0,1
9:28.033,204492,N,0,0,0
9:28.036,204493,(,0,0,1
9:28.103,204517,),0,0,1
9:28.392,204621,(,0,0,0
9:28.444,204640,p,0,0,0
9:28.544,204676,),0,0,0
9:28.561,204682,(,0,0,1
9:28.733,204744,N,0,0,0
9:28.808,204771,),0,0,1
9:28.839,204782,(,0,0,2
9:28.881,204797,t,0,0,0
9:28.936,204817,),0,0,2
9:29.128,204886,(,0,0,1
9:29.208,204915,N,0,0,0
9:29.389,204980,(,0,0,0
9:29.408,204987,),0,0,1
9:29.472,205010,p,0,0,0
9:29.542,205035,),0,0,0
9:29.556,205040,(,0,0,1
9:29.719,205099,N,0,0,0
9:29.800,205128,),0,0,1
9:30.131,205247,(,0,0,1
9:30.219,205279,N,0,0,0
9:30.419,205351,),0,0,1
9:30.469,205369,(,0,0,2
9:30.475,205371,t,0,0,0
9:30.561,205402,),0,0,2
9:30.572,205406,(,0,0,1
9:30.736,205465,N,0,0,0
9:30.925,205533,),0,0,1
9:30.972,205550,(,0,0,2
9:31.019,205567,t,0,0,0
9:31.069,205585,),0,0,2
9:31.083,205590,(,0,0,1
9:31.267,205656,N,0,0,0
9:31.425,205713,),0,0,1
9:31.717,205818,(,0,0,1
9:31.828,205858,N,0,0,0
9:31.961,205906,),0,0,1
9:32.033,205932,(,0,0,2
9:32.092,205953,t,0,0,1
9:32.117,205962,),0,0,2
9:32.306,206030,(,0,0,1
9:32.417,206070,N,0,0,0
9:32.489,206096,),0,0,1
9:32.614,206141,(,0,0,2
9:32.658,206157,t,0,0,0
9:32.703,206173,),0,0,2
9:32.939,206258,(,0,0,1
9:32.983,206274,N,0,0,0
9:33.019,206287,),0,0,1
9:33.061,206302,(,0,0,2
9:33.192,206349,t,0,0,0
9:33.292,206385,),0,0,2
9:47.650,211554,(,0,0,1
9:47.672,211562,N,0,0,0
9:47.697,211571,),0,0,1
9:48.158,211737,(,0,0,2
9:48.189,211748,t,0,0,5
9:48.222,211760,t,0,0,5
9:48.356,211808,),0,0,2
10:50.531,234191,(,0,0,0
10:50.606,234218,p,0,0,0
10:50.678,234244,),0,0,0
10:50.747,234269,(,0,0,1
10:50.806,234290,N,0,0,0
10:50.875,234315,),0,0,1
10:51.525,234549,(,0,0,2
10:51.558,234561,t,0,0,0
10:51.592,234573,),0,0,2
10:56.736,236425,(,0,0,1
10:56.792,236445,N,0,0,0
10:56.867,236472,),0,0,1
10:57.442,236679,(,0,0,2
10:57.472,236690,t,0,0,5
10:57.511,236704,t,0,0,5
10:57.650,236754,),0,0,2
11:02.819,238615,(,0,0,1
11:02.847,238625,N,0,0,0
11:02.881,238637,),0,0,1
11:02.969,238669,(,0,0,2
11:03.050,238698,t,0,0,0
11:03.164,238739,),0,0,2
11:03.419,238831,(,0,0,1
11:03.442,238839,N,0,0,0
11:03.469,238849,),0,0,1
11:03.522,238868,(,0,0,2
11:03.619,238903,t,0,0,5
11:03.739,238946,t,0,0,5
11:03.794,238966,),0,0,2
11:03.967,239028,(,0,0,1
11:03.992,239037,N,0,0,0
11:04.017,239046,),0,0,1
11:04.072,239066,(,0,0,2
11:04.167,239100,t,0,0,0
11:04.261,239134,),0,0,2
11:04.489,239216,(,0,0,1
11:04.511,239224,N,0,0,0
11:04.536,239233,),0,0,1
11:04.597,239255,(,0,0,2
11:04.672,239282,t,0,0,0
11:04.761,239314,),0,0,2
11:04.983,239394,(,0,0,1
11:05.006,239402,N,0,0,0
11:05.031,239411,),0,0,1
11:05.039,239414,(,0,0,2
11:05.172,239462,t,0,0,0
11:05.261,239494,),0,0,2
11:05.492,239577,(,0,0,1
11:05.514,239585,N,0,0,0
11:05.539,239594,),0,0,1
11:05.603,239617,(,0,0,2
11:05.686,239647,t,0,0,0
11:05.775,239679,),0,0,2
11:06.019,239767,(,0,0,1
11:06.047,239777,N,0,0,0
11:06.072,239786,),0,0,1
11:06.078,239788,(,0,0,2
11:06.233,239844,t,0,0,0
11:06.325,239877,),0,0,2
11:06.569,239965,(,0,0,1
11:06.592,239973,N,0,0,0
11:06.619,239983,),0,0,1
11:06.625,239985,(,0,0,2
11:06.769,240037,t,0,0,5
11:06.886,240079,t,0,0,5
11:06.936,240097,),0,0,2
11:07.119,240163,(,0,0,1
11:07.144,240172,N,0,0,0
11:07.175,240183,),0,0,1
11:07.244,240208,(,0,0,2
11:07.333,240240,t,0,0,5
11:07.461,240286,t,0,0,5
11:07.508,240303,),0,0,2
11:07.683,240366,(,0,0,1
11:07.703,240373,N,0,0,0
11:07.728,240382,),0,0,1
11:07.783,240402,(,0,0,2
11:07.875,240435,t,0,0,5
11:07.994,240478,t,0,0,5
11:08.044,240496,),0,0,2
11:08.233,240564,(,0,0,1
11:08.258,240573,N,0,0,0
11:08.289,240584,),0,0,1
11:08.336,240601,(,0,0,2
11:08.444,240640,t,0,0,0
11:08.533,240672,),0,0,2
11:08.783,240762,(,0,0,1
11:08.806,240770,N,0,0,0
11:08.831,240779,),0,0,1
11:08.839,240782,(,0,0,2
11:08.994,240838,t,0,0,5
11:09.114,240881,t,0,0,5
11:09.175,240903,),0,0,2
11:09.353,240967,(,0,0,1
11:09.378,240976,N,0,0,0
11:09.403,240985,),0,0,1
11:09.461,241006,(,0,0,2
11:09.553,241039,t,0,0,0
11:09.653,241075,),0,0,2
11:09.889,241160,(,0,0,1
11:09.908,241167,N,0,0,0
11:09.936,241177,),0,0,1
11:09.942,241179,(,0,0,2
11:10.086,241231,t,0,0,5
11:10.222,241280,t,0,0,5
11:10.269,241297,),0,0,2
11:10.433,241356,(,0,0,1
11:10.453,241363,N,0,0,0
11:10.478,241372,),0,0,1
11:10.486,241375,(,0,0,2
11:10.622,241424,t,0,0,0
11:10.717,241458,),0,0,2
11:10.956,241544,(,0,0,1
11:10.981,241553,N,0,0,0
11:11.006,241562,),0,0,1
11:11.011,241564,(,0,0,2
11:11.156,241616,t,0,0,0
11:11.250,241650,),0,0,2
