Elapsedtime,sample,Type,Sub,Chan,Num
0:00.500,180,(,0,0,1
0:00.625,225,N,0,0,0
0:00.700,252,),0,0,1
0:00.739,266,(,0,0,2
0:00.861,310,t,0,0,0
0:01.000,360,),0,0,2
0:01.303,469,(,0,0,1
0:01.456,524,N,0,0,0
0:01.556,560,),0,0,1
0:01.597,575,(,0,0,2
0:01.725,621,t,0,0,0
0:01.864,671,),0,0,2
0:01.936,697,(,0,0,0
0:02.017,726,p,0,0,0
0:02.058,741,),0,0,0
0:02.164,779,(,0,0,1
0:02.322,836,N,0,0,0
0:02.422,872,),0,0,1
0:02.442,879,(,0,0,2
0:02.589,932,t,0,0,0
0:02.722,980,),0,0,2
0:02.897,1043,(,0,0,0
0:02.928,1054,p,0,0,0
0:02.961,1066,),0,0,0
0:03.075,1107,(,0,0,1
0:03.208,1155,N,0,0,0
0:03.314,1193,),0,0,1
0:03.358,1209,(,0,0,2
0:03.478,1252,t,0,0,0
0:03.608,1299,),0,0,2
0:03.908,1407,(,0,0,1
0:04.053,1459,N,0,0,0
0:04.125,1485,),0,0,1
0:04.217,1518,(,0,0,2
0:04.314,1553,t,0,0,0
0:04.428,1594,),0,0,2
0:04.756,1712,(,0,0,1
0:04.817,1734,N,0,0,0
0:04.942,1779,),0,0,1
0:05.128,1846,(,0,0,2
0:05.186,1867,t,0,0,1
0:05.231,1883,),0,0,2
0:05.406,1946,(,0,0,0
0:05.436,1957,p,0,0,0
0:05.464,1967,),0,0,0
0:05.586,2011,(,0,0,1
0:05.708,2055,N,0,0,0
0:05.803,2089,),0,0,1
0:05.869,2113,(,0,0,2
0:05.967,2148,t,0,0,0
0:06.072,2186,),0,0,2
0:06.397,2303,(,0,0,1
0:06.517,2346,N,0,0,0
0:06.639,2390,),0,0,1
0:06.672,2402,(,0,0,2
0:06.781,2441,t,0,0,0
0:06.894,2482,),0,0,2
0:07.239,2606,(,0,0,1
0:07.367,2652,N,0,0,0
0:07.469,2689,),0,0,1
0:07.525,2709,(,0,0,2
0:07.619,2743,t,0,0,0
0:07.728,2782,),0,0,2
0:07.889,2840,(,0,0,0
0:07.939,2858,p,0,0,0
0:07.969,2869,),0,0,0
0:08.064,2903,(,0,0,1
0:08.197,2951,N,0,0,0
0:08.300,2988,),0,0,1
0:08.356,3008,(,0,0,2
0:08.464,3047,t,0,0,0
0:08.578,3088,),0,0,2
0:08.919,3211,(,0,0,1
0:09.053,3259,N,0,0,0
0:09.167,3300,),0,0,1
0:09.217,3318,(,0,0,2
0:09.325,3357,t,0,0,0
0:09.444,3400,),0,0,2
0:09.758,3513,(,0,0,1
0:09.911,3568,N,0,0,0
0:10.011,3604,),0,0,1
0:10.044,3616,(,0,0,2
0:10.181,3665,t,0,0,0
0:10.311,3712,),0,0,2
0:10.414,3749,(,0,0,0
0:10.483,3774,p,0,0,0
0:10.519,3787,),0,0,0
0:10.644,3832,(,0,0,1
0:10.775,3879,N,0,0,0
0:10.875,3915,),0,0,1
0:10.908,3927,(,0,0,2
0:11.033,3972,t,0,0,0
0:11.153,4015,),0,0,2
0:11.472,4130,(,0,0,1
0:11.597,4175,N,0,0,0
0:11.700,4212,),0,0,1
0:11.744,4228,(,0,0,2
0:11.842,4263,t,0,0,0
0:11.958,4305,),0,0,2
0:12.047,4337,(,0,0,0
0:12.114,4361,p,0,0,0
0:12.128,4366,),0,0,0
0:12.233,4404,(,0,0,1
0:12.381,4457,N,0,0,0
0:12.469,4489,),0,0,1
0:12.528,4510,(,0,0,2
0:12.631,4547,t,0,0,0
0:12.742,4587,),0,0,2
0:13.050,4698,(,0,0,1
0:13.172,4742,N,0,0,0
0:13.272,4778,),0,0,1
0:13.303,4789,(,0,0,2
0:13.447,4841,t,0,0,0
0:13.558,4881,),0,0,2
0:13.572,4886,(,0,0,0
0:13.603,4897,p,0,0,0
0:13.678,4924,),0,0,0
0:13.892,5001,(,0,0,1
0:14.014,5045,N,0,0,0
0:14.117,5082,),0,0,1
0:14.161,5098,(,0,0,2
0:14.281,5141,t,0,0,0
0:14.406,5186,),0,0,2
0:14.656,5276,(,0,0,0
0:14.686,5287,p,0,0,0
0:14.728,5302,),0,0,0
0:14.744,5308,(,0,0,1
0:14.892,5361,N,0,0,0
0:14.997,5399,),0,0,1
0:15.042,5415,(,0,0,2
0:15.172,5462,t,0,0,0
0:15.303,5509,),0,0,2
0:15.672,5642,(,0,0,1
0:15.800,5688,N,0,0,0
0:15.906,5726,),0,0,1
0:15.936,5737,(,0,0,2
0:16.067,5784,t,0,0,0
0:16.194,5830,),0,0,2
0:16.289,5864,(,0,0,0
0:16.306,5870,p,0,0,0
0:16.336,5881,),0,0,0
0:16.511,5944,(,0,0,1
0:16.639,5990,N,0,0,0
0:16.736,6025,),0,0,1
0:16.764,6035,(,0,0,2
0:16.903,6085,t,0,0,0
0:17.028,6130,),0,0,2
0:17.097,6155,(,0,0,0
0:17.175,6183,p,0,0,0
0:17.222,6200,),0,0,0
0:17.319,6235,(,0,0,1
0:17.450,6282,N,0,0,0
0:17.547,6317,),0,0,1
0:17.589,6332,(,0,0,2
0:17.697,6371,t,0,0,0
0:17.825,6417,),0,0,2
0:18.131,6527,(,0,0,1
0:18.256,6572,N,0,0,0
0:18.350,6606,),0,0,1
0:18.397,6623,(,0,0,2
0:18.508,6663,t,0,0,0
0:18.628,6706,),0,0,2
0:18.828,6778,(,0,0,0
0:18.861,6790,p,0,0,0
0:18.917,6810,),0,0,0
0:18.975,6831,(,0,0,1
0:19.097,6875,N,0,0,0
0:19.197,6911,),0,0,1
0:19.247,6929,(,0,0,2
0:19.353,6967,t,0,0,0
0:19.475,7011,),0,0,2
0:19.481,7013,(,0,0,0
0:19.508,7023,p,0,0,0
0:19.531,7031,),0,0,0
0:19.775,7119,(,0,0,1
0:19.931,7175,N,0,0,0
0:20.042,7215,),0,0,1
0:20.092,7233,(,0,0,2
0:20.206,7274,t,0,0,0
0:20.325,7317,),0,0,2
0:20.664,7439,(,0,0,1
0:20.797,7487,N,0,0,0
0:20.908,7527,),0,0,1
0:20.947,7541,(,0,0,2
0:21.075,7587,t,0,0,0
0:21.206,7634,),0,0,2
0:21.531,7751,(,0,0,1
0:21.656,7796,N,0,0,0
0:21.758,7833,),0,0,1
0:21.808,7851,(,0,0,2
0:21.922,7892,t,0,0,0
0:22.053,7939,),0,0,2
0:22.164,7979,(,0,0,0
0:22.203,7993,p,0,0,0
0:22.219,7999,),0,0,0
0:22.350,8046,(,0,0,1
0:22.503,8101,N,0,0,0
0:22.603,8137,),0,0,1
0:22.619,8143,(,0,0,2
0:22.767,8196,t,0,0,0
0:22.889,8240,),0,0,2
0:23.208,8355,(,0,0,1
0:23.342,8403,N,0,0,0
0:23.442,8439,),0,0,1
0:23.481,8453,(,0,0,2
0:23.597,8495,t,0,0,0
0:23.725,8541,),0,0,2
0:24.003,8641,(,0,0,1
0:24.150,8694,N,0,0,0
0:24.250,8730,),0,0,1
0:24.289,8744,(,0,0,2
0:24.392,8781,t,0,0,0
0:24.508,8823,),0,0,2
0:24.697,8891,(,0,0,0
0:24.728,8902,p,0,0,0
0:24.756,8912,),0,0,0
0:24.819,8935,(,0,0,1
0:24.942,8979,N,0,0,0
0:25.039,9014,),0,0,1
0:25.072,9026,(,0,0,2
0:25.203,9073,t,0,0,0
0:25.328,9118,),0,0,2
0:25.331,9119,(,0,0,0
0:25.347,9125,p,0,0,0
0:25.369,9133,),0,0,0
0:25.625,9225,(,0,0,1
0:25.769,9277,N,0,0,0
0:25.864,9311,),0,0,1
0:25.908,9327,(,0,0,2
0:26.028,9370,t,0,0,0
0:26.144,9412,),0,0,2
0:26.475,9531,(,0,0,1
0:26.611,9580,N,0,0,0
0:26.722,9620,),0,0,1
0:26.772,9638,(,0,0,2
0:26.889,9680,t,0,0,0
0:27.025,9729,),0,0,2
0:27.394,9862,(,0,0,1
0:27.522,9908,N,0,0,0
0:27.619,9943,),0,0,1
0:27.658,9957,(,0,0,2
0:27.789,10004,t,0,0,0
0:27.919,10051,),0,0,2
0:28.239,10166,(,0,0,1
0:28.372,10214,N,0,0,0
0:28.469,10249,),0,0,1
0:28.522,10268,(,0,0,2
0:28.642,10311,t,0,0,0
0:28.767,10356,),0,0,2
0:28.869,10393,(,0,0,0
0:28.925,10413,p,0,0,0
0:28.950,10422,),0,0,0
0:29.061,10462,(,0,0,1
0:29.197,10511,N,0,0,0
0:29.289,10544,),0,0,1
0:29.317,10554,(,0,0,2
0:29.453,10603,t,0,0,0
0:29.572,10646,),0,0,2
0:29.844,10744,(,0,0,1
0:29.994,10798,N,0,0,0
0:30.089,10832,),0,0,1
0:30.144,10852,(,0,0,2
0:30.247,10889,t,0,0,0
0:30.375,10935,),0,0,2
0:30.686,11047,(,0,0,1
0:30.803,11089,N,0,0,0
0:30.897,11123,),0,0,1
0:30.939,11138,(,0,0,2
0:31.050,11178,t,0,0,0
0:31.167,11220,),0,0,2
0:31.342,11283,(,0,0,0
0:31.372,11294,p,0,0,0
0:31.447,11321,),0,0,0
0:31.497,11339,(,0,0,1
0:31.617,11382,N,0,0,0
0:31.714,11417,),0,0,1
0:31.742,11427,(,0,0,2
0:31.878,11476,t,0,0,0
0:32.003,11521,),0,0,2
0:32.356,11648,(,0,0,1
0:32.497,11699,N,0,0,0
0:32.547,11717,),0,0,1
0:32.553,11719,(,0,0,2
0:32.794,11806,t,0,0,0
0:32.919,11851,),0,0,2
0:33.258,11973,(,0,0,1
0:33.397,12023,N,0,0,0
0:33.506,12062,),0,0,1
0:33.567,12084,(,0,0,2
0:33.658,12117,t,0,0,0
0:33.786,12163,),0,0,2
0:34.103,12277,(,0,0,1
0:34.233,12324,N,0,0,0
0:34.328,12358,),0,0,1
0:34.378,12376,(,0,0,2
0:34.489,12416,t,0,0,0
0:34.619,12463,),0,0,2
0:34.939,12578,(,0,0,1
0:35.069,12625,N,0,0,0
0:35.167,12660,),0,0,1
0:35.236,12685,(,0,0,2
0:35.328,12718,t,0,0,0
0:35.453,12763,),0,0,2
0:35.592,12813,(,0,0,0
0:35.636,12829,p,0,0,0
0:35.664,12839,),0,0,0
0:35.761,12874,(,0,0,1
0:35.883,12918,N,0,0,0
0:35.978,12952,),0,0,1
0:36.014,12965,(,0,0,2
0:36.139,13010,t,0,0,0
0:36.258,13053,),0,0,2
0:36.261,13054,(,0,0,0
0:36.414,13109,p,0,0,0
0:36.439,13118,),0,0,0
0:36.553,13159,(,0,0,1
0:36.675,13203,N,0,0,0
0:36.769,13237,),0,0,1
0:36.819,13255,(,0,0,2
0:36.936,13297,t,0,0,0
0:37.069,13345,),0,0,2
0:37.356,13448,(,0,0,1
0:37.511,13504,N,0,0,0
0:37.611,13540,),0,0,1
0:37.619,13543,t,0,0,2
0:37.753,13591,),0,0,2
0:38.047,13697,(,0,0,1
0:38.100,13716,N,0,0,0
0:38.281,13781,),0,0,1
0:38.283,13782,t,0,0,2
0:38.486,13855,),0,0,2
0:38.864,13991,(,0,0,1
0:39.003,14041,N,0,0,0
0:39.106,14078,),0,0,1
0:39.128,14086,(,0,0,2
0:39.275,14139,t,0,0,0
0:39.428,14194,),0,0,2
0:39.739,14306,(,0,0,1
0:39.867,14352,N,0,0,0
0:39.969,14389,),0,0,1
0:40.025,14409,(,0,0,2
0:40.131,14447,t,0,0,0
0:40.264,14495,),0,0,2
0:40.375,14535,(,0,0,0
0:40.467,14568,p,0,0,0
0:40.497,14579,),0,0,0
0:40.578,14608,(,0,0,1
0:40.719,14659,N,0,0,0
0:40.811,14692,),0,0,1
0:40.844,14704,(,0,0,2
0:40.986,14755,t,0,0,0
0:41.097,14795,),0,0,2
0:41.278,14860,(,0,0,0
0:41.331,14879,p,0,0,0
0:41.394,14902,),0,0,0
0:41.431,14915,(,0,0,1
0:41.542,14955,N,0,0,0
0:41.611,14980,),0,0,1
0:41.683,15006,(,0,0,2
0:41.781,15041,t,0,0,0
0:41.900,15084,),0,0,2
0:42.208,15195,(,0,0,1
0:42.342,15243,N,0,0,0
0:42.439,15278,),0,0,1
0:42.492,15297,(,0,0,2
0:42.589,15332,t,0,0,0
0:42.703,15373,),0,0,2
0:42.792,15405,(,0,0,0
0:42.875,15435,p,0,0,0
0:42.900,15444,),0,0,0
0:43.003,15481,(,0,0,1
0:43.128,15526,N,0,0,0
0:43.247,15569,),0,0,1
0:43.267,15576,(,0,0,2
0:43.386,15619,t,0,0,0
0:43.500,15660,),0,0,2
0:43.514,15665,(,0,0,0
0:43.539,15674,p,0,0,0
0:43.581,15689,),0,0,0
0:43.833,15780,(,0,0,1
0:43.958,15825,N,0,0,0
0:44.058,15861,),0,0,1
0:44.128,15886,(,0,0,2
0:44.233,15924,t,0,0,0
0:44.369,15973,),0,0,2
0:44.706,16094,(,0,0,1
0:44.850,16146,N,0,0,0
0:44.950,16182,),0,0,1
0:44.972,16190,(,0,0,2
0:45.128,16246,t,0,0,0
0:45.256,16292,),0,0,2
0:45.469,16369,(,0,0,0
0:45.506,16382,p,0,0,0
0:45.578,16408,),0,0,0
0:45.611,16420,(,0,0,1
0:45.736,16465,N,0,0,0
0:45.836,16501,),0,0,1
0:45.892,16521,(,0,0,2
0:45.989,16556,t,0,0,0
0:46.125,16605,),0,0,2
0:46.408,16707,(,0,0,1
0:46.556,16760,N,0,0,0
0:46.658,16797,),0,0,1
0:46.706,16814,(,0,0,2
0:46.819,16855,t,0,0,0
0:46.933,16896,),0,0,2
0:47.244,17008,(,0,0,1
0:47.389,17060,N,0,0,0
0:47.486,17095,),0,0,1
0:47.547,17117,(,0,0,2
0:47.653,17155,t,0,0,0
0:47.764,17195,),0,0,2
0:48.069,17305,(,0,0,1
0:48.186,17347,N,0,0,0
0:48.286,17383,),0,0,1
0:48.328,17398,(,0,0,2
0:48.433,17436,t,0,0,0
0:48.556,17480,),0,0,2
0:48.656,17516,(,0,0,0
0:48.733,17544,p,0,0,0
0:48.783,17562,),0,0,0
0:48.864,17591,(,0,0,1
0:48.989,17636,N,0,0,0
0:49.092,17673,),0,0,1
0:49.122,17684,(,0,0,2
0:49.250,17730,t,0,0,0
0:49.383,17778,),0,0,2
0:49.478,17812,(,0,0,0
0:49.533,17832,p,0,0,0
0:49.581,17849,),0,0,0
0:49.711,17896,(,0,0,1
0:49.850,17946,N,0,0,0
0:49.947,17981,),0,0,1
0:49.994,17998,(,0,0,2
0:50.108,18039,t,0,0,0
0:50.239,18086,),0,0,2
0:50.350,18126,(,0,0,0
0:50.442,18159,p,0,0,0
0:50.489,18176,),0,0,0
0:50.561,18202,(,0,0,1
0:50.694,18250,N,0,0,0
0:50.792,18285,),0,0,1
0:50.844,18304,(,0,0,2
0:50.961,18346,t,0,0,0
0:51.092,18393,),0,0,2
0:51.267,18456,(,0,0,0
0:51.311,18472,p,0,0,0
0:51.342,18483,),0,0,0
0:51.428,18514,(,0,0,1
0:51.547,18557,N,0,0,0
0:51.653,18595,),0,0,1
0:51.692,18609,(,0,0,2
0:51.819,18655,t,0,0,0
0:51.950,18702,),0,0,2
0:52.281,18821,(,0,0,1
0:52.417,18870,N,0,0,0
0:52.522,18908,),0,0,1
0:52.567,18924,(,0,0,2
0:52.675,18963,t,0,0,0
0:52.800,19008,),0,0,2
0:53.125,19125,(,0,0,1
0:53.250,19170,N,0,0,0
0:53.344,19204,),0,0,1
0:53.375,19215,(,0,0,2
0:53.503,19261,t,0,0,0
0:53.622,19304,),0,0,2
0:53.783,19362,(,0,0,0
0:53.814,19373,p,0,0,0
0:53.847,19385,),0,0,0
0:53.942,19419,(,0,0,1
0:54.058,19461,N,0,0,0
0:54.164,19499,),0,0,1
0:54.211,19516,(,0,0,2
0:54.311,19552,t,0,0,0
0:54.439,19598,),0,0,2
0:54.453,19603,(,0,0,0
0:54.469,19609,p,0,0,0
0:54.622,19664,),0,0,0
0:54.717,19698,(,0,0,1
0:54.847,19745,N,0,0,0
0:54.947,19781,),0,0,1
0:54.992,19797,(,0,0,2
0:55.108,19839,t,0,0,0
0:55.225,19881,),0,0,2
0:55.536,19993,(,0,0,1
0:55.664,20039,N,0,0,0
0:55.714,20057,),0,0,1
0:55.819,20095,(,0,0,2
0:55.936,20137,t,0,0,0
0:56.058,20181,),0,0,2
0:56.397,20303,(,0,0,1
0:56.517,20346,N,0,0,0
0:56.625,20385,),0,0,1
0:56.675,20403,(,0,0,2
0:56.789,20444,t,0,0,0
0:56.925,20493,),0,0,2
0:57.267,20616,(,0,0,1
0:57.403,20665,N,0,0,0
0:57.508,20703,),0,0,1
0:57.569,20725,(,0,0,2
0:57.672,20762,t,0,0,0
0:57.806,20810,),0,0,2
0:57.956,20864,(,0,0,0
0:58.008,20883,p,0,0,0
0:58.047,20897,),0,0,0
0:58.119,20923,(,0,0,1
0:58.269,20977,N,0,0,0
0:58.367,21012,),0,0,1
0:58.411,21028,(,0,0,2
0:58.531,21071,t,0,0,0
0:58.650,21114,),0,0,2
0:58.758,21153,(,0,0,0
0:58.889,21200,p,0,0,0
0:58.925,21213,),0,0,0
0:58.972,21230,(,0,0,1
0:59.100,21276,N,0,0,0
0:59.197,21311,),0,0,1
0:59.242,21327,(,0,0,2
0:59.356,21368,t,0,0,0
0:59.486,21415,),0,0,2
0:59.489,21416,(,0,0,0
0:59.503,21421,p,0,0,0
0:59.539,21434,),0,0,0
0:59.781,21521,(,0,0,1
0:59.903,21565,N,0,0,0
1:00.000,21600,),0,0,1
1:00.053,21619,(,0,0,2
1:00.144,21652,t,0,0,0
1:00.261,21694,),0,0,2
1:00.564,21803,(,0,0,1
1:00.683,21846,N,0,0,0
1:00.781,21881,),0,0,1
1:00.831,21899,(,0,0,2
1:00.947,21941,t,0,0,0
1:01.064,21983,),0,0,2
1:01.197,22031,(,0,0,0
1:01.269,22057,p,0,0,0
1:01.325,22077,),0,0,0
1:01.414,22109,(,0,0,1
1:01.547,22157,N,0,0,0
1:01.653,22195,),0,0,1
1:01.706,22214,(,0,0,2
1:01.817,22254,t,0,0,0
1:01.950,22302,),0,0,2
1:02.033,22332,(,0,0,0
1:02.117,22362,p,0,0,0
1:02.161,22378,),0,0,0
1:02.272,22418,(,0,0,1
1:02.411,22468,N,0,0,0
1:02.525,22509,),0,0,1
1:02.564,22523,(,0,0,2
1:02.692,22569,t,0,0,0
1:02.833,22620,),0,0,2
1:03.139,22730,(,0,0,1
1:03.292,22785,N,0,0,0
1:03.389,22820,),0,0,1
1:03.433,22836,(,0,0,2
1:03.558,22881,t,0,0,0
1:03.694,22930,),0,0,2
1:03.992,23037,(,0,0,1
1:04.144,23092,N,0,0,0
1:04.244,23128,),0,0,1
1:04.281,23141,(,0,0,2
1:04.417,23190,t,0,0,0
1:04.544,23236,),0,0,2
1:04.867,23352,(,0,0,1
1:04.989,23396,N,0,0,0
1:05.092,23433,),0,0,1
1:05.119,23443,(,0,0,2
1:05.242,23487,t,0,0,0
1:05.361,23530,),0,0,2
1:05.683,23646,(,0,0,1
1:05.803,23689,N,0,0,0
1:05.897,23723,),0,0,1
1:05.942,23739,(,0,0,2
1:06.053,23779,t,0,0,0
1:06.169,23821,),0,0,2
1:06.175,23823,(,0,0,0
1:06.269,23857,p,0,0,0
1:06.350,23886,),0,0,0
1:06.472,23930,(,0,0,1
1:06.611,23980,N,0,0,0
1:06.708,24015,),0,0,1
1:06.736,24025,(,0,0,2
1:06.886,24079,t,0,0,0
1:07.000,24120,),0,0,2
1:07.328,24238,(,0,0,1
1:07.442,24279,N,0,0,0
1:07.514,24305,),0,0,1
1:07.600,24336,(,0,0,2
1:07.692,24369,t,0,0,0
1:07.806,24410,),0,0,2
1:07.939,24458,(,0,0,0
1:07.969,24469,p,0,0,0
1:08.022,24488,),0,0,0
1:08.153,24535,(,0,0,1
1:08.275,24579,N,0,0,0
1:08.381,24617,),0,0,1
1:08.422,24632,(,0,0,2
1:08.539,24674,t,0,0,0
1:08.653,24715,),0,0,2
1:09.000,24840,(,0,0,1
1:09.136,24889,N,0,0,0
1:09.236,24925,),0,0,1
1:09.294,24946,(,0,0,2
1:09.411,24988,t,0,0,0
1:09.550,25038,),0,0,2
1:09.622,25064,(,0,0,0
1:09.683,25086,p,0,0,0
1:09.769,25117,),0,0,0
1:09.878,25156,(,0,0,1
1:10.006,25202,N,0,0,0
1:10.117,25242,),0,0,1
1:10.172,25262,(,0,0,2
1:10.281,25301,t,0,0,0
1:10.400,25344,),0,0,2
1:10.733,25464,(,0,0,1
1:10.856,25508,N,0,0,0
1:10.958,25545,),0,0,1
1:11.017,25566,(,0,0,2
1:11.122,25604,t,0,0,0
1:11.242,25647,),0,0,2
1:11.561,25762,(,0,0,1
1:11.667,25800,N,0,0,0
1:11.733,25824,),0,0,1
1:11.808,25851,(,0,0,2
1:11.897,25883,t,0,0,0
1:12.019,25927,),0,0,2
1:12.339,26042,(,0,0,1
1:12.450,26082,N,0,0,0
1:12.514,26105,),0,0,1
1:12.589,26132,(,0,0,2
1:12.686,26167,t,0,0,0
1:12.808,26211,),0,0,2
1:13.156,26336,(,0,0,1
1:13.283,26382,N,0,0,0
1:13.383,26418,),0,0,1
1:13.433,26436,(,0,0,2
1:13.542,26475,t,0,0,0
1:13.658,26517,),0,0,2
1:13.975,26631,(,0,0,1
1:14.108,26679,N,0,0,0
1:14.203,26713,),0,0,1
1:14.267,26736,(,0,0,2
1:14.386,26779,t,0,0,0
1:14.500,26820,),0,0,2
1:14.828,26938,(,0,0,1
1:14.983,26994,N,0,0,0
1:15.086,27031,),0,0,1
1:15.111,27040,(,0,0,2
1:15.261,27094,t,0,0,0
1:15.383,27138,),0,0,2
1:15.733,27264,(,0,0,1
1:15.856,27308,N,0,0,0
1:15.928,27334,),0,0,1
1:16.014,27365,(,0,0,2
1:16.114,27401,t,0,0,0
1:16.236,27445,),0,0,2
1:16.336,27481,(,0,0,0
1:16.403,27505,p,0,0,0
1:16.436,27517,),0,0,0
1:16.550,27558,(,0,0,1
1:16.706,27614,N,0,0,0
1:16.786,27643,),0,0,1
1:16.836,27661,(,0,0,2
1:16.958,27705,t,0,0,0
1:17.081,27749,),0,0,2
1:17.386,27859,(,0,0,1
1:17.508,27903,N,0,0,0
1:17.608,27939,),0,0,1
1:17.664,27959,(,0,0,2
1:17.758,27993,t,0,0,0
1:17.883,28038,),0,0,2
1:18.192,28149,(,0,0,1
1:18.322,28196,N,0,0,0
1:18.411,28228,),0,0,1
1:18.472,28250,(,0,0,2
1:18.575,28287,t,0,0,0
1:18.683,28326,),0,0,2
1:19.008,28443,(,0,0,1
1:19.136,28489,N,0,0,0
1:19.200,28512,),0,0,1
1:19.272,28538,(,0,0,2
1:19.372,28574,t,0,0,0
1:19.506,28622,),0,0,2
1:19.614,28661,(,0,0,0
1:19.678,28684,p,0,0,0
1:19.758,28713,),0,0,0
1:19.831,28739,(,0,0,1
1:19.914,28769,N,0,0,0
1:19.947,28781,),0,0,1
1:20.056,28820,t,0,0,3
1:20.192,28869,),0,0,2
1:20.203,28873,(,0,0,1
1:20.486,28975,N,0,0,0
1:20.528,28990,),0,0,1
1:20.597,29015,(,0,0,2
1:20.731,29063,t,0,0,1
1:20.936,29137,),0,0,2
1:21.331,29279,(,0,0,1
1:21.378,29296,N,0,0,0
1:21.456,29324,),0,0,1
1:21.558,29361,t,0,0,3
1:21.722,29420,),0,0,2
1:21.933,29496,(,0,0,1
1:22.044,29536,N,0,0,0
1:22.086,29551,),0,0,1
1:22.156,29576,(,0,0,2
1:22.281,29621,t,0,0,1
1:22.469,29689,),0,0,2
1:22.725,29781,(,0,0,0
1:22.781,29801,p,0,0,0
1:22.847,29825,),0,0,0
1:22.872,29834,(,0,0,1
1:22.994,29878,N,0,0,0
1:23.097,29915,),0,0,1
1:23.167,29940,(,0,0,2
1:23.250,29970,t,0,0,0
1:23.422,30032,),0,0,2
1:23.458,30045,(,0,0,0
1:23.564,30083,p,0,0,0
1:23.597,30095,),0,0,0
1:23.692,30129,(,0,0,1
1:23.817,30174,N,0,0,0
1:23.922,30212,),0,0,1
1:23.936,30217,(,0,0,2
1:24.069,30265,t,0,0,0
1:24.186,30307,),0,0,2
1:24.492,30417,(,0,0,1
1:24.611,30460,N,0,0,0
1:24.708,30495,),0,0,1
1:24.722,30500,(,0,0,2
1:24.861,30550,t,0,0,0
1:24.981,30593,),0,0,2
1:25.114,30641,(,0,0,0
1:25.150,30654,p,0,0,0
1:25.178,30664,),0,0,0
1:25.297,30707,(,0,0,1
1:25.436,30757,N,0,0,0
1:25.533,30792,),0,0,1
1:25.583,30810,(,0,0,2
1:25.686,30847,t,0,0,0
1:25.808,30891,),0,0,2
1:25.911,30928,(,0,0,0
1:25.992,30957,p,0,0,0
1:26.033,30972,),0,0,0
1:26.089,30992,(,0,0,1
1:26.167,31020,N,0,0,0
1:26.256,31052,),0,0,1
1:26.361,31090,t,0,0,3
1:26.486,31135,),0,0,2
1:26.497,31139,(,0,0,1
1:26.778,31240,N,0,0,0
1:26.822,31256,),0,0,1
1:26.908,31287,(,0,0,2
1:27.025,31329,t,0,0,1
1:27.256,31412,),0,0,2
1:27.661,31558,(,0,0,1
1:27.708,31575,N,0,0,0
1:27.800,31608,),0,0,1
1:27.961,31666,(,0,0,2
1:28.056,31700,t,0,0,1
1:28.189,31748,),0,0,2
1:28.281,31781,(,0,0,1
1:28.394,31822,N,0,0,0
1:28.436,31837,),0,0,1
1:28.506,31862,(,0,0,2
1:28.636,31909,t,0,0,1
1:28.864,31991,),0,0,2
1:29.200,32112,(,0,0,1
1:29.244,32128,N,0,0,0
1:29.333,32160,),0,0,1
1:29.492,32217,(,0,0,2
1:29.583,32250,t,0,0,1
1:29.692,32289,),0,0,2
1:29.797,32327,(,0,0,1
1:29.900,32364,N,0,0,0
1:29.939,32378,),0,0,1
1:29.997,32399,(,0,0,2
1:30.122,32444,t,0,0,1
1:30.325,32517,),0,0,2
1:30.689,32648,(,0,0,1
1:30.758,32673,N,0,0,0
1:30.789,32684,),0,0,1
1:30.942,32739,(,0,0,2
1:31.028,32770,t,0,0,1
1:31.169,32821,),0,0,2
1:31.258,32853,(,0,0,1
1:31.381,32897,N,0,0,0
1:31.422,32912,),0,0,1
1:31.472,32930,(,0,0,2
1:31.622,32984,t,0,0,1
1:31.844,33064,),0,0,2
1:31.903,33085,(,0,0,0
1:31.958,33105,p,0,0,0
1:31.989,33116,),0,0,0
1:32.211,33196,(,0,0,1
1:32.336,33241,N,0,0,0
1:32.439,33278,),0,0,1
1:32.478,33292,(,0,0,2
1:32.606,33338,t,0,0,0
1:32.781,33401,),0,0,2
1:33.089,33512,(,0,0,1
1:33.228,33562,N,0,0,0
1:33.342,33603,),0,0,1
1:33.381,33617,(,0,0,2
1:33.489,33656,t,0,0,0
1:33.625,33705,),0,0,2
1:33.711,33736,(,0,0,0
1:33.781,33761,p,0,0,0
1:33.819,33775,),0,0,0
1:33.925,33813,(,0,0,1
1:34.072,33866,N,0,0,0
1:34.178,33904,),0,0,1
1:34.206,33914,(,0,0,2
1:34.328,33958,t,0,0,0
1:34.453,34003,),0,0,2
1:34.783,34122,(,0,0,1
1:34.908,34167,N,0,0,0
1:35.017,34206,),0,0,1
1:35.061,34222,(,0,0,2
1:35.167,34260,t,0,0,0
1:35.283,34302,),0,0,2
1:35.458,34365,(,0,0,0
1:35.506,34382,p,0,0,0
1:35.544,34396,),0,0,0
1:35.622,34424,(,0,0,1
1:35.733,34464,N,0,0,0
1:35.828,34498,),0,0,1
1:35.864,34511,(,0,0,2
1:35.981,34553,t,0,0,0
1:36.111,34600,),0,0,2
1:36.139,34610,(,0,0,0
1:36.164,34619,p,0,0,0
1:36.200,34632,),0,0,0
1:36.400,34704,(,0,0,1
1:36.531,34751,N,0,0,0
1:36.642,34791,),0,0,1
1:36.672,34802,(,0,0,2
1:36.778,34840,t,0,0,0
1:36.919,34891,),0,0,2
1:37.042,34935,(,0,0,0
1:37.092,34953,p,0,0,0
1:37.153,34975,),0,0,0
1:37.225,35001,(,0,0,1
1:37.353,35047,N,0,0,0
1:37.453,35083,),0,0,1
1:37.500,35100,(,0,0,2
1:37.606,35138,t,0,0,0
1:37.708,35175,),0,0,2
1:37.753,35191,(,0,0,0
1:37.822,35216,p,0,0,0
1:37.844,35224,),0,0,0
1:38.039,35294,(,0,0,1
1:38.164,35339,N,0,0,0
1:38.267,35376,),0,0,1
1:38.300,35388,(,0,0,2
1:38.422,35432,t,0,0,0
1:38.547,35477,),0,0,2
1:38.875,35595,(,0,0,1
1:39.006,35642,N,0,0,0
1:39.108,35679,),0,0,1
1:39.189,35708,(,0,0,2
1:39.283,35742,t,0,0,0
1:39.419,35791,),0,0,2
1:39.533,35832,(,0,0,0
1:39.617,35862,p,0,0,0
1:39.661,35878,),0,0,0
1:39.739,35906,(,0,0,1
1:39.864,35951,N,0,0,0
1:39.967,35988,),0,0,1
1:40.022,36008,(,0,0,2
1:40.136,36049,t,0,0,0
1:40.264,36095,),0,0,2
1:40.603,36217,(,0,0,1
1:40.725,36261,N,0,0,0
1:40.822,36296,),0,0,1
1:40.864,36311,(,0,0,2
1:40.983,36354,t,0,0,0
1:41.103,36397,),0,0,2
1:41.419,36511,(,0,0,1
1:41.553,36559,N,0,0,0
1:41.642,36591,),0,0,1
1:41.653,36595,(,0,0,2
1:41.797,36647,t,0,0,0
1:41.903,36685,),0,0,2
1:42.222,36800,(,0,0,1
1:42.350,36846,N,0,0,0
1:42.433,36876,),0,0,1
1:42.492,36897,(,0,0,2
1:42.603,36937,t,0,0,0
1:42.711,36976,),0,0,2
1:43.019,37087,(,0,0,1
1:43.136,37129,N,0,0,0
1:43.247,37169,),0,0,1
1:43.278,37180,(,0,0,2
1:43.392,37221,t,0,0,0
1:43.503,37261,),0,0,2
1:43.828,37378,(,0,0,1
1:43.956,37424,N,0,0,0
1:44.067,37464,),0,0,1
1:44.125,37485,(,0,0,2
1:44.228,37522,t,0,0,0
1:44.350,37566,),0,0,2
1:44.728,37702,(,0,0,1
1:44.858,37749,N,0,0,0
1:44.961,37786,),0,0,1
1:45.014,37805,(,0,0,2
1:45.131,37847,t,0,0,0
1:45.267,37896,),0,0,2
1:45.361,37930,(,0,0,0
1:45.442,37959,p,0,0,0
1:45.494,37978,),0,0,0
1:45.597,38015,(,0,0,1
1:45.733,38064,N,0,0,0
1:45.836,38101,),0,0,1
1:45.886,38119,(,0,0,2
1:45.994,38158,t,0,0,0
1:46.108,38199,),0,0,2
1:46.347,38285,(,0,0,0
1:46.375,38295,p,0,0,0
1:46.414,38309,),0,0,0
1:46.436,38317,(,0,0,1
1:46.561,38362,N,0,0,0
1:46.656,38396,),0,0,1
1:46.692,38409,(,0,0,2
1:46.831,38459,t,0,0,0
1:46.953,38503,),0,0,2
1:47.081,38549,(,0,0,0
1:47.114,38561,p,0,0,0
1:47.142,38571,),0,0,0
1:47.267,38616,(,0,0,1
1:47.397,38663,N,0,0,0
1:47.500,38700,),0,0,1
1:47.547,38717,(,0,0,2
1:47.653,38755,t,0,0,0
1:47.758,38793,),0,0,2
1:48.067,38904,(,0,0,1
1:48.194,38950,N,0,0,0
1:48.286,38983,),0,0,1
1:48.333,39000,(,0,0,2
1:48.436,39037,t,0,0,0
1:48.544,39076,),0,0,2
1:48.883,39198,(,0,0,1
1:49.008,39243,N,0,0,0
1:49.114,39281,),0,0,1
1:49.158,39297,(,0,0,2
1:49.269,39337,t,0,0,0
1:49.375,39375,),0,0,2
1:49.725,39501,(,0,0,1
1:49.861,39550,N,0,0,0
1:49.953,39583,),0,0,1
1:50.028,39610,(,0,0,2
1:50.128,39646,t,0,0,0
1:50.247,39689,),0,0,2
1:50.575,39807,(,0,0,1
1:50.711,39856,N,0,0,0
1:50.800,39888,),0,0,1
1:50.878,39916,(,0,0,2
1:50.986,39955,t,0,0,0
1:51.125,40005,),0,0,2
1:51.450,40122,(,0,0,1
1:51.583,40170,N,0,0,0
1:51.681,40205,),0,0,1
1:51.750,40230,(,0,0,2
1:51.847,40265,t,0,0,0
1:51.975,40311,),0,0,2
1:52.122,40364,(,0,0,0
1:52.239,40406,p,0,0,0
1:52.275,40419,),0,0,0
1:52.308,40431,(,0,0,1
1:52.436,40477,N,0,0,0
1:52.533,40512,),0,0,1
1:52.581,40529,(,0,0,2
1:52.700,40572,t,0,0,0
1:52.803,40609,),0,0,2
1:52.944,40660,(,0,0,1
1:53.056,40700,N,0,0,0
1:53.097,40715,),0,0,1
1:53.158,40737,(,0,0,2
1:53.297,40787,t,0,0,1
1:53.511,40864,),0,0,2
1:53.539,40874,(,0,0,0
1:53.622,40904,p,0,0,0
1:53.681,40925,),0,0,0
1:53.831,40979,(,0,0,1
1:53.894,41002,N,0,0,0
1:53.989,41036,),0,0,1
1:54.147,41093,(,0,0,2
1:54.233,41124,t,0,0,1
1:54.367,41172,),0,0,2
1:54.478,41212,(,0,0,0
1:54.508,41223,p,0,0,0
1:54.575,41247,),0,0,0
1:54.664,41279,(,0,0,1
1:54.783,41322,N,0,0,0
1:54.875,41355,),0,0,1
1:54.919,41371,(,0,0,2
1:55.022,41408,t,0,0,0
1:55.131,41447,),0,0,2
1:55.464,41567,(,0,0,1
1:55.592,41613,N,0,0,0
1:55.692,41649,),0,0,1
1:55.758,41673,(,0,0,2
1:55.844,41704,t,0,0,0
1:55.961,41746,),0,0,2
1:56.328,41878,(,0,0,1
1:56.456,41924,N,0,0,0
1:56.564,41963,),0,0,1
1:56.628,41986,(,0,0,2
1:56.725,42021,t,0,0,0
1:56.842,42063,),0,0,2
1:57.031,42131,(,0,0,0
1:57.067,42144,p,0,0,0
1:57.142,42171,),0,0,0
1:57.200,42192,(,0,0,1
1:57.333,42240,N,0,0,0
1:57.378,42256,),0,0,1
1:57.511,42304,(,0,0,2
1:57.600,42336,t,0,0,0
1:57.719,42379,),0,0,2
1:57.947,42461,(,0,0,0
1:57.972,42470,p,0,0,0
1:58.022,42488,),0,0,0
1:58.044,42496,(,0,0,1
1:58.186,42547,N,0,0,0
1:58.289,42584,),0,0,1
1:58.356,42608,(,0,0,2
1:58.461,42646,t,0,0,0
1:58.583,42690,),0,0,2
1:58.717,42738,(,0,0,0
1:58.769,42757,p,0,0,0
1:58.806,42770,),0,0,0
1:58.919,42811,(,0,0,1
1:59.042,42855,N,0,0,0
1:59.133,42888,),0,0,1
1:59.153,42895,(,0,0,2
1:59.297,42947,t,0,0,0
1:59.408,42987,),0,0,2
1:59.736,43105,(,0,0,1
1:59.850,43146,N,0,0,0
1:59.944,43180,),0,0,1
1:59.981,43193,(,0,0,2
2:00.092,43233,t,0,0,0
2:00.206,43274,),0,0,2
2:00.208,43275,(,0,0,0
2:00.239,43286,p,0,0,0
2:00.264,43295,),0,0,0
2:00.497,43379,(,0,0,1
2:00.628,43426,N,0,0,0
2:00.733,43464,),0,0,1
2:00.792,43485,(,0,0,2
2:00.886,43519,t,0,0,0
2:01.014,43565,),0,0,2
2:01.144,43612,(,0,0,0
2:01.183,43626,p,0,0,0
2:01.233,43644,),0,0,0
2:01.325,43677,(,0,0,1
2:01.478,43732,N,0,0,0
2:01.592,43773,),0,0,1
2:01.642,43791,(,0,0,2
2:01.761,43834,t,0,0,0
2:01.878,43876,),0,0,2
2:02.239,44006,(,0,0,1
2:02.378,44056,N,0,0,0
2:02.478,44092,),0,0,1
2:02.539,44114,(,0,0,2
2:02.653,44155,t,0,0,0
2:02.803,44209,),0,0,2
2:03.161,44338,(,0,0,1
2:03.292,44385,N,0,0,0
2:03.386,44419,),0,0,1
2:03.456,44444,(,0,0,2
2:03.564,44483,t,0,0,0
2:03.678,44524,),0,0,2
2:04.000,44640,(,0,0,1
2:04.147,44693,N,0,0,0
2:04.239,44726,),0,0,1
2:04.289,44744,(,0,0,2
2:04.408,44787,t,0,0,0
2:04.528,44830,),0,0,2
2:04.631,44867,(,0,0,0
2:04.722,44900,p,0,0,0
2:04.753,44911,),0,0,0
2:04.856,44948,(,0,0,1
2:04.992,44997,N,0,0,0
2:05.092,45033,),0,0,1
2:05.131,45047,(,0,0,2
2:05.244,45088,t,0,0,0
2:05.356,45128,),0,0,2
2:05.656,45236,(,0,0,1
2:05.792,45285,N,0,0,0
2:05.889,45320,),0,0,1
2:05.928,45334,(,0,0,2
2:06.047,45377,t,0,0,0
2:06.175,45423,),0,0,2
2:06.481,45533,(,0,0,1
2:06.600,45576,N,0,0,0
2:06.647,45593,),0,0,1
2:06.764,45635,(,0,0,2
2:06.875,45675,t,0,0,0
2:06.997,45719,),0,0,2
2:07.219,45799,(,0,0,0
2:07.247,45809,p,0,0,0
2:07.308,45831,),0,0,0
2:07.342,45843,(,0,0,1
2:07.469,45889,N,0,0,0
2:07.581,45929,),0,0,1
2:07.594,45934,(,0,0,2
2:07.725,45981,t,0,0,0
2:07.858,46029,),0,0,2
2:08.200,46152,(,0,0,1
2:08.339,46202,N,0,0,0
2:08.439,46238,),0,0,1
2:08.489,46256,(,0,0,2
2:08.606,46298,t,0,0,0
2:08.736,46345,),0,0,2
2:09.075,46467,(,0,0,1
2:09.211,46516,N,0,0,0
2:09.314,46553,),0,0,1
2:09.364,46571,(,0,0,2
2:09.489,46616,t,0,0,0
2:09.608,46659,),0,0,2
2:09.739,46706,(,0,0,0
2:09.806,46730,p,0,0,0
2:09.836,46741,),0,0,0
2:09.917,46770,(,0,0,1
2:10.081,46829,N,0,0,0
2:10.181,46865,),0,0,1
2:10.231,46883,(,0,0,2
2:10.353,46927,t,0,0,0
2:10.478,46972,),0,0,2
2:10.811,47092,(,0,0,1
2:10.939,47138,N,0,0,0
2:11.050,47178,),0,0,1
2:11.089,47192,(,0,0,2
2:11.192,47229,t,0,0,0
2:11.331,47279,),0,0,2
2:11.422,47312,(,0,0,0
2:11.481,47333,p,0,0,0
2:11.511,47344,),0,0,0
2:11.606,47378,(,0,0,1
2:11.758,47433,N,0,0,0
2:11.850,47466,),0,0,1
2:11.908,47487,(,0,0,2
2:11.994,47518,t,0,0,0
2:12.122,47564,),0,0,2
2:12.217,47598,(,0,0,0
2:12.250,47610,p,0,0,0
2:12.281,47621,),0,0,0
2:12.417,47670,(,0,0,1
2:12.531,47711,N,0,0,0
2:12.631,47747,),0,0,1
2:12.644,47752,(,0,0,2
2:12.775,47799,t,0,0,0
2:12.883,47838,),0,0,2
2:12.950,47862,(,0,0,0
2:13.025,47889,p,0,0,0
2:13.053,47899,),0,0,0
2:13.186,47947,(,0,0,1
2:13.333,48000,N,0,0,0
2:13.433,48036,),0,0,1
2:13.503,48061,(,0,0,2
2:13.597,48095,t,0,0,0
2:13.717,48138,),0,0,2
2:14.042,48255,(,0,0,1
2:14.169,48301,N,0,0,0
2:14.269,48337,),0,0,1
2:14.303,48349,(,0,0,2
2:14.439,48398,t,0,0,0
2:14.586,48451,),0,0,2
2:14.703,48493,(,0,0,0
2:14.742,48507,p,0,0,0
2:14.767,48516,),0,0,0
2:14.889,48560,(,0,0,1
2:15.044,48616,N,0,0,0
2:15.147,48653,),0,0,1
2:15.208,48675,(,0,0,2
2:15.322,48716,t,0,0,0
2:15.456,48764,),0,0,2
2:15.806,48890,(,0,0,1
2:15.933,48936,N,0,0,0
2:16.039,48974,),0,0,1
2:16.083,48990,(,0,0,2
2:16.197,49031,t,0,0,0
2:16.319,49075,),0,0,2
2:16.639,49190,(,0,0,1
2:16.783,49242,N,0,0,0
2:16.883,49278,),0,0,1
2:16.925,49293,(,0,0,2
2:17.036,49333,t,0,0,0
2:17.156,49376,),0,0,2
2:17.225,49401,(,0,0,0
2:17.281,49421,p,0,0,0
2:17.311,49432,),0,0,0
2:17.464,49487,(,0,0,1
2:17.586,49531,N,0,0,0
2:17.675,49563,),0,0,1
2:17.719,49579,(,0,0,2
2:17.833,49620,t,0,0,0
2:17.947,49661,),0,0,2
2:18.269,49777,(,0,0,1
2:18.394,49822,N,0,0,0
2:18.489,49856,),0,0,1
2:18.517,49866,(,0,0,2
2:18.650,49914,t,0,0,0
2:18.781,49961,),0,0,2
2:19.089,50072,(,0,0,1
2:19.231,50123,N,0,0,0
2:19.328,50158,),0,0,1
2:19.367,50172,(,0,0,2
2:19.483,50214,t,0,0,0
2:19.597,50255,),0,0,2
2:19.672,50282,(,0,0,0
2:19.736,50305,p,0,0,0
2:19.758,50313,),0,0,0
2:19.947,50381,(,0,0,1
2:20.083,50430,N,0,0,0
2:20.181,50465,),0,0,1
2:20.231,50483,(,0,0,2
2:20.350,50526,t,0,0,0
2:20.467,50568,),0,0,2
2:20.792,50685,(,0,0,1
2:20.947,50741,N,0,0,0
2:21.050,50778,),0,0,1
2:21.103,50797,(,0,0,2
2:21.222,50840,t,0,0,0
2:21.361,50890,),0,0,2
2:21.433,50916,(,0,0,0
2:21.533,50952,p,0,0,0
2:21.564,50963,),0,0,0
2:21.661,50998,(,0,0,1
2:21.803,51049,N,0,0,0
2:21.914,51089,),0,0,1
2:21.964,51107,(,0,0,2
2:22.067,51144,t,0,0,0
2:22.194,51190,),0,0,2
2:22.264,51215,(,0,0,0
2:22.294,51226,p,0,0,0
2:22.364,51251,),0,0,0
2:22.514,51305,(,0,0,1
2:22.639,51350,N,0,0,0
2:22.736,51385,),0,0,1
2:22.786,51403,(,0,0,2
2:22.903,51445,t,0,0,0
2:23.022,51488,),0,0,2
2:23.358,51609,(,0,0,1
2:23.481,51653,N,0,0,0
2:23.569,51685,),0,0,1
2:23.589,51692,(,0,0,2
2:23.733,51744,t,0,0,0
2:23.853,51787,),0,0,2
2:24.167,51900,(,0,0,1
2:24.297,51947,N,0,0,0
2:24.386,51979,),0,0,1
2:24.425,51993,(,0,0,2
2:24.533,52032,t,0,0,0
2:24.653,52075,),0,0,2
2:24.944,52180,(,0,0,1
2:25.100,52236,N,0,0,0
2:25.203,52273,),0,0,1
2:25.233,52284,(,0,0,2
2:25.361,52330,t,0,0,0
2:25.478,52372,),0,0,2
2:25.803,52489,(,0,0,1
2:25.933,52536,N,0,0,0
2:26.008,52563,),0,0,1
2:26.083,52590,(,0,0,2
2:26.194,52630,t,0,0,0
2:26.308,52671,),0,0,2
2:26.331,52679,(,0,0,0
2:26.372,52694,p,0,0,0
2:26.483,52734,),0,0,0
2:26.661,52798,(,0,0,1
2:26.803,52849,N,0,0,0
2:26.906,52886,),0,0,1
2:26.947,52901,(,0,0,2
2:27.072,52946,t,0,0,0
2:27.206,52994,),0,0,2
2:27.550,53118,(,0,0,1
2:27.683,53166,N,0,0,0
2:27.786,53203,),0,0,1
2:27.831,53219,(,0,0,2
2:27.944,53260,t,0,0,0
2:28.075,53307,),0,0,2
2:28.408,53427,(,0,0,1
2:28.539,53474,N,0,0,0
2:28.639,53510,),0,0,1
2:28.700,53532,(,0,0,2
2:28.803,53569,t,0,0,0
2:28.917,53610,),0,0,2
2:29.225,53721,(,0,0,1
2:29.350,53766,N,0,0,0
2:29.447,53801,),0,0,1
2:29.492,53817,(,0,0,2
2:29.600,53856,t,0,0,0
2:29.725,53901,),0,0,2
2:29.728,53902,(,0,0,0
2:29.767,53916,p,0,0,0
2:29.783,53922,),0,0,0
2:30.014,54005,(,0,0,1
2:30.144,54052,N,0,0,0
2:30.239,54086,),0,0,1
2:30.269,54097,(,0,0,2
2:30.397,54143,t,0,0,0
2:30.514,54185,),0,0,2
2:30.833,54300,(,0,0,1
2:30.944,54340,N,0,0,0
2:31.039,54374,),0,0,1
2:31.072,54386,(,0,0,2
2:31.192,54429,t,0,0,0
2:31.317,54474,),0,0,2
2:31.650,54594,(,0,0,1
2:31.769,54637,N,0,0,0
2:31.867,54672,),0,0,1
2:31.886,54679,(,0,0,2
2:32.033,54732,t,0,0,0
2:32.164,54779,),0,0,2
2:32.339,54842,(,0,0,0
2:32.375,54855,p,0,0,0
2:32.464,54887,),0,0,0
2:32.508,54903,(,0,0,1
2:32.669,54961,N,0,0,0
2:32.772,54998,),0,0,1
2:32.817,55014,(,0,0,2
2:32.944,55060,t,0,0,0
2:33.089,55112,),0,0,2
2:33.383,55218,(,0,0,1
2:33.542,55275,N,0,0,0
2:33.642,55311,),0,0,1
2:33.681,55325,(,0,0,2
2:33.806,55370,t,0,0,0
2:33.931,55415,),0,0,2
2:34.250,55530,(,0,0,1
2:34.381,55577,N,0,0,0
2:34.472,55610,),0,0,1
2:34.519,55627,(,0,0,2
2:34.639,55670,t,0,0,0
2:34.764,55715,),0,0,2
2:35.097,55835,(,0,0,1
2:35.219,55879,N,0,0,0
2:35.322,55916,),0,0,1
2:35.378,55936,(,0,0,2
2:35.478,55972,t,0,0,0
2:35.600,56016,),0,0,2
2:35.908,56127,(,0,0,1
2:36.044,56176,N,0,0,0
2:36.133,56208,),0,0,1
2:36.183,56226,(,0,0,2
2:36.292,56265,t,0,0,0
2:36.397,56303,),0,0,2
2:36.725,56421,(,0,0,1
2:36.847,56465,N,0,0,0
2:36.953,56503,),0,0,1
2:37.006,56522,(,0,0,2
2:37.106,56558,t,0,0,0
2:37.225,56601,),0,0,2
2:37.536,56713,(,0,0,1
2:37.664,56759,N,0,0,0
2:37.781,56801,),0,0,1
2:37.825,56817,(,0,0,2
2:37.931,56855,t,0,0,0
2:38.053,56899,),0,0,2
2:38.369,57013,(,0,0,1
2:38.506,57062,N,0,0,0
2:38.589,57092,),0,0,1
2:38.661,57118,(,0,0,2
2:38.775,57159,t,0,0,0
2:38.897,57203,),0,0,2
2:39.250,57330,(,0,0,1
2:39.369,57373,N,0,0,0
2:39.433,57396,),0,0,1
2:39.525,57429,(,0,0,2
2:39.625,57465,t,0,0,0
2:39.744,57508,),0,0,2
2:39.894,57562,(,0,0,0
2:39.914,57569,p,0,0,0
2:39.972,57590,),0,0,0
2:40.114,57641,(,0,0,1
2:40.169,57661,N,0,0,0
2:40.203,57673,),0,0,1
2:40.308,57711,t,0,0,3
2:40.450,57762,),0,0,2
2:40.603,57817,(,0,0,1
2:40.731,57863,N,0,0,0
2:40.781,57881,),0,0,1
2:40.831,57899,(,0,0,2
2:40.978,57952,t,0,0,1
2:41.150,58014,),0,0,2
2:41.381,58097,(,0,0,0
2:41.456,58124,p,0,0,0
2:41.497,58139,),0,0,0
2:41.544,58156,(,0,0,1
2:41.586,58171,N,0,0,0
2:41.678,58204,),0,0,1
2:41.825,58257,(,0,0,2
2:41.925,58293,t,0,0,1
2:42.042,58335,),0,0,2
2:42.142,58371,(,0,0,0
2:42.169,58381,p,0,0,0
2:42.239,58406,),0,0,0
2:42.264,58415,(,0,0,1
2:42.339,58442,N,0,0,0
2:42.383,58458,),0,0,1
2:42.517,58506,(,0,0,2
2:42.600,58536,t,0,0,1
2:42.711,58576,),0,0,2
2:43.083,58710,(,0,0,1
2:43.214,58757,N,0,0,0
2:43.281,58781,),0,0,1
2:43.367,58812,(,0,0,2
2:43.453,58843,t,0,0,0
2:43.558,58881,),0,0,2
2:43.703,58933,(,0,0,0
2:43.783,58962,p,0,0,0
2:43.825,58977,),0,0,0
2:43.933,59016,(,0,0,1
2:44.083,59070,N,0,0,0
2:44.186,59107,),0,0,1
2:44.231,59123,(,0,0,2
2:44.361,59170,t,0,0,0
2:44.497,59219,),0,0,2
2:44.842,59343,(,0,0,1
2:44.981,59393,N,0,0,0
2:45.078,59428,),0,0,1
2:45.119,59443,(,0,0,2
2:45.256,59492,t,0,0,0
2:45.392,59541,),0,0,2
2:45.469,59569,(,0,0,0
2:45.531,59591,p,0,0,0
2:45.550,59598,),0,0,0
2:45.733,59664,(,0,0,1
2:45.856,59708,N,0,0,0
2:45.953,59743,),0,0,1
2:45.997,59759,(,0,0,2
2:46.111,59800,t,0,0,0
2:46.228,59842,),0,0,2
2:46.569,59965,(,0,0,1
2:46.694,60010,N,0,0,0
2:46.797,60047,),0,0,1
2:46.844,60064,(,0,0,2
2:46.942,60099,t,0,0,0
2:47.064,60143,),0,0,2
2:47.267,60216,(,0,0,0
2:47.300,60228,p,0,0,0
2:47.361,60250,),0,0,0
2:47.394,60262,(,0,0,1
2:47.522,60308,N,0,0,0
2:47.628,60346,),0,0,1
2:47.681,60365,(,0,0,2
2:47.772,60398,t,0,0,0
2:47.881,60437,),0,0,2
2:48.181,60545,(,0,0,1
2:48.311,60592,N,0,0,0
2:48.408,60627,),0,0,1
2:48.450,60642,(,0,0,2
2:48.564,60683,t,0,0,0
2:48.678,60724,),0,0,2
2:49.003,60841,(,0,0,1
2:49.125,60885,N,0,0,0
2:49.225,60921,),0,0,1
2:49.278,60940,(,0,0,2
2:49.389,60980,t,0,0,0
2:49.519,61027,),0,0,2
2:49.658,61077,(,0,0,0
2:49.697,61091,p,0,0,0
2:49.722,61100,),0,0,0
2:49.836,61141,(,0,0,1
2:49.981,61193,N,0,0,0
2:50.089,61232,),0,0,1
2:50.122,61244,(,0,0,2
2:50.242,61287,t,0,0,0
2:50.372,61334,),0,0,2
2:50.453,61363,(,0,0,0
2:50.472,61370,p,0,0,0
2:50.519,61387,),0,0,0
2:50.706,61454,(,0,0,1
2:50.842,61503,N,0,0,0
2:50.942,61539,),0,0,1
2:50.964,61547,(,0,0,2
2:51.117,61602,t,0,0,0
2:51.228,61642,),0,0,2
2:51.428,61714,(,0,0,0
2:51.469,61729,p,0,0,0
2:51.550,61758,),0,0,0
2:51.572,61766,(,0,0,1
2:51.692,61809,N,0,0,0
2:51.781,61841,),0,0,1
2:51.831,61859,(,0,0,2
2:51.953,61903,t,0,0,0
2:52.092,61953,),0,0,2
2:52.197,61991,(,0,0,0
2:52.250,62010,p,0,0,0
2:52.275,62019,),0,0,0
2:52.394,62062,(,0,0,1
2:52.556,62120,N,0,0,0
2:52.644,62152,),0,0,1
2:52.683,62166,(,0,0,2
2:52.828,62218,t,0,0,0
2:52.944,62260,),0,0,2
2:53.186,62347,(,0,0,0
2:53.217,62358,p,0,0,0
2:53.253,62371,),0,0,0
2:53.275,62379,(,0,0,1
2:53.392,62421,N,0,0,0
2:53.481,62453,),0,0,1
2:53.508,62463,(,0,0,2
2:53.639,62510,t,0,0,0
2:53.758,62553,),0,0,2
2:53.878,62596,(,0,0,0
2:53.939,62618,p,0,0,0
2:53.964,62627,),0,0,0
2:54.064,62663,(,0,0,1
2:54.194,62710,N,0,0,0
2:54.286,62743,),0,0,1
2:54.314,62753,(,0,0,2
2:54.439,62798,t,0,0,0
2:54.547,62837,),0,0,2
2:54.878,62956,(,0,0,1
2:54.997,62999,N,0,0,0
2:55.092,63033,),0,0,1
2:55.147,63053,(,0,0,2
2:55.253,63091,t,0,0,0
2:55.369,63133,),0,0,2
2:55.683,63246,(,0,0,1
2:55.806,63290,N,0,0,0
2:55.881,63317,),0,0,1
2:55.981,63353,(,0,0,2
2:56.067,63384,t,0,0,0
2:56.189,63428,),0,0,2
2:56.528,63550,(,0,0,1
2:56.669,63601,N,0,0,0
2:56.775,63639,),0,0,1
2:56.836,63661,(,0,0,2
2:56.956,63704,t,0,0,0
2:57.103,63757,),0,0,2
2:57.419,63871,(,0,0,1
2:57.569,63925,N,0,0,0
2:57.669,63961,),0,0,1
2:57.697,63971,(,0,0,2
2:57.839,64022,t,0,0,0
2:57.964,64067,),0,0,2
2:58.292,64185,(,0,0,1
2:58.411,64228,N,0,0,0
2:58.481,64253,),0,0,1
2:58.561,64282,(,0,0,2
2:58.664,64319,t,0,0,0
2:58.775,64359,),0,0,2
2:59.131,64487,(,0,0,1
2:59.258,64533,N,0,0,0
2:59.344,64564,),0,0,1
2:59.419,64591,(,0,0,2
2:59.514,64625,t,0,0,0
2:59.633,64668,),0,0,2
2:59.794,64726,(,0,0,0
2:59.833,64740,p,0,0,0
2:59.867,64752,),0,0,0
2:59.942,64779,(,0,0,1
2:59.981,64793,N,0,0,0
3:00.078,64828,),0,0,1
3:00.225,64881,(,0,0,2
3:00.297,64907,t,0,0,1
3:00.381,64937,),0,0,2
3:00.708,65055,(,0,0,1
3:00.761,65074,N,0,0,0
3:00.786,65083,),0,0,1
3:00.911,65128,(,0,0,2
3:01.042,65175,t,0,0,1
3:01.167,65220,),0,0,2
3:01.481,65333,(,0,0,1
3:01.558,65361,N,0,0,0
3:01.608,65379,),0,0,1
3:01.736,65425,t,0,0,3
3:01.847,65465,),0,0,2
3:01.856,65468,(,0,0,1
3:02.106,65558,N,0,0,0
3:02.153,65575,),0,0,1
3:02.211,65596,(,0,0,2
3:02.353,65647,t,0,0,1
3:02.547,65717,),0,0,2
3:03.000,65880,(,0,0,1
3:03.122,65924,N,0,0,0
3:03.219,65959,),0,0,1
3:03.278,65980,(,0,0,2
3:03.372,66014,t,0,0,0
3:03.533,66072,),0,0,2
3:03.844,66184,(,0,0,1
3:03.972,66230,N,0,0,0
3:04.075,66267,),0,0,1
3:04.119,66283,(,0,0,2
3:04.233,66324,t,0,0,0
3:04.353,66367,),0,0,2
3:04.703,66493,(,0,0,1
3:04.828,66538,N,0,0,0
3:04.922,66572,),0,0,1
3:04.961,66586,(,0,0,2
3:05.078,66628,t,0,0,0
3:05.200,66672,),0,0,2
3:05.347,66725,(,0,0,0
3:05.397,66743,p,0,0,0
3:05.417,66750,),0,0,0
3:05.514,66785,(,0,0,1
3:05.636,66829,N,0,0,0
3:05.733,66864,),0,0,1
3:05.781,66881,(,0,0,2
3:05.889,66920,t,0,0,0
3:06.028,66970,),0,0,2
3:06.103,66997,(,0,0,0
3:06.183,67026,p,0,0,0
3:06.231,67043,),0,0,0
3:06.322,67076,(,0,0,1
3:06.369,67093,N,0,0,0
3:06.489,67136,),0,0,1
3:06.592,67173,(,0,0,2
3:06.667,67200,t,0,0,0
3:06.742,67227,),0,0,2
3:06.903,67285,(,0,0,0
3:06.947,67301,p,0,0,0
3:06.986,67315,),0,0,0
3:07.031,67331,(,0,0,1
3:07.103,67357,N,0,0,0
3:07.150,67374,),0,0,1
3:07.281,67421,(,0,0,2
3:07.356,67448,t,0,0,1
3:07.444,67480,),0,0,2
3:08.019,67687,(,0,0,0
3:08.089,67712,p,0,0,0
3:08.164,67739,),0,0,0
3:08.239,67766,(,0,0,1
3:08.339,67802,N,0,0,0
3:08.381,67817,),0,0,1
3:08.447,67841,(,0,0,2
3:08.594,67894,t,0,0,1
3:08.775,67959,),0,0,2
3:08.994,68038,(,0,0,0
3:09.119,68083,p,0,0,0
3:09.158,68097,),0,0,0
3:09.186,68107,(,0,0,1
3:09.311,68152,N,0,0,0
3:09.394,68182,),0,0,1
3:09.453,68203,(,0,0,2
3:09.572,68246,t,0,0,0
3:09.725,68301,),0,0,2
3:09.839,68342,(,0,0,0
3:09.939,68378,p,0,0,0
3:09.992,68397,),0,0,0
3:10.056,68420,(,0,0,1
3:10.181,68465,N,0,0,0
3:10.283,68502,),0,0,1
3:10.339,68522,(,0,0,2
3:10.442,68559,t,0,0,0
3:10.575,68607,),0,0,2
3:10.669,68641,(,0,0,0
3:10.719,68659,p,0,0,0
3:10.753,68671,),0,0,0
3:10.886,68719,(,0,0,1
3:11.025,68769,N,0,0,0
3:11.119,68803,),0,0,1
3:11.172,68822,(,0,0,2
3:11.283,68862,t,0,0,0
3:11.419,68911,),0,0,2
3:11.517,68946,(,0,0,0
3:11.583,68970,p,0,0,0
3:11.611,68980,),0,0,0
3:11.714,69017,(,0,0,1
3:11.833,69060,N,0,0,0
3:11.925,69093,),0,0,1
3:11.958,69105,(,0,0,2
3:12.069,69145,t,0,0,0
3:12.194,69190,),0,0,2
3:12.197,69191,(,0,0,0
3:12.339,69242,p,0,0,0
3:12.353,69247,),0,0,0
3:12.478,69292,(,0,0,1
3:12.614,69341,N,0,0,0
3:12.706,69374,),0,0,1
3:12.753,69391,(,0,0,2
3:12.858,69429,t,0,0,0
3:12.981,69473,),0,0,2
3:13.297,69587,(,0,0,1
3:13.431,69635,N,0,0,0
3:13.522,69668,),0,0,1
3:13.569,69685,(,0,0,2
3:13.675,69723,t,0,0,0
3:13.797,69767,),0,0,2
3:14.119,69883,(,0,0,1
3:14.258,69933,N,0,0,0
3:14.358,69969,),0,0,1
3:14.408,69987,(,0,0,2
3:14.528,70030,t,0,0,0
3:14.667,70080,),0,0,2
3:14.989,70196,(,0,0,1
3:15.125,70245,N,0,0,0
3:15.233,70284,),0,0,1
3:15.267,70296,(,0,0,2
3:15.406,70346,t,0,0,0
3:15.544,70396,),0,0,2
3:15.872,70514,(,0,0,1
3:15.994,70558,N,0,0,0
3:16.092,70593,),0,0,1
3:16.122,70604,(,0,0,2
3:16.267,70656,t,0,0,0
3:16.383,70698,),0,0,2
3:16.725,70821,(,0,0,1
3:16.844,70864,N,0,0,0
3:16.942,70899,),0,0,1
3:17.003,70921,(,0,0,2
3:17.094,70954,t,0,0,0
3:17.206,70994,),0,0,2
3:17.525,71109,(,0,0,1
3:17.644,71152,N,0,0,0
3:17.736,71185,),0,0,1
3:17.783,71202,(,0,0,2
3:17.897,71243,t,0,0,0
3:18.017,71286,),0,0,2
3:18.314,71393,(,0,0,1
3:18.456,71444,N,0,0,0
3:18.556,71480,),0,0,1
3:18.597,71495,(,0,0,2
3:18.717,71538,t,0,0,0
3:18.842,71583,),0,0,2
3:19.158,71697,(,0,0,1
3:19.281,71741,N,0,0,0
3:19.383,71778,),0,0,1
3:19.425,71793,(,0,0,2
3:19.536,71833,t,0,0,0
3:19.664,71879,),0,0,2
3:19.967,71988,(,0,0,1
3:20.117,72042,N,0,0,0
3:20.219,72079,),0,0,1
3:20.247,72089,(,0,0,2
3:20.372,72134,t,0,0,0
3:20.494,72178,),0,0,2
3:20.594,72214,(,0,0,0
3:20.706,72254,p,0,0,0
3:20.756,72272,),0,0,0
3:20.836,72301,(,0,0,1
3:20.981,72353,N,0,0,0
3:21.078,72388,),0,0,1
3:21.108,72399,(,0,0,2
3:21.247,72449,t,0,0,0
3:21.367,72492,),0,0,2
3:21.422,72512,(,0,0,0
3:21.442,72519,p,0,0,0
3:21.492,72537,),0,0,0
3:21.703,72613,(,0,0,1
3:21.831,72659,N,0,0,0
3:21.936,72697,),0,0,1
3:22.006,72722,(,0,0,2
3:22.097,72755,t,0,0,0
3:22.242,72807,),0,0,2
3:22.247,72809,(,0,0,0
3:22.325,72837,p,0,0,0
3:22.347,72845,),0,0,0
3:22.536,72913,(,0,0,1
3:22.664,72959,N,0,0,0
3:22.764,72995,),0,0,1
3:22.781,73001,(,0,0,2
3:22.931,73055,t,0,0,0
3:23.061,73102,),0,0,2
3:23.178,73144,(,0,0,0
3:23.261,73174,p,0,0,0
3:23.297,73187,),0,0,0
3:23.369,73213,(,0,0,1
3:23.486,73255,N,0,0,0
3:23.544,73276,),0,0,1
3:23.642,73311,(,0,0,2
3:23.731,73343,t,0,0,0
3:23.836,73381,),0,0,2
3:24.206,73514,(,0,0,1
3:24.319,73555,N,0,0,0
3:24.408,73587,),0,0,1
3:24.436,73597,(,0,0,2
3:24.561,73642,t,0,0,0
3:24.669,73681,),0,0,2
3:24.978,73792,(,0,0,1
3:25.025,73809,N,0,0,0
3:25.122,73844,),0,0,1
3:25.289,73904,(,0,0,2
3:25.361,73930,t,0,0,1
3:25.467,73968,),0,0,2
3:25.583,74010,(,0,0,0
3:25.658,74037,p,0,0,0
3:25.719,74059,),0,0,0
3:25.803,74089,(,0,0,1
3:25.839,74102,N,0,0,0
3:25.956,74144,),0,0,1
3:26.053,74179,(,0,0,2
3:26.136,74209,t,0,0,5
3:26.228,74242,t,0,0,5
3:26.275,74259,),0,0,2
3:26.428,74314,(,0,0,0
3:26.461,74326,p,0,0,0
3:26.553,74359,),0,0,0
3:26.592,74373,(,0,0,1
3:26.647,74393,N,0,0,0
3:26.697,74411,),0,0,1
3:26.761,74434,t,0,0,3
3:26.933,74496,),0,0,2
3:27.114,74561,(,0,0,1
3:27.250,74610,N,0,0,0
3:27.300,74628,),0,0,1
3:27.378,74656,(,0,0,2
3:27.506,74702,t,0,0,1
3:27.722,74780,),0,0,2
3:28.100,74916,(,0,0,1
3:28.181,74945,N,0,0,0
3:28.214,74957,),0,0,1
3:28.392,75021,(,0,0,2
3:28.483,75054,t,0,0,1
3:28.636,75109,),0,0,2
3:28.947,75221,(,0,0,1
3:29.000,75240,N,0,0,0
3:29.033,75252,),0,0,1
3:29.189,75308,(,0,0,2
3:29.275,75339,t,0,0,1
3:29.392,75381,),0,0,2
3:29.756,75512,(,0,0,1
3:29.803,75529,N,0,0,0
3:29.833,75540,),0,0,1
3:29.947,75581,t,0,0,3
3:30.072,75626,),0,0,2
3:30.081,75629,(,0,0,1
3:30.331,75719,N,0,0,0
3:30.381,75737,),0,0,1
3:30.425,75753,(,0,0,2
3:30.561,75802,t,0,0,1
3:30.731,75863,),0,0,2
3:31.108,75999,(,0,0,1
3:31.242,76047,N,0,0,0
3:31.342,76083,),0,0,1
3:31.394,76102,(,0,0,2
3:31.489,76136,t,0,0,0
3:31.669,76201,),0,0,2
3:31.703,76213,(,0,0,0
3:31.747,76229,p,0,0,0
3:31.758,76233,),0,0,0
3:31.944,76300,(,0,0,1
3:32.078,76348,N,0,0,0
3:32.167,76380,),0,0,1
3:32.258,76413,(,0,0,2
3:32.344,76444,t,0,0,0
3:32.503,76501,),0,0,2
3:32.531,76511,(,0,0,0
3:32.564,76523,p,0,0,0
3:32.639,76550,),0,0,0
3:32.833,76620,(,0,0,1
3:32.983,76674,N,0,0,0
3:33.064,76703,),0,0,1
3:33.128,76726,(,0,0,2
3:33.239,76766,t,0,0,0
3:33.361,76810,),0,0,2
3:33.475,76851,(,0,0,0
3:33.592,76893,p,0,0,0
3:33.617,76902,),0,0,0
3:33.706,76934,(,0,0,1
3:33.839,76982,N,0,0,0
3:33.936,77017,),0,0,1
3:33.983,77034,(,0,0,2
3:34.100,77076,t,0,0,0
3:34.228,77122,),0,0,2
3:34.233,77124,(,0,0,0
3:34.264,77135,p,0,0,0
3:34.292,77145,),0,0,0
3:34.528,77230,(,0,0,1
3:34.672,77282,N,0,0,0
3:34.769,77317,),0,0,1
3:34.828,77338,(,0,0,2
3:34.931,77375,t,0,0,0
3:35.056,77420,),0,0,2
3:35.156,77456,(,0,0,0
3:35.242,77487,p,0,0,0
3:35.272,77498,),0,0,0
3:35.378,77536,(,0,0,1
3:35.506,77582,N,0,0,0
3:35.603,77617,),0,0,1
3:35.636,77629,(,0,0,2
3:35.761,77674,t,0,0,0
3:35.886,77719,),0,0,2
3:36.197,77831,(,0,0,1
3:36.322,77876,N,0,0,0
3:36.414,77909,),0,0,1
3:36.453,77923,(,0,0,2
3:36.561,77962,t,0,0,0
3:36.683,78006,),0,0,2
3:37.006,78122,(,0,0,1
3:37.114,78161,N,0,0,0
3:37.172,78182,),0,0,1
3:37.278,78220,(,0,0,2
3:37.350,78246,t,0,0,0
3:37.439,78278,),0,0,2
3:37.558,78321,(,0,0,0
3:37.603,78337,p,0,0,0
3:37.642,78351,),0,0,0
3:37.819,78415,(,0,0,1
3:37.953,78463,N,0,0,0
3:38.050,78498,),0,0,1
3:38.108,78519,(,0,0,2
3:38.219,78559,t,0,0,0
3:38.347,78605,),0,0,2
3:38.667,78720,(,0,0,1
3:38.806,78770,N,0,0,0
3:38.903,78805,),0,0,1
3:38.942,78819,(,0,0,2
3:39.078,78868,t,0,0,0
3:39.214,78917,),0,0,2
3:39.547,79037,(,0,0,1
3:39.669,79081,N,0,0,0
3:39.769,79117,),0,0,1
3:39.822,79136,(,0,0,2
3:39.931,79175,t,0,0,0
3:40.053,79219,),0,0,2
3:40.394,79342,(,0,0,1
3:40.533,79392,N,0,0,0
3:40.631,79427,),0,0,1
3:40.681,79445,(,0,0,2
3:40.797,79487,t,0,0,0
3:40.922,79532,),0,0,2
3:41.244,79648,(,0,0,1
3:41.367,79692,N,0,0,0
3:41.464,79727,),0,0,1
3:41.519,79747,(,0,0,2
3:41.622,79784,t,0,0,0
3:41.733,79824,),0,0,2
3:42.042,79935,(,0,0,1
3:42.167,79980,N,0,0,0
3:42.264,80015,),0,0,1
3:42.311,80032,(,0,0,2
3:42.422,80072,t,0,0,0
3:42.528,80110,),0,0,2
3:42.653,80155,(,0,0,0
3:42.672,80162,p,0,0,0
3:42.711,80176,),0,0,0
3:42.858,80229,(,0,0,1
3:42.975,80271,N,0,0,0
3:43.064,80303,),0,0,1
3:43.117,80322,(,0,0,2
3:43.222,80360,t,0,0,0
3:43.336,80401,),0,0,2
3:43.475,80451,(,0,0,0
3:43.503,80461,p,0,0,0
3:43.542,80475,),0,0,0
3:43.650,80514,(,0,0,1
3:43.789,80564,N,0,0,0
3:43.886,80599,),0,0,1
3:43.919,80611,(,0,0,2
3:44.056,80660,t,0,0,0
3:44.178,80704,),0,0,2
3:44.536,80833,(,0,0,1
3:44.681,80885,N,0,0,0
3:44.728,80902,),0,0,1
3:44.733,80904,(,0,0,2
3:44.961,80986,t,0,0,0
3:45.078,81028,),0,0,2
3:45.244,81088,(,0,0,0
3:45.306,81110,p,0,0,0
3:45.375,81135,),0,0,0
3:45.439,81158,(,0,0,1
3:45.569,81205,N,0,0,0
3:45.669,81241,),0,0,1
3:45.736,81265,(,0,0,2
3:45.833,81300,t,0,0,0
3:45.956,81344,),0,0,2
3:46.281,81461,(,0,0,1
3:46.406,81506,N,0,0,0
3:46.506,81542,),0,0,1
3:46.550,81558,(,0,0,2
3:46.661,81598,t,0,0,0
3:46.786,81643,),0,0,2
3:47.111,81760,(,0,0,1
3:47.236,81805,N,0,0,0
3:47.328,81838,),0,0,1
3:47.381,81857,(,0,0,2
3:47.492,81897,t,0,0,0
3:47.617,81942,),0,0,2
3:47.664,81959,(,0,0,0
3:47.672,81962,p,0,0,0
3:47.739,81986,),0,0,0
3:47.933,82056,(,0,0,1
3:48.056,82100,N,0,0,0
3:48.147,82133,),0,0,1
3:48.181,82145,(,0,0,2
3:48.297,82187,t,0,0,0
3:48.417,82230,),0,0,2
3:48.725,82341,(,0,0,1
3:48.858,82389,N,0,0,0
3:48.958,82425,),0,0,1
3:48.994,82438,(,0,0,2
3:49.114,82481,t,0,0,0
3:49.239,82526,),0,0,2
3:49.339,82562,(,0,0,0
3:49.411,82588,p,0,0,0
3:49.467,82608,),0,0,0
3:49.564,82643,(,0,0,1
3:49.692,82689,N,0,0,0
3:49.794,82726,),0,0,1
3:49.853,82747,(,0,0,2
3:49.969,82789,t,0,0,0
3:50.111,82840,),0,0,2
3:50.417,82950,(,0,0,1
3:50.572,83006,N,0,0,0
3:50.672,83042,),0,0,1
3:50.708,83055,(,0,0,2
3:50.847,83105,t,0,0,0
3:50.969,83149,),0,0,2
3:51.103,83197,(,0,0,0
3:51.194,83230,p,0,0,0
3:51.228,83242,),0,0,0
3:51.331,83279,(,0,0,1
3:51.458,83325,N,0,0,0
3:51.553,83359,),0,0,1
3:51.592,83373,(,0,0,2
3:51.711,83416,t,0,0,0
3:51.836,83461,),0,0,2
3:51.864,83471,(,0,0,0
3:51.903,83485,p,0,0,0
3:51.983,83514,),0,0,0
3:52.164,83579,(,0,0,1
3:52.297,83627,N,0,0,0
3:52.397,83663,),0,0,1
3:52.433,83676,(,0,0,2
3:52.558,83721,t,0,0,0
3:52.686,83767,),0,0,2
3:52.758,83793,(,0,0,0
3:52.839,83822,p,0,0,0
3:52.872,83834,),0,0,0
3:52.992,83877,(,0,0,1
3:53.144,83932,N,0,0,0
3:53.225,83961,),0,0,1
3:53.300,83988,(,0,0,2
3:53.403,84025,t,0,0,0
3:53.539,84074,),0,0,2
3:53.836,84181,(,0,0,1
3:53.967,84228,N,0,0,0
3:54.064,84263,),0,0,1
3:54.108,84279,(,0,0,2
3:54.222,84320,t,0,0,0
3:54.350,84366,),0,0,2
3:54.436,84397,(,0,0,0
3:54.481,84413,p,0,0,0
3:54.500,84420,),0,0,0
3:54.661,84478,(,0,0,1
3:54.797,84527,N,0,0,0
3:54.894,84562,),0,0,1
3:54.944,84580,(,0,0,2
3:55.044,84616,t,0,0,0
3:55.156,84656,),0,0,2
3:55.481,84773,(,0,0,1
3:55.606,84818,N,0,0,0
3:55.678,84844,),0,0,1
3:55.744,84868,(,0,0,2
3:55.856,84908,t,0,0,0
3:55.964,84947,),0,0,2
3:56.119,85003,(,0,0,0
3:56.192,85029,p,0,0,0
3:56.250,85050,),0,0,0
3:56.328,85078,(,0,0,1
3:56.386,85099,N,0,0,0
3:56.414,85109,),0,0,1
3:56.525,85149,t,0,0,3
3:56.681,85205,),0,0,2
3:56.689,85208,(,0,0,1
3:56.953,85303,N,0,0,0
3:56.997,85319,),0,0,1
3:57.075,85347,(,0,0,2
3:57.194,85390,t,0,0,1
3:57.383,85458,),0,0,2
3:57.569,85525,(,0,0,0
3:57.589,85532,p,0,0,0
3:57.678,85564,),0,0,0
3:57.819,85615,(,0,0,1
3:57.858,85629,N,0,0,0
3:57.986,85675,),0,0,1
3:58.094,85714,(,0,0,2
3:58.167,85740,t,0,0,5
3:58.267,85776,t,0,0,5
3:58.336,85801,),0,0,2
3:58.467,85848,(,0,0,1
3:58.575,85887,N,0,0,0
3:58.619,85903,),0,0,1
3:58.692,85929,(,0,0,2
3:58.819,85975,t,0,0,1
3:59.028,86050,),0,0,2
3:59.375,86175,(,0,0,1
3:59.431,86195,N,0,0,0
3:59.458,86205,),0,0,1
3:59.628,86266,(,0,0,2
3:59.714,86297,t,0,0,1
3:59.850,86346,),0,0,2
3:59.953,86383,(,0,0,0
4:00.028,86410,p,0,0,0
4:00.067,86424,),0,0,0
4:00.181,86465,(,0,0,1
4:00.314,86513,N,0,0,0
4:00.408,86547,),0,0,1
4:00.439,86558,(,0,0,2
4:00.544,86596,t,0,0,5
4:00.817,86694,t,0,0,5
4:00.858,86709,),0,0,2
4:00.958,86745,(,0,0,1
4:01.114,86801,N,0,0,0
4:01.208,86835,),0,0,1
4:01.264,86855,(,0,0,2
4:01.375,86895,t,0,0,0
4:01.500,86940,),0,0,2
4:01.692,87009,(,0,0,0
4:01.753,87031,p,0,0,0
4:01.806,87050,),0,0,0
4:01.856,87068,(,0,0,1
4:01.986,87115,N,0,0,0
4:02.097,87155,),0,0,1
4:02.156,87176,(,0,0,2
4:02.264,87215,t,0,0,0
4:02.375,87255,),0,0,2
4:02.647,87353,(,0,0,0
4:02.678,87364,p,0,0,0
4:02.711,87376,),0,0,0
4:02.744,87388,(,0,0,1
4:02.886,87439,N,0,0,0
4:02.989,87476,),0,0,1
4:03.036,87493,(,0,0,2
4:03.167,87540,t,0,0,0
4:03.317,87594,),0,0,2
4:03.444,87640,(,0,0,0
4:03.475,87651,p,0,0,0
4:03.506,87662,),0,0,0
4:03.619,87703,(,0,0,1
4:03.744,87748,N,0,0,0
4:03.839,87782,),0,0,1
4:03.903,87805,(,0,0,2
4:04.003,87841,t,0,0,0
4:04.150,87894,),0,0,2
4:04.478,88012,(,0,0,1
4:04.597,88055,N,0,0,0
4:04.700,88092,),0,0,1
4:04.753,88111,(,0,0,2
4:04.861,88150,t,0,0,0
4:04.986,88195,),0,0,2
4:05.311,88312,(,0,0,1
4:05.428,88354,N,0,0,0
4:05.528,88390,),0,0,1
4:05.575,88407,(,0,0,2
4:05.669,88441,t,0,0,0
4:05.781,88481,),0,0,2
4:06.114,88601,(,0,0,1
4:06.233,88644,N,0,0,0
4:06.328,88678,),0,0,1
4:06.369,88693,(,0,0,2
4:06.472,88730,t,0,0,0
4:06.589,88772,),0,0,2
4:06.761,88834,(,0,0,0
4:06.789,88844,p,0,0,0
4:06.822,88856,),0,0,0
4:06.936,88897,(,0,0,1
4:07.053,88939,N,0,0,0
4:07.156,88976,),0,0,1
4:07.219,88999,(,0,0,2
4:07.328,89038,t,0,0,0
4:07.436,89077,),0,0,2
4:07.672,89162,(,0,0,0
4:07.706,89174,p,0,0,0
4:07.733,89184,),0,0,0
4:07.761,89194,(,0,0,1
4:07.878,89236,N,0,0,0
4:07.983,89274,),0,0,1
4:08.058,89301,(,0,0,2
4:08.139,89330,t,0,0,0
4:08.250,89370,),0,0,2
4:08.389,89420,(,0,0,0
4:08.419,89431,p,0,0,0
4:08.453,89443,),0,0,0
4:08.600,89496,(,0,0,1
4:08.742,89547,N,0,0,0
4:08.842,89583,),0,0,1
4:08.925,89613,(,0,0,2
4:09.003,89641,t,0,0,0
4:09.150,89694,),0,0,2
4:09.381,89777,(,0,0,0
4:09.403,89785,p,0,0,0
4:09.431,89795,),0,0,0
4:09.461,89806,(,0,0,1
4:09.608,89859,N,0,0,0
4:09.714,89897,),0,0,1
4:09.753,89911,(,0,0,2
4:09.878,89956,t,0,0,0
4:10.014,90005,),0,0,2
4:10.336,90121,(,0,0,1
4:10.481,90173,N,0,0,0
4:10.583,90210,),0,0,1
4:10.617,90222,(,0,0,2
4:10.747,90269,t,0,0,0
4:10.864,90311,),0,0,2
4:11.186,90427,(,0,0,1
4:11.311,90472,N,0,0,0
4:11.414,90509,),0,0,1
4:11.464,90527,(,0,0,2
4:11.572,90566,t,0,0,0
4:11.686,90607,),0,0,2
4:11.778,90640,(,0,0,0
4:11.872,90674,p,0,0,0
4:11.897,90683,),0,0,0
4:12.000,90720,(,0,0,1
4:12.119,90763,N,0,0,0
4:12.214,90797,),0,0,1
4:12.264,90815,(,0,0,2
4:12.356,90848,t,0,0,0
4:12.481,90893,),0,0,2
4:12.789,91004,(,0,0,1
4:12.914,91049,N,0,0,0
4:13.011,91084,),0,0,1
4:13.047,91097,(,0,0,2
4:13.158,91137,t,0,0,0
4:13.289,91184,),0,0,2
4:13.614,91301,(,0,0,1
4:13.758,91353,N,0,0,0
4:13.853,91387,),0,0,1
4:13.889,91400,(,0,0,2
4:14.014,91445,t,0,0,0
4:14.139,91490,),0,0,2
4:14.475,91611,(,0,0,1
4:14.625,91665,N,0,0,0
4:14.728,91702,),0,0,1
4:14.775,91719,(,0,0,2
4:14.906,91766,t,0,0,0
4:15.022,91808,),0,0,2
4:15.378,91936,(,0,0,1
4:15.514,91985,N,0,0,0
4:15.617,92022,),0,0,1
4:15.658,92037,(,0,0,2
4:15.786,92083,t,0,0,0
4:15.908,92127,),0,0,2
4:16.053,92179,(,0,0,0
4:16.119,92203,p,0,0,0
4:16.203,92233,),0,0,0
4:16.236,92245,(,0,0,1
4:16.367,92292,N,0,0,0
4:16.469,92329,),0,0,1
4:16.494,92338,(,0,0,2
4:16.631,92387,t,0,0,0
4:16.758,92433,),0,0,2
4:17.081,92549,(,0,0,1
4:17.200,92592,N,0,0,0
4:17.292,92625,),0,0,1
4:17.339,92642,(,0,0,2
4:17.450,92682,t,0,0,0
4:17.553,92719,),0,0,2
4:17.556,92720,(,0,0,0
4:17.589,92732,p,0,0,0
4:17.722,92780,),0,0,0
4:17.850,92826,(,0,0,1
4:17.911,92848,N,0,0,0
4:18.019,92887,),0,0,1
4:18.200,92952,(,0,0,2
4:18.258,92973,t,0,0,1
4:18.342,93003,),0,0,2
4:18.481,93053,(,0,0,0
4:18.525,93069,p,0,0,0
4:18.569,93085,),0,0,0
4:18.647,93113,(,0,0,1
4:18.719,93139,N,0,0,0
4:18.750,93150,),0,0,1
4:18.897,93203,t,0,0,3
4:18.997,93239,),0,0,2
4:19.011,93244,(,0,0,1
4:19.256,93332,N,0,0,0
4:19.294,93346,),0,0,1
4:19.336,93361,(,0,0,2
4:19.483,93414,t,0,0,1
4:19.664,93479,),0,0,2
4:20.075,93627,(,0,0,1
4:20.125,93645,N,0,0,0
4:20.297,93707,),0,0,1
4:20.411,93748,(,0,0,2
4:20.472,93770,t,0,0,0
4:20.597,93815,),0,0,2
4:20.700,93852,(,0,0,1
4:20.803,93889,N,0,0,0
4:20.844,93904,),0,0,1
4:20.925,93933,(,0,0,2
4:21.056,93980,t,0,0,1
4:21.275,94059,),0,0,2
4:21.667,94200,(,0,0,1
4:21.706,94214,N,0,0,0
4:21.786,94243,),0,0,1
4:21.978,94312,(,0,0,2
4:22.064,94343,t,0,0,1
4:22.197,94391,),0,0,2
4:22.200,94392,(,0,0,0
4:22.217,94398,p,0,0,0
4:22.297,94427,),0,0,0
4:22.444,94480,(,0,0,1
4:22.503,94501,N,0,0,0
4:22.550,94518,),0,0,1
4:22.697,94571,(,0,0,2
4:22.775,94599,t,0,0,1
4:22.897,94643,),0,0,2
4:23.094,94714,(,0,0,0
4:23.142,94731,p,0,0,0
4:23.197,94751,),0,0,0
4:23.244,94768,(,0,0,1
4:23.294,94786,N,0,0,0
4:23.344,94804,),0,0,1
4:23.492,94857,(,0,0,2
4:23.567,94884,t,0,0,1
4:23.678,94924,),0,0,2
4:24.008,95043,(,0,0,1
4:24.081,95069,N,0,0,0
4:24.128,95086,),0,0,1
4:24.275,95139,(,0,0,2
4:24.353,95167,t,0,0,1
4:24.481,95213,),0,0,2
4:24.811,95332,(,0,0,1
4:24.889,95360,N,0,0,0
4:24.917,95370,),0,0,1
4:25.086,95431,(,0,0,2
4:25.164,95459,t,0,0,1
4:25.272,95498,),0,0,2
4:25.586,95611,(,0,0,1
4:25.631,95627,N,0,0,0
4:25.675,95643,),0,0,1
4:25.731,95663,t,0,0,3
4:25.900,95724,),0,0,2
4:26.075,95787,(,0,0,1
4:26.136,95809,N,0,0,0
4:26.228,95842,),0,0,1
4:26.281,95861,(,0,0,2
4:26.383,95898,t,0,0,1
4:26.508,95943,),0,0,2
4:27.000,96120,(,0,0,1
4:27.044,96136,N,0,0,0
4:27.233,96204,),0,0,1
4:27.289,96224,(,0,0,2
4:27.411,96268,t,0,0,0
4:27.592,96333,),0,0,2
4:27.675,96363,(,0,0,0
4:27.786,96403,p,0,0,0
4:27.833,96420,),0,0,0
4:27.886,96439,(,0,0,1
4:28.014,96485,N,0,0,0
4:28.097,96515,),0,0,1
4:28.169,96541,(,0,0,2
4:28.264,96575,t,0,0,0
4:28.422,96632,),0,0,2
4:28.728,96742,(,0,0,1
4:28.867,96792,N,0,0,0
4:28.961,96826,),0,0,1
4:29.031,96851,(,0,0,2
4:29.114,96881,t,0,0,0
4:29.236,96925,),0,0,2
4:29.550,97038,(,0,0,1
4:29.669,97081,N,0,0,0
4:29.767,97116,),0,0,1
4:29.800,97128,(,0,0,2
4:29.908,97167,t,0,0,0
4:30.011,97204,),0,0,2
4:30.161,97258,(,0,0,0
4:30.236,97285,p,0,0,0
4:30.286,97303,),0,0,0
4:30.328,97318,(,0,0,1
4:30.458,97365,N,0,0,0
4:30.558,97401,),0,0,1
4:30.606,97418,(,0,0,2
4:30.706,97454,t,0,0,0
4:30.833,97500,),0,0,2
4:30.911,97528,(,0,0,0
4:31.039,97574,p,0,0,0
4:31.081,97589,),0,0,0
4:31.114,97601,(,0,0,1
4:31.267,97656,N,0,0,0
4:31.381,97697,),0,0,1
4:31.428,97714,(,0,0,2
4:31.533,97752,t,0,0,0
4:31.647,97793,),0,0,2
4:31.819,97855,(,0,0,0
4:31.847,97865,p,0,0,0
4:31.875,97875,),0,0,0
4:31.958,97905,(,0,0,1
4:32.114,97961,N,0,0,0
4:32.211,97996,),0,0,1
4:32.267,98016,(,0,0,2
4:32.383,98058,t,0,0,0
4:32.531,98111,),0,0,2
4:32.903,98245,(,0,0,1
4:33.031,98291,N,0,0,0
4:33.119,98323,),0,0,1
4:33.192,98349,(,0,0,2
4:33.306,98390,t,0,0,0
4:33.428,98434,),0,0,2
4:33.764,98555,(,0,0,1
4:33.903,98605,N,0,0,0
4:33.989,98636,),0,0,1
4:34.081,98669,(,0,0,2
4:34.167,98700,t,0,0,0
4:34.272,98738,),0,0,2
4:34.603,98857,(,0,0,1
4:34.731,98903,N,0,0,0
4:34.811,98932,),0,0,1
4:34.867,98952,(,0,0,2
4:34.989,98996,t,0,0,0
4:35.108,99039,),0,0,2
4:35.439,99158,(,0,0,1
4:35.564,99203,N,0,0,0
4:35.647,99233,),0,0,1
4:36.278,99460,(,0,0,1
4:36.381,99497,N,0,0,0
4:36.436,99517,),0,0,1
4:36.536,99553,(,0,0,2
4:36.625,99585,t,0,0,0
4:36.753,99631,),0,0,2
4:36.875,99675,(,0,0,0
4:36.908,99687,p,0,0,0
4:36.928,99694,),0,0,0
4:37.094,99754,(,0,0,1
4:37.208,99795,N,0,0,0
4:37.264,99815,),0,0,1
4:37.375,99855,(,0,0,2
4:37.461,99886,t,0,0,0
4:37.583,99930,),0,0,2
4:37.719,99979,(,0,0,0
4:37.811,100012,p,0,0,0
4:37.881,100037,),0,0,0
4:37.914,100049,(,0,0,1
4:38.031,100091,N,0,0,0
4:38.033,100092,),0,0,1
4:38.036,100093,(,0,0,2
4:38.308,100191,t,0,0,0
4:38.425,100233,),0,0,2
4:38.622,100304,(,0,0,0
4:38.664,100319,p,0,0,0
4:38.722,100340,),0,0,0
4:38.786,100363,(,0,0,1
4:38.906,100406,N,0,0,0
4:38.908,100407,),0,0,1
4:38.911,100408,(,0,0,2
4:39.186,100507,t,0,0,0
4:39.308,100551,),0,0,2
4:39.406,100586,(,0,0,0
4:39.475,100611,p,0,0,0
4:39.531,100631,),0,0,0
4:39.653,100675,(,0,0,1
4:39.767,100716,N,0,0,0
4:39.767,100716,),0,0,1
4:39.772,100718,(,0,0,2
4:40.044,100816,t,0,0,0
4:40.175,100863,),0,0,2
4:40.528,100990,(,0,0,1
4:40.642,101031,N,0,0,0
4:40.706,101054,),0,0,1
4:40.797,101087,(,0,0,2
4:40.903,101125,t,0,0,0
4:41.028,101170,),0,0,2
4:41.211,101236,(,0,0,0
4:41.269,101257,p,0,0,0
4:41.342,101283,),0,0,0
4:41.375,101295,(,0,0,1
4:41.483,101334,N,0,0,0
4:41.483,101334,),0,0,1
4:41.489,101336,(,0,0,2
4:41.728,101422,t,0,0,0
4:41.858,101469,),0,0,2
4:41.958,101505,(,0,0,0
4:42.014,101525,p,0,0,0
4:42.061,101542,),0,0,0
4:42.178,101584,(,0,0,1
4:42.283,101622,N,0,0,0
4:42.286,101623,),0,0,1
4:42.289,101624,(,0,0,2
4:42.522,101708,t,0,0,0
4:42.642,101751,),0,0,2
4:42.808,101811,(,0,0,0
4:42.867,101832,p,0,0,0
4:42.936,101857,),0,0,0
4:42.969,101869,(,0,0,1
4:43.078,101908,N,0,0,0
4:43.131,101927,),0,0,1
4:43.233,101964,(,0,0,2
4:43.331,101999,t,0,0,0
4:43.450,102042,),0,0,2
4:43.578,102088,(,0,0,0
4:43.686,102127,p,0,0,0
4:43.708,102135,),0,0,0
4:43.794,102166,(,0,0,1
4:43.911,102208,N,0,0,0
4:43.917,102210,),0,0,1
4:43.922,102212,(,0,0,2
4:44.189,102308,t,0,0,0
4:44.308,102351,),0,0,2
4:44.439,102398,(,0,0,0
4:44.456,102404,p,0,0,0
4:44.514,102425,),0,0,0
4:44.706,102494,(,0,0,1
4:44.828,102538,N,0,0,0
4:44.878,102556,),0,0,1
4:44.981,102593,(,0,0,2
4:45.108,102639,t,0,0,0
4:45.233,102684,),0,0,2
4:45.489,102776,(,0,0,0
4:45.528,102790,p,0,0,0
4:45.569,102805,),0,0,0
4:45.603,102817,(,0,0,1
4:45.722,102860,N,0,0,0
4:45.781,102881,),0,0,1
4:45.881,102917,(,0,0,2
4:45.983,102954,t,0,0,0
4:46.103,102997,),0,0,2
4:46.225,103041,(,0,0,0
4:46.319,103075,p,0,0,0
4:46.403,103105,),0,0,0
4:46.436,103117,(,0,0,1
4:46.550,103158,N,0,0,0
4:46.550,103158,),0,0,1
4:46.553,103159,(,0,0,2
4:46.808,103251,t,0,0,0
4:46.931,103295,),0,0,2
4:47.147,103373,(,0,0,0
4:47.181,103385,p,0,0,0
4:47.228,103402,),0,0,0
4:47.261,103414,(,0,0,1
4:47.369,103453,N,0,0,0
4:47.464,103487,),0,0,1
4:47.531,103511,(,0,0,2
4:47.625,103545,t,0,0,0
4:47.744,103588,),0,0,2
4:48.069,103705,(,0,0,1
4:48.175,103743,N,0,0,0
4:48.233,103764,),0,0,1
4:48.328,103798,(,0,0,2
4:48.419,103831,t,0,0,0
4:48.528,103870,),0,0,2
4:48.672,103922,(,0,0,0
4:48.703,103933,p,0,0,0
4:48.792,103965,),0,0,0
4:48.875,103995,(,0,0,1
4:48.983,104034,N,0,0,0
4:49.022,104048,),0,0,1
4:49.128,104086,(,0,0,2
4:49.231,104123,t,0,0,0
4:49.350,104166,),0,0,2
4:49.511,104224,(,0,0,0
4:49.606,104258,p,0,0,0
4:49.683,104286,),0,0,0
4:49.717,104298,(,0,0,1
4:49.836,104341,N,0,0,0
4:49.839,104342,),0,0,1
4:49.842,104343,(,0,0,2
4:50.108,104439,t,0,0,0
4:50.231,104483,),0,0,2
4:50.506,104582,(,0,0,0
4:50.522,104588,p,0,0,0
4:50.558,104601,),0,0,0
4:50.597,104615,(,0,0,1
4:50.719,104659,N,0,0,0
4:50.719,104659,),0,0,1
4:50.728,104662,(,0,0,2
4:50.997,104759,t,0,0,0
4:51.111,104800,),0,0,2
4:51.364,104891,(,0,0,0
4:51.386,104899,p,0,0,0
4:51.431,104915,),0,0,0
4:51.472,104930,(,0,0,1
4:51.586,104971,N,0,0,0
4:51.586,104971,),0,0,1
4:51.592,104973,(,0,0,2
4:51.842,105063,t,0,0,0
4:51.958,105105,),0,0,2
4:52.200,105192,(,0,0,0
4:52.228,105202,p,0,0,0
4:52.289,105224,),0,0,0
4:52.322,105236,(,0,0,1
4:52.436,105277,N,0,0,0
4:52.436,105277,),0,0,1
4:52.442,105279,(,0,0,2
4:52.703,105373,t,0,0,0
4:52.828,105418,),0,0,2
4:53.017,105486,(,0,0,0
4:53.047,105497,p,0,0,0
4:53.136,105529,),0,0,0
4:53.175,105543,(,0,0,1
4:53.203,105553,N,0,0,0
4:53.286,105583,),0,0,1
4:53.725,105741,(,0,0,2
4:53.789,105764,t,0,0,0
4:53.844,105784,),0,0,2
4:54.456,106004,(,0,0,0
4:54.481,106013,p,0,0,0
4:54.506,106022,),0,0,0
4:54.589,106052,(,0,0,1
4:54.617,106062,N,0,0,0
4:54.658,106077,),0,0,1
4:54.703,106093,(,0,0,2
4:54.942,106179,t,0,0,0
4:55.083,106230,),0,0,2
4:57.483,107094,(,0,0,0
4:57.539,107114,p,0,0,0
4:57.572,107126,),0,0,0
4:57.717,107178,(,0,0,1
4:57.750,107190,N,0,0,0
4:57.778,107200,),0,0,1
4:57.950,107262,(,0,0,2
4:58.047,107297,t,0,0,1
4:58.200,107352,),0,0,2
4:59.831,107939,(,0,0,0
4:59.917,107970,p,0,0,0
4:59.939,107978,),0,0,0
5:00.031,108011,(,0,0,1
5:00.136,108049,N,0,0,0
5:00.175,108063,),0,0,1
5:00.269,108097,(,0,0,2
5:00.364,108131,t,0,0,0
5:00.489,108176,),0,0,2
5:00.811,108292,(,0,0,1
5:00.922,108332,N,0,0,0
5:01.025,108369,),0,0,1
5:01.064,108383,(,0,0,2
5:01.172,108422,t,0,0,0
5:01.294,108466,),0,0,2
5:01.444,108520,(,0,0,0
5:01.542,108555,p,0,0,0
5:01.622,108584,),0,0,0
5:01.656,108596,(,0,0,1
5:01.772,108638,N,0,0,0
5:01.858,108669,),0,0,1
5:01.922,108692,(,0,0,2
5:02.036,108733,t,0,0,0
5:02.153,108775,),0,0,2
5:02.350,108846,(,0,0,0
5:02.453,108883,p,0,0,0
5:02.503,108901,),0,0,0
5:02.539,108914,(,0,0,1
5:02.658,108957,N,0,0,0
5:02.728,108982,),0,0,1
5:02.828,109018,(,0,0,2
5:02.942,109059,t,0,0,0
5:03.072,109106,),0,0,2
5:03.219,109159,(,0,0,0
5:03.247,109169,p,0,0,0
5:03.283,109182,),0,0,0
5:03.411,109228,(,0,0,1
5:03.519,109267,N,0,0,0
5:03.583,109290,),0,0,1
5:03.658,109317,(,0,0,2
5:03.772,109358,t,0,0,0
5:03.889,109400,),0,0,2
5:03.978,109432,(,0,0,0
5:04.103,109477,p,0,0,0
5:04.150,109494,),0,0,0
5:04.231,109523,(,0,0,1
5:04.344,109564,N,0,0,0
5:04.403,109585,),0,0,1
5:04.500,109620,(,0,0,2
5:04.603,109657,t,0,0,0
5:04.728,109702,),0,0,2
5:04.875,109755,(,0,0,0
5:04.928,109774,p,0,0,0
5:04.967,109788,),0,0,0
5:05.069,109825,(,0,0,1
5:05.178,109864,N,0,0,0
5:05.231,109883,),0,0,1
5:05.308,109911,(,0,0,2
5:05.419,109951,t,0,0,0
5:05.547,109997,),0,0,2
5:05.708,110055,(,0,0,0
5:05.728,110062,p,0,0,0
5:05.758,110073,),0,0,0
5:05.872,110114,(,0,0,1
5:05.981,110153,N,0,0,0
5:06.039,110174,),0,0,1
5:06.125,110205,(,0,0,2
5:06.222,110240,t,0,0,0
5:06.350,110286,),0,0,2
5:06.444,110320,(,0,0,0
5:06.511,110344,p,0,0,0
5:06.556,110360,),0,0,0
5:06.672,110402,(,0,0,1
5:06.783,110442,N,0,0,0
5:06.825,110457,),0,0,1
5:06.917,110490,(,0,0,2
5:07.033,110532,t,0,0,0
5:07.153,110575,),0,0,2
5:07.292,110625,(,0,0,0
5:07.350,110646,p,0,0,0
5:07.411,110668,),0,0,0
5:07.483,110694,(,0,0,1
5:07.589,110732,N,0,0,0
5:07.647,110753,),0,0,1
5:07.744,110788,(,0,0,2
5:07.847,110825,t,0,0,0
5:07.981,110873,),0,0,2
5:08.153,110935,(,0,0,0
5:08.233,110964,p,0,0,0
5:08.278,110980,),0,0,0
5:08.317,110994,(,0,0,1
5:08.431,111035,N,0,0,0
5:08.433,111036,),0,0,1
5:08.436,111037,(,0,0,2
5:08.686,111127,t,0,0,0
5:08.817,111174,),0,0,2
5:09.164,111299,(,0,0,1
5:09.278,111340,N,0,0,0
5:09.281,111341,),0,0,1
5:09.283,111342,(,0,0,2
5:09.544,111436,t,0,0,0
5:09.703,111493,),0,0,2
5:10.036,111613,(,0,0,1
5:10.153,111655,N,0,0,0
5:10.217,111678,),0,0,1
5:10.283,111702,(,0,0,2
5:10.422,111752,t,0,0,0
5:10.553,111799,),0,0,2
5:10.878,111916,(,0,0,1
5:10.981,111953,N,0,0,0
5:11.025,111969,),0,0,1
5:11.122,112004,(,0,0,2
5:11.236,112045,t,0,0,0
5:11.356,112088,),0,0,2
5:13.736,112945,(,0,0,0
5:13.775,112959,p,0,0,0
5:13.806,112970,),0,0,0
5:13.844,112984,(,0,0,1
5:13.958,113025,N,0,0,0
5:14.017,113046,),0,0,1
5:14.242,113127,(,0,0,2
5:14.469,113209,t,0,0,1
5:14.589,113252,),0,0,2
5:15.297,113507,(,0,0,0
5:15.344,113524,p,0,0,0
5:15.386,113539,),0,0,0
5:15.511,113584,(,0,0,1
5:15.528,113590,N,0,0,0
5:15.561,113602,),0,0,1
5:15.697,113651,(,0,0,2
5:15.831,113699,t,0,0,1
5:15.975,113751,),0,0,2
5:18.603,114697,(,0,0,0
5:18.669,114721,p,0,0,0
5:18.725,114741,),0,0,0
5:18.758,114753,(,0,0,1
5:18.875,114795,N,0,0,0
5:18.878,114796,),0,0,1
5:18.883,114798,(,0,0,2
5:19.133,114888,t,0,0,0
5:19.258,114933,),0,0,2
5:19.372,114974,(,0,0,0
5:19.428,114994,p,0,0,0
5:19.469,115009,),0,0,0
5:19.592,115053,(,0,0,1
5:19.700,115092,N,0,0,0
5:19.764,115115,),0,0,1
5:19.853,115147,(,0,0,2
5:19.972,115190,t,0,0,0
5:20.092,115233,),0,0,2
5:20.231,115283,(,0,0,0
5:20.261,115294,p,0,0,0
5:20.300,115308,),0,0,0
5:20.444,115360,(,0,0,1
5:20.558,115401,N,0,0,0
5:20.619,115423,),0,0,1
5:20.731,115463,(,0,0,2
5:20.822,115496,t,0,0,0
5:20.950,115542,),0,0,2
5:21.167,115620,(,0,0,0
5:21.239,115646,p,0,0,0
5:21.286,115663,),0,0,0
5:21.319,115675,(,0,0,1
5:21.431,115715,N,0,0,0
5:21.433,115716,),0,0,1
5:21.436,115717,(,0,0,2
5:21.692,115809,t,0,0,0
5:21.817,115854,),0,0,2
5:22.172,115982,(,0,0,1
5:22.286,116023,N,0,0,0
5:22.347,116045,),0,0,1
5:22.417,116070,(,0,0,2
5:22.536,116113,t,0,0,0
5:22.650,116154,),0,0,2
5:22.828,116218,(,0,0,0
5:22.917,116250,p,0,0,0
5:22.953,116263,),0,0,0
5:22.997,116279,(,0,0,1
5:23.108,116319,N,0,0,0
5:23.167,116340,),0,0,1
5:23.258,116373,(,0,0,2
5:23.367,116412,t,0,0,0
5:23.489,116456,),0,0,2
5:23.681,116525,(,0,0,0
5:23.717,116538,p,0,0,0
5:23.789,116564,),0,0,0
5:23.822,116576,(,0,0,1
5:23.931,116615,N,0,0,0
5:23.972,116630,),0,0,1
5:24.075,116667,(,0,0,2
5:24.183,116706,t,0,0,0
5:24.317,116754,),0,0,2
5:24.425,116793,(,0,0,0
5:24.483,116814,p,0,0,0
5:24.536,116833,),0,0,0
5:24.625,116865,(,0,0,1
5:24.733,116904,N,0,0,0
5:24.772,116918,),0,0,1
5:24.881,116957,(,0,0,2
5:24.978,116992,t,0,0,0
5:25.122,117044,),0,0,2
5:25.450,117162,(,0,0,1
5:25.561,117202,N,0,0,0
5:25.614,117221,),0,0,1
5:25.711,117256,(,0,0,2
5:25.814,117293,t,0,0,0
5:25.947,117341,),0,0,2
5:26.036,117373,(,0,0,0
5:26.050,117378,p,0,0,0
5:26.092,117393,),0,0,0
5:26.286,117463,(,0,0,1
5:26.403,117505,N,0,0,0
5:26.461,117526,),0,0,1
5:26.544,117556,(,0,0,2
5:26.675,117603,t,0,0,0
5:26.803,117649,),0,0,2
5:27.078,117748,(,0,0,0
5:27.103,117757,p,0,0,0
5:27.133,117768,),0,0,0
5:27.164,117779,(,0,0,1
5:27.281,117821,N,0,0,0
5:27.281,117821,),0,0,1
5:27.286,117823,(,0,0,2
5:27.558,117921,t,0,0,0
5:27.697,117971,),0,0,2
5:27.831,118019,(,0,0,0
5:27.875,118035,p,0,0,0
5:27.908,118047,),0,0,0
5:28.036,118093,(,0,0,1
5:28.150,118134,N,0,0,0
5:28.192,118149,),0,0,1
5:28.283,118182,(,0,0,2
5:28.414,118229,t,0,0,0
5:28.550,118278,),0,0,2
5:28.689,118328,(,0,0,0
5:28.761,118354,p,0,0,0
5:28.836,118381,),0,0,0
5:28.889,118400,(,0,0,1
5:28.997,118439,N,0,0,0
5:29.039,118454,),0,0,1
5:29.131,118487,(,0,0,2
5:29.247,118529,t,0,0,0
5:29.361,118570,),0,0,2
5:29.511,118624,(,0,0,0
5:29.597,118655,p,0,0,0
5:29.653,118675,),0,0,0
5:29.686,118687,(,0,0,1
5:29.792,118725,N,0,0,0
5:29.847,118745,),0,0,1
5:29.903,118765,(,0,0,2
5:30.036,118813,t,0,0,0
5:30.150,118854,),0,0,2
5:30.314,118913,(,0,0,0
5:30.375,118935,p,0,0,0
5:30.431,118955,),0,0,0
5:30.472,118970,(,0,0,1
5:30.581,119009,N,0,0,0
5:30.672,119042,),0,0,1
5:30.717,119058,(,0,0,2
5:30.842,119103,t,0,0,0
5:30.969,119149,),0,0,2
5:31.078,119188,(,0,0,0
5:31.175,119223,p,0,0,0
5:31.250,119250,),0,0,0
5:31.283,119262,(,0,0,1
5:31.394,119302,N,0,0,0
5:31.439,119318,),0,0,1
5:31.539,119354,(,0,0,2
5:31.653,119395,t,0,0,0
5:31.778,119440,),0,0,2
5:32.136,119569,(,0,0,1
5:32.247,119609,N,0,0,0
5:32.292,119625,),0,0,1
5:32.419,119671,(,0,0,2
5:32.517,119706,t,0,0,0
5:32.656,119756,),0,0,2
5:32.836,119821,(,0,0,0
5:32.869,119833,p,0,0,0
5:32.900,119844,),0,0,0
5:33.050,119898,(,0,0,1
5:33.172,119942,N,0,0,0
5:33.175,119943,),0,0,1
5:33.178,119944,(,0,0,2
5:33.450,120042,t,0,0,0
5:33.567,120084,),0,0,2
5:33.828,120178,(,0,0,0
5:33.856,120188,p,0,0,0
5:33.894,120202,),0,0,0
5:33.919,120211,(,0,0,1
5:34.031,120251,N,0,0,0
5:34.078,120268,),0,0,1
5:34.192,120309,(,0,0,2
5:34.292,120345,t,0,0,0
5:34.453,120403,),0,0,2
5:34.506,120422,(,0,0,0
5:34.592,120453,p,0,0,0
5:34.608,120459,),0,0,0
5:34.750,120510,(,0,0,1
5:34.861,120550,N,0,0,0
5:34.906,120566,),0,0,1
5:34.994,120598,(,0,0,2
5:35.114,120641,t,0,0,0
5:35.247,120689,),0,0,2
5:35.269,120697,(,0,0,0
5:35.281,120701,p,0,0,0
5:35.375,120735,),0,0,0
5:35.572,120806,(,0,0,1
5:35.681,120845,N,0,0,0
5:35.775,120879,),0,0,1
5:35.794,120886,(,0,0,2
5:35.933,120936,t,0,0,0
5:36.056,120980,),0,0,2
5:36.142,121011,(,0,0,0
5:36.261,121054,p,0,0,0
5:36.308,121071,),0,0,0
5:36.394,121102,(,0,0,1
5:36.503,121141,N,0,0,0
5:36.542,121155,),0,0,1
5:36.656,121196,(,0,0,2
5:36.758,121233,t,0,0,0
5:36.872,121274,),0,0,2
5:37.058,121341,(,0,0,0
5:37.089,121352,p,0,0,0
5:37.122,121364,),0,0,0
5:37.211,121396,(,0,0,1
5:37.322,121436,N,0,0,0
5:37.386,121459,),0,0,1
5:37.503,121501,(,0,0,2
5:37.589,121532,t,0,0,0
5:37.725,121581,),0,0,2
5:37.828,121618,(,0,0,0
5:37.886,121639,p,0,0,0
5:37.933,121656,),0,0,0
5:38.053,121699,(,0,0,1
5:38.164,121739,N,0,0,0
5:38.256,121772,),0,0,1
5:38.300,121788,(,0,0,2
5:38.442,121839,t,0,0,0
5:38.572,121886,),0,0,2
5:38.756,121952,(,0,0,0
5:38.831,121979,p,0,0,0
5:38.900,122004,),0,0,0
5:38.933,122016,(,0,0,1
5:39.033,122052,N,0,0,0
5:39.081,122069,),0,0,1
5:39.206,122114,(,0,0,2
5:39.314,122153,t,0,0,0
5:39.428,122194,),0,0,2
5:39.617,122262,(,0,0,0
5:39.683,122286,p,0,0,0
5:39.739,122306,),0,0,0
5:39.786,122323,(,0,0,1
5:39.897,122363,N,0,0,0
5:39.897,122363,),0,0,1
5:39.900,122364,(,0,0,2
5:40.158,122457,t,0,0,0
5:40.281,122501,),0,0,2
5:40.333,122520,(,0,0,0
5:40.403,122545,p,0,0,0
5:40.411,122548,),0,0,0
5:40.633,122628,(,0,0,1
5:40.750,122670,N,0,0,0
5:40.806,122690,),0,0,1
5:40.911,122728,(,0,0,2
5:41.003,122761,t,0,0,0
5:41.128,122806,),0,0,2
5:41.261,122854,(,0,0,0
5:41.339,122882,p,0,0,0
5:41.375,122895,),0,0,0
5:41.469,122929,(,0,0,1
5:41.578,122968,N,0,0,0
5:41.622,122984,),0,0,1
5:41.728,123022,(,0,0,2
5:41.828,123058,t,0,0,0
5:41.956,123104,),0,0,2
5:42.031,123131,(,0,0,0
5:42.125,123165,p,0,0,0
5:42.153,123175,),0,0,0
5:42.264,123215,(,0,0,1
5:42.369,123253,N,0,0,0
5:42.453,123283,),0,0,1
5:42.514,123305,(,0,0,2
5:42.619,123343,t,0,0,0
5:42.747,123389,),0,0,2
5:43.078,123508,(,0,0,1
5:43.183,123546,N,0,0,0
5:43.272,123578,),0,0,1
5:43.336,123601,(,0,0,2
5:43.439,123638,t,0,0,0
5:43.558,123681,),0,0,2
5:43.900,123804,(,0,0,1
5:44.014,123845,N,0,0,0
5:44.058,123861,),0,0,1
5:44.169,123901,(,0,0,2
5:44.283,123942,t,0,0,0
5:44.436,123997,),0,0,2
5:44.614,124061,(,0,0,0
5:44.653,124075,p,0,0,0
5:44.678,124084,),0,0,0
5:44.800,124128,(,0,0,1
5:44.925,124173,N,0,0,0
5:44.978,124192,),0,0,1
5:44.983,124194,(,0,0,2
5:45.222,124280,t,0,0,0
5:45.364,124331,),0,0,2
5:45.714,124457,(,0,0,1
5:45.828,124498,N,0,0,0
5:45.828,124498,),0,0,1
5:45.831,124499,(,0,0,2
5:46.094,124594,t,0,0,0
5:46.228,124642,),0,0,2
5:46.339,124682,(,0,0,0
5:46.406,124706,p,0,0,0
5:46.433,124716,),0,0,0
5:46.561,124762,(,0,0,1
5:46.669,124801,N,0,0,0
5:46.731,124823,),0,0,1
5:46.800,124848,(,0,0,2
5:46.919,124891,t,0,0,0
5:47.042,124935,),0,0,2
5:47.100,124956,(,0,0,0
5:47.192,124989,p,0,0,0
5:47.208,124995,),0,0,0
5:47.378,125056,(,0,0,1
5:47.483,125094,N,0,0,0
5:47.525,125109,),0,0,1
5:47.614,125141,(,0,0,2
5:47.731,125183,t,0,0,0
5:47.847,125225,),0,0,2
5:47.933,125256,(,0,0,0
5:48.031,125291,p,0,0,0
5:48.053,125299,),0,0,0
5:48.183,125346,(,0,0,1
5:48.289,125384,N,0,0,0
5:48.344,125404,),0,0,1
5:48.422,125432,(,0,0,2
5:48.531,125471,t,0,0,0
5:48.639,125510,),0,0,2
5:50.369,126133,(,0,0,0
5:50.431,126155,p,0,0,0
5:50.469,126169,),0,0,0
5:50.503,126181,(,0,0,1
5:50.531,126191,N,0,0,0
5:50.600,126216,),0,0,1
5:50.608,126219,(,0,0,2
5:50.775,126279,t,0,0,0
5:50.958,126345,),0,0,2
5:52.039,126734,(,0,0,0
5:52.061,126742,p,0,0,0
5:52.117,126762,),0,0,0
5:52.203,126793,(,0,0,1
5:52.314,126833,N,0,0,0
5:52.369,126853,),0,0,1
5:52.472,126890,(,0,0,2
5:52.575,126927,t,0,0,0
5:52.719,126979,),0,0,2
5:52.786,127003,(,0,0,0
5:52.914,127049,p,0,0,0
5:52.925,127053,),0,0,0
5:53.050,127098,(,0,0,1
5:53.161,127138,N,0,0,0
5:53.208,127155,),0,0,1
5:53.308,127191,(,0,0,2
5:53.422,127232,t,0,0,0
5:53.539,127274,),0,0,2
5:53.703,127333,(,0,0,0
5:53.764,127355,p,0,0,0
5:53.836,127381,),0,0,0
5:53.872,127394,(,0,0,1
5:53.975,127431,N,0,0,0
5:54.031,127451,),0,0,1
5:54.092,127473,(,0,0,2
5:54.219,127519,t,0,0,0
5:54.331,127559,),0,0,2
5:54.531,127631,(,0,0,0
5:54.569,127645,p,0,0,0
5:54.633,127668,),0,0,0
5:54.667,127680,(,0,0,1
5:54.783,127722,N,0,0,0
5:54.839,127742,),0,0,1
5:54.947,127781,(,0,0,2
5:55.039,127814,t,0,0,0
5:55.156,127856,),0,0,2
5:55.364,127931,(,0,0,0
5:55.389,127940,p,0,0,0
5:55.456,127964,),0,0,0
5:55.489,127976,(,0,0,1
5:55.600,128016,N,0,0,0
5:55.656,128036,),0,0,1
5:55.728,128062,(,0,0,2
5:55.864,128111,t,0,0,0
5:55.981,128153,),0,0,2
5:56.158,128217,(,0,0,0
5:56.244,128248,p,0,0,0
5:56.292,128265,),0,0,0
5:56.303,128269,(,0,0,1
5:56.433,128316,N,0,0,0
5:56.472,128330,),0,0,1
5:56.614,128381,(,0,0,2
5:56.719,128419,t,0,0,0
5:56.839,128462,),0,0,2
5:57.058,128541,(,0,0,0
5:57.139,128570,p,0,0,0
5:57.200,128592,),0,0,0
5:57.233,128604,(,0,0,1
5:57.333,128640,N,0,0,0
5:57.361,128650,),0,0,1
5:57.367,128652,(,0,0,2
5:57.608,128739,t,0,0,0
5:57.733,128784,),0,0,2
5:59.581,129449,(,0,0,0
5:59.650,129474,p,0,0,0
5:59.689,129488,),0,0,0
5:59.744,129508,(,0,0,1
5:59.853,129547,N,0,0,0
5:59.908,129567,),0,0,1
5:59.992,129597,(,0,0,2
6:00.103,129637,t,0,0,0
6:00.217,129678,),0,0,2
6:00.408,129747,(,0,0,0
6:00.447,129761,p,0,0,0
6:00.500,129780,),0,0,0
6:00.533,129792,(,0,0,1
6:00.639,129830,N,0,0,0
6:00.694,129850,),0,0,1
6:00.778,129880,(,0,0,2
6:00.883,129918,t,0,0,0
6:00.994,129958,),0,0,2
6:03.700,130932,(,0,0,0
6:03.719,130939,p,0,0,0
6:03.772,130958,),0,0,0
6:03.997,131039,(,0,0,1
6:04.108,131079,N,0,0,0
6:04.111,131080,),0,0,1
6:04.114,131081,(,0,0,2
6:04.369,131173,t,0,0,0
6:04.492,131217,),0,0,2
6:04.711,131296,(,0,0,0
6:04.742,131307,p,0,0,0
6:04.803,131329,),0,0,0
6:04.842,131343,(,0,0,1
6:04.953,131383,N,0,0,0
6:05.011,131404,),0,0,1
6:05.106,131438,(,0,0,2
6:05.211,131476,t,0,0,0
6:05.325,131517,),0,0,2
6:05.403,131545,(,0,0,0
6:05.439,131558,p,0,0,0
6:05.464,131567,),0,0,0
6:05.661,131638,(,0,0,1
6:05.764,131675,N,0,0,0
6:05.822,131696,),0,0,1
6:05.883,131718,(,0,0,2
6:06.006,131762,t,0,0,0
6:06.122,131804,),0,0,2
6:06.328,131878,(,0,0,0
6:06.356,131888,p,0,0,0
6:06.389,131900,),0,0,0
6:06.456,131924,(,0,0,1
6:06.564,131963,N,0,0,0
6:06.619,131983,),0,0,1
6:06.697,132011,(,0,0,2
6:06.814,132053,t,0,0,0
6:06.947,132101,),0,0,2
6:07.164,132179,(,0,0,0
6:07.228,132202,p,0,0,0
6:07.256,132212,),0,0,0
6:07.289,132224,(,0,0,1
6:07.408,132267,N,0,0,0
6:07.408,132267,),0,0,1
6:07.411,132268,(,0,0,2
6:07.689,132368,t,0,0,0
6:07.811,132412,),0,0,2
6:08.003,132481,(,0,0,0
6:08.061,132502,p,0,0,0
6:08.122,132524,),0,0,0
6:08.156,132536,(,0,0,1
6:08.275,132579,N,0,0,0
6:08.325,132597,),0,0,1
6:08.433,132636,(,0,0,2
6:08.550,132678,t,0,0,0
6:08.675,132723,),0,0,2
6:09.689,133088,(,0,0,0
6:09.781,133121,p,0,0,0
6:09.844,133144,),0,0,0
6:09.894,133162,(,0,0,1
6:10.014,133205,N,0,0,0
6:10.069,133225,),0,0,1
6:10.181,133265,(,0,0,2
6:10.286,133303,t,0,0,0
6:10.414,133349,),0,0,2
6:10.672,133442,(,0,0,0
6:10.708,133455,p,0,0,0
6:10.733,133464,),0,0,0
6:10.767,133476,(,0,0,1
6:10.881,133517,N,0,0,0
6:10.922,133532,),0,0,1
6:11.025,133569,(,0,0,2
6:11.139,133610,t,0,0,0
6:11.258,133653,),0,0,2
6:11.400,133704,(,0,0,0
6:11.508,133743,p,0,0,0
6:11.542,133755,),0,0,0
6:11.583,133770,(,0,0,1
6:11.689,133808,N,0,0,0
6:11.750,133830,),0,0,1
6:11.833,133860,(,0,0,2
6:11.944,133900,t,0,0,0
6:12.069,133945,),0,0,2
6:12.222,134000,(,0,0,0
6:12.286,134023,p,0,0,0
6:12.353,134047,),0,0,0
6:12.389,134060,(,0,0,1
6:12.489,134096,N,0,0,0
6:12.544,134116,),0,0,1
6:12.631,134147,(,0,0,2
6:12.731,134183,t,0,0,0
6:12.856,134228,),0,0,2
6:12.972,134270,(,0,0,0
6:12.997,134279,p,0,0,0
6:13.028,134290,),0,0,0
6:13.183,134346,(,0,0,1
6:13.286,134383,N,0,0,0
6:13.339,134402,),0,0,1
6:13.444,134440,(,0,0,2
6:13.533,134472,t,0,0,0
6:13.653,134515,),0,0,2
6:13.722,134540,(,0,0,0
6:13.747,134549,p,0,0,0
6:13.844,134584,),0,0,0
6:14.028,134650,(,0,0,1
6:14.139,134690,N,0,0,0
6:14.206,134714,),0,0,1
6:14.414,134789,(,0,0,2
6:14.583,134850,t,0,0,1
6:14.789,134924,),0,0,2
6:15.467,135168,(,0,0,0
6:15.483,135174,p,0,0,0
6:15.611,135220,),0,0,0
6:15.689,135248,(,0,0,1
6:15.800,135288,N,0,0,0
6:15.861,135310,),0,0,1
6:16.092,135393,(,0,0,2
6:16.339,135482,t,0,0,1
6:16.447,135521,),0,0,2
6:17.603,135937,(,0,0,0
6:17.633,135948,p,0,0,0
6:17.661,135958,),0,0,0
6:17.728,135982,(,0,0,1
6:17.831,136019,N,0,0,0
6:17.889,136040,),0,0,1
6:17.969,136069,(,0,0,2
6:18.064,136103,t,0,0,0
6:18.228,136162,),0,0,2
6:18.283,136182,(,0,0,0
6:18.378,136216,p,0,0,0
6:18.414,136229,),0,0,0
6:18.517,136266,(,0,0,1
6:18.622,136304,N,0,0,0
6:18.669,136321,),0,0,1
6:18.781,136361,(,0,0,2
6:18.886,136399,t,0,0,0
6:19.014,136445,),0,0,2
6:19.275,136539,(,0,0,0
6:19.311,136552,p,0,0,0
6:19.339,136562,),0,0,0
6:19.372,136574,(,0,0,1
6:19.489,136616,N,0,0,0
6:19.492,136617,),0,0,1
6:19.497,136619,(,0,0,2
6:19.756,136712,t,0,0,0
6:19.881,136757,),0,0,2
6:19.986,136795,(,0,0,0
6:20.022,136808,p,0,0,0
6:20.033,136812,),0,0,0
6:20.239,136886,(,0,0,1
6:20.364,136931,N,0,0,0
6:20.428,136954,),0,0,1
6:20.547,136997,(,0,0,2
6:20.644,137032,t,0,0,0
6:20.792,137085,),0,0,2
6:20.928,137134,(,0,0,0
6:20.986,137155,p,0,0,0
6:21.028,137170,),0,0,0
6:21.147,137213,(,0,0,1
6:21.258,137253,N,0,0,0
6:21.328,137278,),0,0,1
6:21.406,137306,(,0,0,2
6:21.533,137352,t,0,0,0
6:21.672,137402,),0,0,2
6:21.828,137458,(,0,0,0
6:21.889,137480,p,0,0,0
6:21.969,137509,),0,0,0
6:21.981,137513,(,0,0,1
6:22.122,137564,N,0,0,0
6:22.125,137565,),0,0,1
6:22.131,137567,(,0,0,2
6:22.389,137660,t,0,0,0
6:22.517,137706,),0,0,2
6:22.700,137772,(,0,0,0
6:22.792,137805,p,0,0,0
6:22.833,137820,),0,0,0
6:22.858,137829,(,0,0,1
6:22.964,137867,N,0,0,0
6:23.019,137887,),0,0,1
6:23.111,137920,(,0,0,2
6:23.214,137957,t,0,0,0
6:23.322,137996,),0,0,2
6:23.578,138088,(,0,0,0
6:23.606,138098,p,0,0,0
6:23.642,138111,),0,0,0
6:23.669,138121,(,0,0,1
6:23.778,138160,N,0,0,0
6:23.778,138160,),0,0,1
6:23.781,138161,(,0,0,2
6:24.025,138249,t,0,0,0
6:24.147,138293,),0,0,2
6:24.256,138332,(,0,0,0
6:24.292,138345,p,0,0,0
6:24.322,138356,),0,0,0
6:24.475,138411,(,0,0,1
6:24.583,138450,N,0,0,0
6:24.589,138452,),0,0,1
6:24.594,138454,(,0,0,2
6:24.853,138547,t,0,0,0
6:24.967,138588,),0,0,2
6:25.153,138655,(,0,0,0
6:25.206,138674,p,0,0,0
6:25.261,138694,),0,0,0
6:25.294,138706,(,0,0,1
6:25.406,138746,N,0,0,0
6:25.408,138747,),0,0,1
6:25.411,138748,(,0,0,2
6:25.667,138840,t,0,0,0
6:25.797,138887,),0,0,2
6:25.892,138921,(,0,0,0
6:26.000,138960,p,0,0,0
6:26.033,138972,),0,0,0
6:26.147,139013,(,0,0,1
6:26.261,139054,N,0,0,0
6:26.322,139076,),0,0,1
6:26.394,139102,(,0,0,2
6:26.531,139151,t,0,0,0
6:26.669,139201,),0,0,2
6:27.039,139334,(,0,0,1
6:27.156,139376,N,0,0,0
6:27.158,139377,),0,0,1
6:27.556,139520,(,0,0,1
6:27.631,139547,N,0,0,0
6:27.647,139553,),0,0,1
6:27.686,139567,(,0,0,2
6:27.861,139630,t,0,0,0
6:28.044,139696,),0,0,2
6:28.306,139790,(,0,0,0
6:28.361,139810,p,0,0,0
6:28.433,139836,),0,0,0
6:28.489,139856,(,0,0,1
6:28.597,139895,N,0,0,0
6:28.653,139915,),0,0,1
6:28.736,139945,(,0,0,2
6:28.861,139990,t,0,0,0
6:29.033,140052,),0,0,2
6:29.103,140077,(,0,0,0
6:29.161,140098,p,0,0,0
6:29.181,140105,),0,0,0
6:29.331,140159,(,0,0,1
6:29.436,140197,N,0,0,0
6:29.494,140218,),0,0,1
6:29.544,140236,(,0,0,2
6:29.681,140285,t,0,0,0
6:29.794,140326,),0,0,2
6:29.972,140390,(,0,0,0
6:30.025,140409,p,0,0,0
6:30.092,140433,),0,0,0
6:30.122,140444,(,0,0,1
6:30.225,140481,N,0,0,0
6:30.267,140496,),0,0,1
6:30.353,140527,(,0,0,2
6:30.461,140566,t,0,0,0
6:30.583,140610,),0,0,2
6:30.653,140635,(,0,0,0
6:30.742,140667,p,0,0,0
6:30.772,140678,),0,0,0
6:30.922,140732,(,0,0,1
6:31.031,140771,N,0,0,0
6:31.092,140793,),0,0,1
6:31.164,140819,(,0,0,2
6:31.286,140863,t,0,0,0
6:31.414,140909,),0,0,2
6:31.533,140952,(,0,0,0
6:31.619,140983,p,0,0,0
6:31.667,141000,),0,0,0
6:31.750,141030,(,0,0,1
6:31.867,141072,N,0,0,0
6:31.928,141094,),0,0,1
6:31.992,141117,(,0,0,2
6:32.147,141173,t,0,0,0
6:32.275,141219,),0,0,2
6:32.347,141245,(,0,0,0
6:32.431,141275,p,0,0,0
6:32.442,141279,),0,0,0
6:32.639,141350,(,0,0,1
6:32.764,141395,N,0,0,0
6:32.828,141418,),0,0,1
6:32.944,141460,(,0,0,2
6:33.064,141503,t,0,0,0
6:33.222,141560,),0,0,2
6:33.414,141629,(,0,0,0
6:33.494,141658,p,0,0,0
6:33.567,141684,),0,0,0
6:33.644,141712,(,0,0,1
6:33.758,141753,N,0,0,0
6:33.817,141774,),0,0,1
6:33.933,141816,(,0,0,2
6:34.025,141849,t,0,0,0
6:34.156,141896,),0,0,2
6:34.386,141979,(,0,0,0
6:34.433,141996,p,0,0,0
6:34.467,142008,),0,0,0
6:34.500,142020,(,0,0,1
6:34.614,142061,N,0,0,0
6:34.672,142082,),0,0,1
6:34.772,142118,(,0,0,2
6:34.867,142152,t,0,0,0
6:34.983,142194,),0,0,2
6:35.169,142261,(,0,0,0
6:35.211,142276,p,0,0,0
6:35.272,142298,),0,0,0
6:35.306,142310,(,0,0,1
6:35.417,142350,N,0,0,0
6:35.469,142369,),0,0,1
6:35.564,142403,(,0,0,2
6:35.661,142438,t,0,0,0
6:35.792,142485,),0,0,2
6:36.003,142561,(,0,0,0
6:36.033,142572,p,0,0,0
6:36.086,142591,),0,0,0
6:36.119,142603,(,0,0,1
6:36.228,142642,N,0,0,0
6:36.286,142663,),0,0,1
6:36.364,142691,(,0,0,2
6:36.492,142737,t,0,0,0
6:36.614,142781,),0,0,2
6:36.750,142830,(,0,0,0
6:36.778,142840,p,0,0,0
6:36.800,142848,),0,0,0
6:36.967,142908,(,0,0,1
6:37.072,142946,N,0,0,0
6:37.119,142963,),0,0,1
6:37.219,142999,(,0,0,2
6:37.333,143040,t,0,0,0
6:37.458,143085,),0,0,2
6:37.714,143177,(,0,0,0
6:37.750,143190,p,0,0,0
6:37.781,143201,),0,0,0
6:37.819,143215,(,0,0,1
6:37.939,143258,N,0,0,0
6:37.939,143258,),0,0,1
6:37.944,143260,(,0,0,2
6:38.219,143359,t,0,0,0
6:38.328,143398,),0,0,2
6:38.572,143486,(,0,0,0
6:38.625,143505,p,0,0,0
6:38.669,143521,),0,0,0
6:38.708,143535,(,0,0,1
6:38.836,143581,N,0,0,0
6:38.839,143582,),0,0,1
6:38.842,143583,(,0,0,2
6:39.119,143683,t,0,0,0
6:39.236,143725,),0,0,2
6:39.478,143812,(,0,0,0
6:39.525,143829,p,0,0,0
6:39.569,143845,),0,0,0
6:39.603,143857,(,0,0,1
6:39.714,143897,N,0,0,0
6:39.781,143921,),0,0,1
6:39.886,143959,(,0,0,2
6:39.983,143994,t,0,0,0
6:40.100,144036,),0,0,2
6:40.253,144091,(,0,0,0
6:40.314,144113,p,0,0,0
6:40.347,144125,),0,0,0
6:40.439,144158,(,0,0,1
6:40.553,144199,N,0,0,0
6:40.611,144220,),0,0,1
6:40.733,144264,(,0,0,2
6:40.822,144296,t,0,0,0
6:40.958,144345,),0,0,2
6:41.072,144386,(,0,0,0
6:41.175,144423,p,0,0,0
6:41.206,144434,),0,0,0
6:41.289,144464,(,0,0,1
6:41.400,144504,N,0,0,0
6:41.456,144524,),0,0,1
6:41.572,144566,(,0,0,2
6:41.656,144596,t,0,0,0
6:41.775,144639,),0,0,2
6:42.731,144983,(,0,0,0
6:42.794,145006,p,0,0,0
6:42.864,145031,),0,0,0
6:42.903,145045,(,0,0,1
6:43.014,145085,N,0,0,0
6:43.017,145086,),0,0,1
6:43.019,145087,(,0,0,2
6:43.264,145175,t,0,0,0
6:43.383,145218,),0,0,2
6:43.531,145271,(,0,0,0
6:43.600,145296,p,0,0,0
6:43.653,145315,),0,0,0
6:43.719,145339,(,0,0,1
6:43.831,145379,N,0,0,0
6:43.889,145400,),0,0,1
6:43.983,145434,(,0,0,2
6:44.097,145475,t,0,0,0
6:44.217,145518,),0,0,2
6:45.378,145936,(,0,0,0
6:45.447,145961,p,0,0,0
6:45.497,145979,),0,0,0
6:45.528,145990,(,0,0,1
6:45.636,146029,N,0,0,0
6:45.639,146030,),0,0,1
6:45.642,146031,(,0,0,2
6:45.897,146123,t,0,0,0
6:46.025,146169,),0,0,2
6:46.206,146234,(,0,0,0
6:46.272,146258,p,0,0,0
6:46.344,146284,),0,0,0
6:46.378,146296,(,0,0,1
6:46.494,146338,N,0,0,0
6:46.561,146362,),0,0,1
6:46.647,146393,(,0,0,2
6:46.756,146432,t,0,0,0
6:46.867,146472,),0,0,2
6:47.003,146521,(,0,0,0
6:47.092,146553,p,0,0,0
6:47.164,146579,),0,0,0
6:47.197,146591,(,0,0,1
6:47.308,146631,N,0,0,0
6:47.367,146652,),0,0,1
6:47.453,146683,(,0,0,2
6:47.561,146722,t,0,0,0
6:47.664,146759,),0,0,2
6:47.819,146815,(,0,0,0
6:47.867,146832,p,0,0,0
6:47.961,146866,),0,0,0
6:47.994,146878,(,0,0,1
6:48.106,146918,N,0,0,0
6:48.106,146918,),0,0,1
6:48.108,146919,(,0,0,2
6:48.353,147007,t,0,0,0
6:48.478,147052,),0,0,2
6:48.567,147084,(,0,0,0
6:48.692,147129,p,0,0,0
6:48.744,147148,),0,0,0
6:48.786,147163,(,0,0,1
6:48.894,147202,N,0,0,0
6:48.947,147221,),0,0,1
6:49.042,147255,(,0,0,2
6:49.147,147293,t,0,0,0
6:49.264,147335,),0,0,2
6:49.369,147373,(,0,0,0
6:49.456,147404,p,0,0,0
6:49.503,147421,),0,0,0
6:49.608,147459,(,0,0,1
6:49.667,147480,N,0,0,0
6:49.700,147492,),0,0,1
6:49.825,147537,t,0,0,3
6:49.953,147583,),0,0,2
6:50.131,147647,(,0,0,1
6:50.233,147684,N,0,0,0
6:50.275,147699,),0,0,1
6:50.361,147730,(,0,0,2
6:50.483,147774,t,0,0,1
6:50.683,147846,),0,0,2
6:51.478,148132,(,0,0,0
6:51.542,148155,p,0,0,0
6:51.639,148190,),0,0,0
6:51.761,148234,(,0,0,1
6:51.856,148268,N,0,0,0
6:51.897,148283,),0,0,1
6:51.953,148303,(,0,0,2
6:52.092,148353,t,0,0,1
6:52.289,148424,),0,0,2
6:52.547,148517,(,0,0,0
6:52.603,148537,p,0,0,0
6:52.658,148557,),0,0,0
6:52.689,148568,(,0,0,1
6:52.800,148608,N,0,0,0
6:52.803,148609,),0,0,1
6:52.808,148611,(,0,0,2
6:53.056,148700,t,0,0,0
6:53.208,148755,),0,0,2
6:53.369,148813,(,0,0,1
6:53.458,148845,N,0,0,0
6:53.503,148861,),0,0,1
6:53.572,148886,(,0,0,2
6:53.697,148931,t,0,0,1
6:53.917,149010,),0,0,2
6:54.272,149138,(,0,0,1
6:54.378,149176,N,0,0,0
6:54.436,149197,),0,0,1
6:54.503,149221,(,0,0,2
6:54.619,149263,t,0,0,0
6:54.761,149314,),0,0,2
6:54.911,149368,(,0,0,0
6:54.981,149393,p,0,0,0
6:55.022,149408,),0,0,0
6:55.239,149486,(,0,0,1
6:55.439,149558,N,0,0,0
6:55.483,149574,),0,0,1
6:55.522,149588,(,0,0,2
6:55.658,149637,t,0,0,1
6:55.842,149703,),0,0,2
6:57.892,150441,(,0,0,0
6:57.939,150458,p,0,0,0
6:58.006,150482,),0,0,0
6:58.039,150494,(,0,0,1
6:58.097,150515,N,0,0,0
6:58.133,150528,),0,0,1
6:58.300,150588,(,0,0,2
6:58.389,150620,t,0,0,1
6:58.514,150665,),0,0,2
6:58.906,150806,(,0,0,1
6:59.019,150847,N,0,0,0
6:59.061,150862,),0,0,1
6:59.158,150897,(,0,0,2
6:59.269,150937,t,0,0,0
6:59.397,150983,),0,0,2
6:59.542,151035,(,0,0,0
6:59.575,151047,p,0,0,0
6:59.600,151056,),0,0,0
6:59.711,151096,(,0,0,1
6:59.814,151133,N,0,0,0
6:59.869,151153,),0,0,1
6:59.953,151183,(,0,0,2
7:00.058,151221,t,0,0,0
7:00.192,151269,),0,0,2
7:00.267,151296,(,0,0,0
7:00.369,151333,p,0,0,0
7:00.383,151338,),0,0,0
7:00.506,151382,(,0,0,1
7:00.608,151419,N,0,0,0
7:00.667,151440,),0,0,1
7:00.758,151473,(,0,0,2
7:00.853,151507,t,0,0,0
7:00.981,151553,),0,0,2
7:01.075,151587,(,0,0,0
7:01.108,151599,p,0,0,0
7:01.203,151633,),0,0,0
7:01.306,151670,(,0,0,1
7:01.414,151709,N,0,0,0
7:01.467,151728,),0,0,1
7:01.564,151763,(,0,0,2
7:01.669,151801,t,0,0,0
7:01.794,151846,),0,0,2
7:03.956,152624,(,0,0,1
7:04.064,152663,N,0,0,0
7:04.119,152683,),0,0,1
7:04.231,152723,(,0,0,2
7:04.319,152755,t,0,0,0
7:04.431,152795,),0,0,2
7:04.636,152869,(,0,0,0
7:04.722,152900,p,0,0,0
7:04.750,152910,),0,0,0
7:04.783,152922,(,0,0,1
7:04.892,152961,N,0,0,0
7:04.947,152981,),0,0,1
7:05.050,153018,(,0,0,2
7:05.153,153055,t,0,0,0
7:05.272,153098,),0,0,2
7:05.611,153220,(,0,0,1
7:05.719,153259,N,0,0,0
7:05.719,153259,),0,0,1
7:05.722,153260,(,0,0,2
7:05.958,153345,t,0,0,0
7:06.092,153393,),0,0,2
7:06.147,153413,(,0,0,0
7:06.161,153418,p,0,0,0
7:06.222,153440,),0,0,0
7:06.400,153504,(,0,0,1
7:06.508,153543,N,0,0,0
7:06.567,153564,),0,0,1
7:06.650,153594,(,0,0,2
7:06.753,153631,t,0,0,0
7:06.881,153677,),0,0,2
7:07.206,153794,(,0,0,1
7:07.319,153835,N,0,0,0
7:07.322,153836,),0,0,1
7:07.328,153838,(,0,0,2
7:07.589,153932,t,0,0,0
7:07.731,153983,),0,0,2
7:07.936,154057,(,0,0,0
7:07.992,154077,p,0,0,0
7:08.033,154092,),0,0,0
7:08.067,154104,(,0,0,1
7:08.175,154143,N,0,0,0
7:08.239,154166,),0,0,1
7:08.336,154201,(,0,0,2
7:08.444,154240,t,0,0,0
7:08.581,154289,),0,0,2
7:12.197,155591,(,0,0,0
7:12.253,155611,p,0,0,0
7:12.317,155634,),0,0,0
7:12.361,155650,(,0,0,1
7:12.464,155687,N,0,0,0
7:12.522,155708,),0,0,1
7:12.569,155725,(,0,0,2
7:12.700,155772,t,0,0,0
7:12.853,155827,),0,0,2
7:12.897,155843,(,0,0,0
7:12.986,155875,p,0,0,0
7:13.008,155883,),0,0,0
7:13.164,155939,(,0,0,1
7:13.272,155978,N,0,0,0
7:13.364,156011,),0,0,1
7:13.383,156018,(,0,0,2
7:13.519,156067,t,0,0,0
7:13.636,156109,),0,0,2
7:15.272,156698,(,0,0,0
7:15.414,156749,p,0,0,0
7:15.447,156761,),0,0,0
7:15.481,156773,(,0,0,1
7:15.572,156806,N,0,0,0
7:15.622,156824,),0,0,1
7:15.683,156846,(,0,0,2
7:15.811,156892,t,0,0,1
7:16.019,156967,),0,0,2
7:17.094,157354,(,0,0,0
7:17.158,157377,p,0,0,0
7:17.225,157401,),0,0,0
7:17.258,157413,(,0,0,1
7:17.300,157428,N,0,0,0
7:17.336,157441,),0,0,1
7:17.506,157502,(,0,0,2
7:17.586,157531,t,0,0,1
7:17.703,157573,),0,0,2
7:17.894,157642,(,0,0,0
7:17.914,157649,p,0,0,0
7:17.942,157659,),0,0,0
7:17.978,157672,(,0,0,1
7:18.011,157684,N,0,0,0
7:18.036,157693,),0,0,1
7:18.200,157752,(,0,0,2
7:18.267,157776,t,0,0,1
7:18.397,157823,),0,0,2
7:18.583,157890,(,0,0,0
7:18.661,157918,p,0,0,0
7:18.703,157933,),0,0,0
7:18.736,157945,(,0,0,1
7:18.767,157956,N,0,0,0
7:18.794,157966,),0,0,1
7:18.972,158030,(,0,0,2
7:19.044,158056,t,0,0,1
7:19.172,158102,),0,0,2
7:19.508,158223,(,0,0,1
7:19.547,158237,N,0,0,0
7:19.578,158248,),0,0,1
7:19.747,158309,(,0,0,2
7:19.833,158340,t,0,0,1
7:19.961,158386,),0,0,2
7:21.161,158818,(,0,0,0
7:21.200,158832,p,0,0,0
7:21.250,158850,),0,0,0
7:21.289,158864,(,0,0,1
7:21.397,158903,N,0,0,0
7:21.400,158904,),0,0,1
7:21.403,158905,(,0,0,2
7:21.658,158997,t,0,0,0
7:21.789,159044,),0,0,2
7:22.133,159168,(,0,0,1
7:22.247,159209,N,0,0,0
7:22.308,159231,),0,0,1
7:22.394,159262,(,0,0,2
7:22.503,159301,t,0,0,0
7:22.644,159352,),0,0,2
7:22.742,159387,(,0,0,0
7:22.828,159418,p,0,0,0
7:22.872,159434,),0,0,0
7:22.981,159473,(,0,0,1
7:23.089,159512,N,0,0,0
7:23.131,159527,),0,0,1
7:23.211,159556,t,0,0,2
7:23.328,159598,),0,0,2
7:23.558,159681,(,0,0,1
7:23.647,159713,N,0,0,0
7:23.686,159727,),0,0,1
7:23.747,159749,(,0,0,2
7:23.872,159794,t,0,0,1
7:24.075,159867,),0,0,2
7:24.158,159897,(,0,0,0
7:24.272,159938,p,0,0,0
7:24.308,159951,),0,0,0
7:24.450,160002,(,0,0,1
7:24.561,160042,N,0,0,0
7:24.622,160064,),0,0,1
7:24.689,160088,(,0,0,2
7:24.825,160137,t,0,0,0
7:24.986,160195,),0,0,2
7:25.117,160242,(,0,0,0
7:25.208,160275,p,0,0,0
7:25.256,160292,),0,0,0
7:25.289,160304,(,0,0,1
7:25.394,160342,N,0,0,0
7:25.453,160363,),0,0,1
7:25.517,160386,(,0,0,2
7:25.644,160432,t,0,0,0
7:25.764,160475,),0,0,2
7:25.981,160553,(,0,0,0
7:26.031,160571,p,0,0,0
7:26.092,160593,),0,0,0
7:26.125,160605,(,0,0,1
7:26.242,160647,N,0,0,0
7:26.306,160670,),0,0,1
7:26.389,160700,(,0,0,2
7:26.508,160743,t,0,0,0
7:26.631,160787,),0,0,2
7:26.775,160839,(,0,0,0
7:26.883,160878,p,0,0,0
7:26.922,160892,),0,0,0
7:26.997,160919,(,0,0,1
7:27.114,160961,N,0,0,0
7:27.119,160963,),0,0,1
7:27.167,160980,(,0,0,2
7:27.394,161062,t,0,0,0
7:27.519,161107,),0,0,2
7:27.747,161189,(,0,0,0
7:27.786,161203,p,0,0,0
7:27.833,161220,),0,0,0
7:27.872,161234,(,0,0,1
7:27.986,161275,N,0,0,0
7:28.050,161298,),0,0,1
7:28.153,161335,(,0,0,2
7:28.258,161373,t,0,0,0
7:28.386,161419,),0,0,2
7:28.589,161492,(,0,0,0
7:28.642,161511,p,0,0,0
7:28.686,161527,),0,0,0
7:28.736,161545,(,0,0,1
7:28.847,161585,N,0,0,0
7:28.906,161606,),0,0,1
7:29.000,161640,(,0,0,2
7:29.103,161677,t,0,0,0
7:29.219,161719,),0,0,2
7:29.319,161755,(,0,0,0
7:29.436,161797,p,0,0,0
7:29.489,161816,),0,0,0
7:29.564,161843,(,0,0,1
7:29.669,161881,N,0,0,0
7:29.714,161897,),0,0,1
7:29.778,161920,t,0,0,2
7:29.911,161968,),0,0,2
7:30.169,162061,(,0,0,1
7:30.250,162090,N,0,0,0
7:30.292,162105,),0,0,1
7:30.356,162128,(,0,0,2
7:30.478,162172,t,0,0,1
7:30.681,162245,),0,0,2
7:30.906,162326,(,0,0,0
7:30.942,162339,p,0,0,0
7:31.011,162364,),0,0,0
7:31.044,162376,(,0,0,1
7:31.072,162386,N,0,0,0
7:31.100,162396,),0,0,1
7:31.144,162412,(,0,0,2
7:31.294,162466,t,0,0,0
7:31.461,162526,),0,0,2
7:32.683,162966,(,0,0,0
7:32.708,162975,p,0,0,0
7:32.736,162985,),0,0,0
7:32.769,162997,(,0,0,1
7:32.886,163039,N,0,0,0
7:32.886,163039,),0,0,1
7:32.889,163040,(,0,0,2
7:33.156,163136,t,0,0,0
7:33.292,163185,),0,0,2
7:33.667,163320,(,0,0,1
7:33.781,163361,N,0,0,0
7:33.828,163378,),0,0,1
7:33.906,163406,t,0,0,2
7:34.039,163454,),0,0,2
7:34.078,163468,(,0,0,0
7:34.147,163493,p,0,0,0
7:34.244,163528,),0,0,0
7:34.297,163547,(,0,0,1
7:34.386,163579,N,0,0,0
7:34.425,163593,),0,0,1
7:34.489,163616,(,0,0,2
7:34.625,163665,t,0,0,1
7:34.856,163748,),0,0,2
7:35.853,164107,(,0,0,0
7:35.925,164133,p,0,0,0
7:35.972,164150,),0,0,0
7:36.014,164165,(,0,0,1
7:36.119,164203,N,0,0,0
7:36.178,164224,),0,0,1
7:36.253,164251,(,0,0,2
7:36.364,164291,t,0,0,0
7:36.489,164336,),0,0,2
7:36.686,164407,(,0,0,0
7:36.789,164444,p,0,0,0
7:36.814,164453,),0,0,0
7:36.847,164465,(,0,0,1
7:36.961,164506,N,0,0,0
7:37.025,164529,),0,0,1
7:37.100,164556,(,0,0,2
7:37.225,164601,t,0,0,0
7:37.361,164650,),0,0,2
7:37.514,164705,(,0,0,0
7:37.597,164735,p,0,0,0
7:37.669,164761,),0,0,0
7:37.703,164773,(,0,0,1
7:37.814,164813,N,0,0,0
7:37.875,164835,),0,0,1
7:37.961,164866,(,0,0,2
7:38.089,164912,t,0,0,0
7:38.203,164953,),0,0,2
7:38.339,165002,(,0,0,1
7:38.428,165034,N,0,0,0
7:38.475,165051,),0,0,1
7:38.517,165066,t,0,0,3
7:38.669,165121,),0,0,2
7:38.708,165135,(,0,0,1
7:38.858,165189,N,0,0,0
7:39.031,165251,),0,0,1
7:39.081,165269,t,0,0,2
7:39.208,165315,),0,0,2
7:40.381,165737,(,0,0,0
7:40.425,165753,p,0,0,0
7:40.467,165768,),0,0,0
7:40.503,165781,(,0,0,1
7:40.536,165793,N,0,0,0
7:40.564,165803,),0,0,1
7:40.714,165857,(,0,0,2
7:40.803,165889,t,0,0,1
7:40.922,165932,),0,0,2
7:41.100,165996,(,0,0,0
7:41.136,166009,p,0,0,0
7:41.214,166037,),0,0,0
7:41.311,166072,(,0,0,1
7:41.347,166085,N,0,0,0
7:41.375,166095,),0,0,1
7:41.544,166156,(,0,0,2
7:41.625,166185,t,0,0,1
7:41.783,166242,),0,0,2
7:41.950,166302,(,0,0,0
7:42.000,166320,p,0,0,0
7:42.031,166331,),0,0,0
7:42.086,166351,(,0,0,1
7:42.122,166364,N,0,0,0
7:42.150,166374,),0,0,1
7:42.314,166433,(,0,0,2
7:42.392,166461,t,0,0,1
7:42.494,166498,),0,0,2
7:42.767,166596,(,0,0,0
7:42.797,166607,p,0,0,0
7:42.833,166620,),0,0,0
7:42.906,166646,(,0,0,1
7:42.961,166666,N,0,0,0
7:42.992,166677,),0,0,1
7:43.153,166735,(,0,0,2
7:43.239,166766,t,0,0,1
7:43.342,166803,),0,0,2
7:43.475,166851,(,0,0,1
7:43.564,166883,N,0,0,0
7:43.611,166900,),0,0,1
7:43.683,166926,(,0,0,2
7:43.803,166969,t,0,0,1
7:44.003,167041,),0,0,2
7:44.161,167098,(,0,0,0
7:44.242,167127,p,0,0,0
7:44.258,167133,),0,0,0
7:44.406,167186,(,0,0,1
7:44.508,167223,N,0,0,0
7:44.508,167223,),0,0,1
7:44.517,167226,(,0,0,2
7:44.769,167317,t,0,0,0
7:44.883,167358,),0,0,2
7:45.953,167743,(,0,0,0
7:46.031,167771,p,0,0,0
7:46.083,167790,),0,0,0
7:46.172,167822,(,0,0,1
7:46.283,167862,N,0,0,0
7:46.286,167863,),0,0,1
7:46.292,167865,(,0,0,2
7:46.539,167954,t,0,0,0
7:46.675,168003,),0,0,2
7:46.775,168039,(,0,0,0
7:46.875,168075,p,0,0,0
7:46.908,168087,),0,0,0
7:47.017,168126,(,0,0,1
7:47.125,168165,N,0,0,0
7:47.183,168186,),0,0,1
7:47.267,168216,(,0,0,2
7:47.369,168253,t,0,0,0
7:47.492,168297,),0,0,2
7:47.614,168341,(,0,0,1
7:47.697,168371,N,0,0,0
7:47.739,168386,),0,0,1
7:47.794,168406,(,0,0,2
7:47.925,168453,t,0,0,1
7:48.131,168527,),0,0,2
7:48.386,168619,(,0,0,0
7:48.439,168638,p,0,0,0
7:48.461,168646,),0,0,0
7:48.494,168658,(,0,0,1
7:48.603,168697,N,0,0,0
7:48.664,168719,),0,0,1
7:48.711,168736,(,0,0,2
7:48.861,168790,t,0,0,0
7:49.003,168841,),0,0,2
7:49.056,168860,(,0,0,0
7:49.164,168899,p,0,0,0
7:49.189,168908,),0,0,0
7:49.314,168953,(,0,0,1
7:49.414,168989,N,0,0,0
7:49.475,169011,),0,0,1
7:49.544,169036,(,0,0,2
7:49.653,169075,t,0,0,0
7:49.769,169117,),0,0,2
7:50.064,169223,(,0,0,0
7:50.081,169229,p,0,0,0
7:50.111,169240,),0,0,0
7:50.164,169259,(,0,0,1
7:50.272,169298,N,0,0,0
7:50.331,169319,),0,0,1
7:50.419,169351,(,0,0,2
7:50.544,169396,t,0,0,0
7:50.683,169446,),0,0,2
7:50.839,169502,(,0,0,1
7:50.942,169539,N,0,0,0
7:50.989,169556,),0,0,1
7:51.081,169589,(,0,0,2
7:51.214,169637,t,0,0,1
7:51.436,169717,),0,0,2
7:52.522,170108,(,0,0,0
7:52.547,170117,p,0,0,0
7:52.639,170150,),0,0,0
7:52.672,170162,(,0,0,1
7:52.778,170200,N,0,0,0
7:52.856,170228,),0,0,1
7:52.906,170246,(,0,0,2
7:53.022,170288,t,0,0,0
7:53.142,170331,),0,0,2
7:53.303,170389,(,0,0,0
7:53.328,170398,p,0,0,0
7:53.350,170406,),0,0,0
7:53.489,170456,(,0,0,1
7:53.517,170466,N,0,0,0
7:53.553,170479,),0,0,1
7:53.594,170494,(,0,0,2
7:53.739,170546,t,0,0,0
7:53.900,170604,),0,0,2
7:54.772,170918,(,0,0,0
7:54.850,170946,p,0,0,0
7:54.903,170965,),0,0,0
7:55.086,171031,(,0,0,1
7:55.122,171044,N,0,0,0
7:55.150,171054,),0,0,1
7:55.322,171116,(,0,0,2
7:55.406,171146,t,0,0,1
7:55.533,171192,),0,0,2
7:55.844,171304,(,0,0,0
7:55.875,171315,p,0,0,0
7:55.925,171333,),0,0,0
7:55.958,171345,(,0,0,1
7:55.989,171356,N,0,0,0
7:56.019,171367,),0,0,1
7:56.181,171425,(,0,0,2
7:56.272,171458,t,0,0,1
7:56.400,171504,),0,0,2
7:56.681,171605,(,0,0,0
7:56.708,171615,p,0,0,0
7:56.747,171629,),0,0,0
7:56.781,171641,(,0,0,1
7:56.814,171653,N,0,0,0
7:56.844,171664,),0,0,1
7:57.022,171728,(,0,0,2
7:57.106,171758,t,0,0,1
7:57.228,171802,),0,0,2
7:57.511,171904,(,0,0,0
7:57.550,171918,p,0,0,0
7:57.581,171929,),0,0,0
7:57.614,171941,(,0,0,1
7:57.653,171955,N,0,0,0
7:57.681,171965,),0,0,1
7:57.853,172027,(,0,0,2
7:57.933,172056,t,0,0,1
7:58.058,172101,),0,0,2
7:58.308,172191,(,0,0,0
7:58.386,172219,p,0,0,0
7:58.447,172241,),0,0,0
7:58.481,172253,(,0,0,1
7:58.517,172266,N,0,0,0
7:58.550,172278,),0,0,1
7:58.728,172342,(,0,0,2
7:58.817,172374,t,0,0,1
7:58.942,172419,),0,0,2
7:59.328,172558,(,0,0,1
7:59.439,172598,N,0,0,0
7:59.497,172619,),0,0,1
7:59.589,172652,(,0,0,2
7:59.689,172688,t,0,0,0
7:59.833,172740,),0,0,2
7:59.933,172776,(,0,0,0
7:59.989,172796,p,0,0,0
8:00.050,172818,),0,0,0
8:00.131,172847,(,0,0,1
8:00.233,172884,N,0,0,0
8:00.289,172904,),0,0,1
8:00.367,172932,(,0,0,2
8:00.475,172971,t,0,0,0
8:00.611,173020,),0,0,2
8:00.944,173140,(,0,0,1
8:01.047,173177,N,0,0,0
8:01.089,173192,),0,0,1
8:01.189,173228,(,0,0,2
8:01.294,173266,t,0,0,0
8:01.425,173313,),0,0,2
8:01.747,173429,(,0,0,1
8:01.856,173468,N,0,0,0
8:01.919,173491,),0,0,1
8:01.983,173514,(,0,0,2
8:02.117,173562,t,0,0,0
8:02.253,173611,),0,0,2
8:13.936,177817,(,0,0,0
8:13.997,177839,p,0,0,0
8:14.069,177865,),0,0,0
8:14.156,177896,(,0,0,1
8:14.244,177928,N,0,0,0
8:14.289,177944,),0,0,1
8:14.378,177976,(,0,0,2
8:14.494,178018,t,0,0,1
8:14.703,178093,),0,0,2
8:14.958,178185,(,0,0,0
8:14.994,178198,p,0,0,0
8:15.072,178226,),0,0,0
8:15.153,178255,(,0,0,1
8:15.186,178267,N,0,0,0
8:15.219,178279,),0,0,1
8:15.367,178332,(,0,0,2
8:15.497,178379,t,0,0,1
8:15.639,178430,),0,0,2
8:17.356,179048,(,0,0,0
8:17.428,179074,p,0,0,0
8:17.489,179096,),0,0,0
8:17.608,179139,(,0,0,1
8:17.719,179179,N,0,0,0
8:17.758,179193,),0,0,1
8:17.864,179231,(,0,0,2
8:17.967,179268,t,0,0,5
8:18.142,179331,t,0,0,5
8:18.175,179343,),0,0,2
8:18.192,179349,(,0,0,0
8:18.269,179377,p,0,0,0
8:18.311,179392,),0,0,0
8:18.411,179428,(,0,0,1
8:18.517,179466,N,0,0,0
8:18.572,179486,),0,0,1
8:18.644,179512,(,0,0,2
8:18.764,179555,t,0,0,0
8:18.881,179597,),0,0,2
8:24.264,181535,(,0,0,0
8:24.311,181552,p,0,0,0
8:24.369,181573,),0,0,0
8:24.403,181585,(,0,0,1
8:24.508,181623,N,0,0,0
8:24.561,181642,),0,0,1
8:24.664,181679,(,0,0,2
8:24.764,181715,t,0,0,0
8:24.886,181759,),0,0,2
8:27.908,182847,(,0,0,1
8:28.022,182888,N,0,0,0
8:28.028,182890,),0,0,1
8:28.033,182892,(,0,0,2
8:28.289,182984,t,0,0,0
8:28.414,183029,),0,0,2
8:36.144,185812,(,0,0,0
8:36.178,185824,p,0,0,0
8:36.203,185833,),0,0,0
8:36.236,185845,(,0,0,1
8:36.344,185884,N,0,0,0
8:36.392,185901,),0,0,1
8:36.489,185936,(,0,0,2
8:36.586,185971,t,0,0,0
8:36.714,186017,),0,0,2
8:38.583,186690,(,0,0,0
8:38.667,186720,p,0,0,0
8:38.708,186735,),0,0,0
8:38.853,186787,(,0,0,1
8:38.967,186828,N,0,0,0
8:38.967,186828,),0,0,1
8:38.972,186830,(,0,0,2
8:39.233,186924,t,0,0,0
8:39.364,186971,),0,0,2
8:42.797,188207,(,0,0,0
8:42.894,188242,p,0,0,0
8:42.917,188250,),0,0,0
8:43.025,188289,(,0,0,1
8:43.133,188328,N,0,0,0
8:43.192,188349,),0,0,1
8:43.275,188379,(,0,0,2
8:43.386,188419,t,0,0,0
8:43.522,188468,),0,0,2
8:43.614,188501,(,0,0,0
8:43.697,188531,p,0,0,0
8:43.742,188547,),0,0,0
8:43.856,188588,(,0,0,1
8:43.964,188627,N,0,0,0
8:44.008,188643,),0,0,1
8:44.119,188683,(,0,0,2
8:44.222,188720,t,0,0,0
8:44.339,188762,),0,0,2
8:46.331,189479,(,0,0,0
8:46.375,189495,p,0,0,0
8:46.422,189512,),0,0,0
8:46.458,189525,(,0,0,1
8:46.572,189566,N,0,0,0
8:46.631,189587,),0,0,1
8:46.711,189616,(,0,0,2
8:46.833,189660,t,0,0,0
8:46.953,189703,),0,0,2
8:47.297,189827,(,0,0,1
8:47.408,189867,N,0,0,0
8:47.453,189883,),0,0,1
8:47.547,189917,(,0,0,2
8:47.647,189953,t,0,0,0
8:47.767,189996,),0,0,2
8:47.856,190028,(,0,0,0
8:47.956,190064,p,0,0,0
8:47.986,190075,),0,0,0
8:48.089,190112,(,0,0,1
8:48.194,190150,N,0,0,0
8:48.236,190165,),0,0,1
8:48.336,190201,(,0,0,2
8:48.433,190236,t,0,0,0
8:48.558,190281,),0,0,2
8:48.672,190322,(,0,0,0
8:48.708,190335,p,0,0,0
8:48.731,190343,),0,0,0
8:48.892,190401,(,0,0,1
8:49.006,190442,N,0,0,0
8:49.064,190463,),0,0,1
8:49.150,190494,(,0,0,2
8:49.256,190532,t,0,0,0
8:49.369,190573,),0,0,2
8:51.281,191261,(,0,0,0
8:51.336,191281,p,0,0,0
8:51.394,191302,),0,0,0
8:51.503,191341,(,0,0,1
8:51.614,191381,N,0,0,0
8:51.675,191403,),0,0,1
8:51.750,191430,(,0,0,2
8:51.875,191475,t,0,0,0
8:52.014,191525,),0,0,2
8:53.986,192235,(,0,0,1
8:54.094,192274,N,0,0,0
8:54.139,192290,),0,0,1
8:54.247,192329,(,0,0,2
8:54.347,192365,t,0,0,0
8:54.456,192404,),0,0,2
8:59.692,194289,(,0,0,0
8:59.775,194319,p,0,0,0
8:59.856,194348,),0,0,0
8:59.889,194360,(,0,0,1
8:59.994,194398,N,0,0,0
9:00.078,194428,),0,0,1
9:00.125,194445,(,0,0,2
9:00.239,194486,t,0,0,0
9:00.356,194528,),0,0,2
9:06.322,196676,(,0,0,0
9:06.342,196683,p,0,0,0
9:06.372,196694,),0,0,0
9:06.558,196761,(,0,0,1
9:06.603,196777,N,0,0,0
9:06.636,196789,),0,0,1
9:06.717,196818,t,0,0,3
9:06.872,196874,),0,0,2
9:07.058,196941,(,0,0,1
9:07.147,196973,N,0,0,0
9:07.186,196987,),0,0,1
9:07.253,197011,(,0,0,2
9:07.381,197057,t,0,0,1
9:07.547,197117,),0,0,2
9:12.094,198754,(,0,0,1
9:12.197,198791,N,0,0,0
9:12.239,198806,),0,0,1
9:12.350,198846,(,0,0,2
9:12.436,198877,t,0,0,0
9:12.550,198918,),0,0,2
9:12.878,199036,(,0,0,1
9:13.014,199085,N,0,0,0
9:13.103,199117,),0,0,1
9:13.172,199142,(,0,0,2
9:13.258,199173,t,0,0,0
9:13.364,199211,),0,0,2
9:13.708,199335,(,0,0,1
9:13.836,199381,N,0,0,0
9:13.922,199412,),0,0,1
9:13.986,199435,(,0,0,2
9:14.092,199473,t,0,0,0
9:14.214,199517,),0,0,2
9:15.442,199959,(,0,0,1
9:15.561,200002,N,0,0,0
9:15.622,200024,),0,0,1
9:15.689,200048,(,0,0,2
9:15.831,200099,t,0,0,0
9:15.958,200145,),0,0,2
9:15.986,200155,(,0,0,0
9:16.008,200163,p,0,0,0
9:16.094,200194,),0,0,0
9:16.294,200266,(,0,0,1
9:16.425,200313,N,0,0,0
9:16.425,200313,),0,0,1
9:16.428,200314,(,0,0,2
9:16.694,200410,t,0,0,0
9:16.808,200451,),0,0,2
9:17.144,200572,(,0,0,1
9:17.267,200616,N,0,0,0
9:17.322,200636,),0,0,1
9:17.403,200665,(,0,0,2
9:17.511,200704,t,0,0,0
9:17.628,200746,),0,0,2
9:17.756,200792,(,0,0,0
9:17.864,200831,p,0,0,0
9:17.922,200852,),0,0,0
9:17.956,200864,(,0,0,1
9:18.056,200900,N,0,0,0
9:18.058,200901,),0,0,1
9:18.064,200903,(,0,0,2
9:18.292,200985,t,0,0,0
9:18.400,201024,),0,0,2
9:18.744,201148,(,0,0,1
9:18.858,201189,N,0,0,0
9:18.922,201212,),0,0,1
9:18.994,201238,(,0,0,2
9:19.103,201277,t,0,0,0
9:19.219,201319,),0,0,2
9:19.328,201358,(,0,0,0
9:19.372,201374,p,0,0,0
9:19.481,201413,),0,0,0
9:19.578,201448,(,0,0,1
9:19.689,201488,N,0,0,0
9:19.692,201489,),0,0,1
9:19.694,201490,(,0,0,2
9:19.958,201585,t,0,0,0
9:20.089,201632,),0,0,2
9:20.478,201772,(,0,0,1
9:20.503,201781,N,0,0,0
9:20.558,201801,),0,0,1
9:21.394,202102,(,0,0,1
9:21.436,202117,N,0,0,0
9:21.464,202127,),0,0,1
9:21.631,202187,(,0,0,2
9:21.728,202222,t,0,0,1
9:21.861,202270,),0,0,2
9:23.475,202851,(,0,0,0
9:23.506,202862,p,0,0,0
9:23.603,202897,),0,0,0
9:23.711,202936,(,0,0,1
9:23.822,202976,N,0,0,0
9:23.878,202996,),0,0,1
9:23.928,203014,(,0,0,2
9:24.056,203060,t,0,0,0
9:24.194,203110,),0,0,2
9:24.506,203222,(,0,0,1
9:24.617,203262,N,0,0,0
9:24.678,203284,),0,0,1
9:24.767,203316,(,0,0,2
9:24.872,203354,t,0,0,0
9:25.000,203400,),0,0,2
9:25.347,203525,(,0,0,1
9:25.444,203560,N,0,0,0
9:25.444,203560,),0,0,1
9:25.453,203563,(,0,0,2
9:25.703,203653,t,0,0,0
9:25.811,203692,),0,0,2
9:26.211,203836,(,0,0,1
9:26.325,203877,N,0,0,0
9:26.328,203878,),0,0,1
9:26.331,203879,(,0,0,2
9:26.608,203979,t,0,0,0
9:26.742,204027,),0,0,2
9:27.114,204161,(,0,0,1
9:27.244,204208,N,0,0,0
9:27.311,204232,),0,0,1
9:27.403,204265,(,0,0,2
9:27.506,204302,t,0,0,0
9:27.642,204351,),0,0,2
9:27.981,204473,(,0,0,1
9:28.089,204512,N,0,0,0
9:28.092,204513,),0,0,1
9:28.094,204514,(,0,0,2
9:28.356,204608,t,0,0,0
9:28.486,204655,),0,0,2
9:28.814,204773,(,0,0,1
9:28.953,204823,N,0,0,0
9:29.014,204845,),0,0,1
9:29.097,204875,(,0,0,2
9:29.214,204917,t,0,0,0
9:29.325,204957,),0,0,2
9:29.664,205079,(,0,0,1
9:29.767,205116,N,0,0,0
9:29.825,205137,),0,0,1
9:29.906,205166,(,0,0,2
9:30.017,205206,t,0,0,0
9:30.131,205247,),0,0,2
9:30.308,205311,(,0,0,0
9:30.342,205323,p,0,0,0
9:30.372,205334,),0,0,0
9:30.464,205367,(,0,0,1
9:30.567,205404,N,0,0,0
9:30.625,205425,),0,0,1
9:30.717,205458,(,0,0,2
9:30.819,205495,t,0,0,0
9:30.936,205537,),0,0,2
9:31.278,205660,(,0,0,1
9:31.389,205700,N,0,0,0
9:31.450,205722,),0,0,1
9:31.531,205751,(,0,0,2
9:31.639,205790,t,0,0,0
9:31.761,205834,),0,0,2
9:32.114,205961,(,0,0,1
9:32.228,206002,N,0,0,0
9:32.289,206024,),0,0,1
9:32.369,206053,(,0,0,2
9:32.494,206098,t,0,0,0
9:32.622,206144,),0,0,2
9:32.764,206195,(,0,0,0
9:32.817,206214,p,0,0,0
9:32.856,206228,),0,0,0
9:32.947,206261,(,0,0,1
9:33.094,206314,N,0,0,0
9:33.094,206314,),0,0,1
9:33.097,206315,(,0,0,2
9:33.378,206416,t,0,0,0
9:33.514,206465,),0,0,2
9:33.656,206516,(,0,0,0
9:33.708,206535,p,0,0,0
9:33.753,206551,),0,0,0
9:33.861,206590,(,0,0,1
9:33.978,206632,N,0,0,0
9:33.978,206632,),0,0,1
9:33.981,206633,(,0,0,2
9:34.242,206727,t,0,0,0
9:34.378,206776,),0,0,2
9:34.714,206897,(,0,0,1
9:34.831,206939,N,0,0,0
9:34.892,206961,),0,0,1
9:34.989,206996,(,0,0,2
9:35.083,207030,t,0,0,0
9:35.197,207071,),0,0,2
9:35.317,207114,(,0,0,0
9:35.389,207140,p,0,0,0
9:35.447,207161,),0,0,0
9:35.542,207195,(,0,0,1
9:35.647,207233,N,0,0,0
9:35.706,207254,),0,0,1
9:35.794,207286,(,0,0,2
9:35.894,207322,t,0,0,0
9:36.011,207364,),0,0,2
9:36.328,207478,(,0,0,1
9:36.433,207516,N,0,0,0
9:36.489,207536,),0,0,1
9:36.581,207569,(,0,0,2
9:36.681,207605,t,0,0,0
9:36.811,207652,),0,0,2
9:36.842,207663,(,0,0,0
9:36.844,207664,p,0,0,0
9:37.000,207720,),0,0,0
9:37.131,207767,(,0,0,1
9:37.244,207808,N,0,0,0
9:37.244,207808,),0,0,1
9:37.250,207810,(,0,0,2
9:37.511,207904,t,0,0,0
9:37.636,207949,),0,0,2
9:38.011,208084,(,0,0,1
9:38.128,208126,N,0,0,0
9:38.189,208148,),0,0,1
9:38.289,208184,(,0,0,2
9:38.394,208222,t,0,0,0
9:38.517,208266,),0,0,2
9:38.578,208288,(,0,0,0
9:38.667,208320,p,0,0,0
9:38.719,208339,),0,0,0
9:38.881,208397,(,0,0,1
9:39.019,208447,N,0,0,0
9:39.075,208467,),0,0,1
9:39.175,208503,(,0,0,2
9:39.289,208544,t,0,0,0
9:39.411,208588,),0,0,2
9:39.714,208697,(,0,0,1
9:39.858,208749,N,0,0,0
9:39.861,208750,),0,0,1
9:39.867,208752,(,0,0,2
9:40.122,208844,t,0,0,0
9:40.253,208891,),0,0,2
9:40.325,208917,(,0,0,0
9:40.350,208926,p,0,0,0
9:40.442,208959,),0,0,0
9:40.581,209009,(,0,0,1
9:40.706,209054,N,0,0,0
9:40.753,209071,),0,0,1
9:40.853,209107,(,0,0,2
9:40.969,209149,t,0,0,0
9:41.100,209196,),0,0,2
9:41.411,209308,(,0,0,1
9:41.531,209351,N,0,0,0
9:41.575,209367,),0,0,1
9:41.642,209391,(,0,0,2
9:41.775,209439,t,0,0,0
9:41.889,209480,),0,0,2
9:42.214,209597,(,0,0,1
9:42.325,209637,N,0,0,0
9:42.383,209658,),0,0,1
9:42.461,209686,(,0,0,2
9:42.575,209727,t,0,0,0
9:42.694,209770,),0,0,2
9:43.044,209896,(,0,0,1
9:43.161,209938,N,0,0,0
9:43.161,209938,),0,0,1
9:43.164,209939,(,0,0,2
9:43.417,210030,t,0,0,0
9:43.542,210075,),0,0,2
9:43.847,210185,(,0,0,1
9:43.983,210234,N,0,0,0
9:44.044,210256,),0,0,1
9:44.136,210289,(,0,0,2
9:44.256,210332,t,0,0,0
9:44.389,210380,),0,0,2
9:44.728,210502,(,0,0,1
9:44.842,210543,N,0,0,0
9:44.842,210543,),0,0,1
9:44.844,210544,(,0,0,2
9:45.111,210640,t,0,0,0
9:45.258,210693,),0,0,2
9:45.392,210741,(,0,0,0
9:45.411,210748,p,0,0,0
9:45.511,210784,),0,0,0
9:45.594,210814,(,0,0,1
9:45.717,210858,N,0,0,0
9:45.775,210879,),0,0,1
9:45.850,210906,(,0,0,2
9:45.989,210956,t,0,0,0
9:46.122,211004,),0,0,2
9:46.461,211126,(,0,0,1
9:46.583,211170,N,0,0,0
9:46.639,211190,),0,0,1
9:46.742,211227,(,0,0,2
9:46.844,211264,t,0,0,0
9:46.961,211306,),0,0,2
9:47.014,211325,(,0,0,0
9:47.094,211354,p,0,0,0
9:47.131,211367,),0,0,0
9:47.264,211415,(,0,0,1
9:47.417,211470,N,0,0,0
9:47.478,211492,),0,0,1
9:47.581,211529,(,0,0,2
9:47.681,211565,t,0,0,0
9:47.800,211608,),0,0,2
9:47.950,211662,(,0,0,0
9:47.989,211676,p,0,0,0
9:48.022,211688,),0,0,0
9:48.128,211726,(,0,0,1
9:48.233,211764,N,0,0,0
9:48.289,211784,),0,0,1
9:48.369,211813,(,0,0,2
9:48.481,211853,t,0,0,0
9:48.606,211898,),0,0,2
9:48.911,212008,(,0,0,1
9:49.022,212048,N,0,0,0
9:49.117,212082,),0,0,1
9:49.153,212095,(,0,0,2
9:49.278,212140,t,0,0,0
9:49.397,212183,),0,0,2
9:49.550,212238,(,0,0,0
9:49.622,212264,p,0,0,0
9:49.669,212281,),0,0,0
9:49.742,212307,(,0,0,1
9:49.847,212345,N,0,0,0
9:49.908,212367,),0,0,1
9:50.011,212404,(,0,0,2
9:50.100,212436,t,0,0,0
9:50.211,212476,),0,0,2
9:50.397,212543,(,0,0,0
9:50.456,212564,p,0,0,0
9:50.547,212597,),0,0,0
9:50.597,212615,(,0,0,1
9:50.717,212658,N,0,0,0
9:50.789,212684,),0,0,1
9:50.883,212718,(,0,0,2
9:50.986,212755,t,0,0,0
9:51.100,212796,),0,0,2
9:51.481,212933,(,0,0,1
9:51.600,212976,N,0,0,0
9:51.656,212996,),0,0,1
9:51.756,213032,(,0,0,2
9:51.872,213074,t,0,0,0
9:51.986,213115,),0,0,2
9:52.022,213128,(,0,0,0
9:52.058,213141,p,0,0,0
9:52.119,213163,),0,0,0
9:52.339,213242,(,0,0,1
9:52.442,213279,N,0,0,0
9:52.475,213291,),0,0,1
9:52.628,213346,(,0,0,2
9:52.706,213374,t,0,0,0
9:52.806,213410,),0,0,2
9:53.039,213494,(,0,0,0
9:53.069,213505,p,0,0,0
9:53.111,213520,),0,0,0
9:53.178,213544,(,0,0,1
9:53.281,213581,N,0,0,0
9:53.336,213601,),0,0,1
9:53.383,213618,(,0,0,2
9:53.528,213670,t,0,0,0
9:53.639,213710,),0,0,2
9:53.883,213798,(,0,0,0
9:53.908,213807,p,0,0,0
9:53.942,213819,),0,0,0
9:53.964,213827,(,0,0,1
9:54.075,213867,N,0,0,0
9:54.131,213887,),0,0,1
9:54.203,213913,(,0,0,2
9:54.325,213957,t,0,0,0
9:54.439,213998,),0,0,2
9:54.461,214006,(,0,0,0
9:54.508,214023,p,0,0,0
9:54.569,214045,),0,0,0
9:54.781,214121,(,0,0,1
9:54.908,214167,N,0,0,0
9:54.911,214168,),0,0,1
9:54.917,214170,(,0,0,2
9:55.172,214262,t,0,0,0
9:55.292,214305,),0,0,2
9:56.008,214563,(,0,0,1
9:56.144,214612,N,0,0,0
9:56.192,214629,),0,0,1
9:56.211,214636,(,0,0,2
9:56.378,214696,t,0,0,0
9:56.578,214768,),0,0,2
9:56.822,214856,(,0,0,0
9:56.889,214880,p,0,0,0
9:56.922,214892,),0,0,0
9:57.011,214924,(,0,0,1
9:57.131,214967,N,0,0,0
9:57.197,214991,),0,0,1
9:57.258,215013,(,0,0,2
9:57.406,215066,t,0,0,0
9:57.522,215108,),0,0,2
9:57.789,215204,(,0,0,1
9:57.881,215237,N,0,0,0
9:57.986,215275,),0,0,1
9:57.989,215276,(,0,0,2
9:58.139,215330,t,0,0,1
9:58.361,215410,),0,0,2
9:58.633,215508,(,0,0,0
9:58.642,215511,p,0,0,0
9:58.683,215526,),0,0,0
9:58.714,215537,(,0,0,1
9:58.742,215547,N,0,0,0
9:58.797,215567,),0,0,1
9:59.064,215663,(,0,0,2
9:59.222,215720,t,0,0,1
9:59.406,215786,),0,0,2
10:03.339,217202,(,0,0,0
10:03.381,217217,p,0,0,0
10:03.442,217239,),0,0,0
10:03.639,217310,(,0,0,1
10:03.753,217351,N,0,0,0
10:03.814,217373,),0,0,1
10:03.903,217405,(,0,0,2
10:04.017,217446,t,0,0,0
10:04.158,217497,),0,0,2
10:04.275,217539,(,0,0,0
10:04.392,217581,p,0,0,0
10:04.419,217591,),0,0,0
10:04.497,217619,(,0,0,1
10:04.608,217659,N,0,0,0
10:04.611,217660,),0,0,1
10:04.614,217661,(,0,0,2
10:04.872,217754,t,0,0,0
10:04.986,217795,),0,0,2
10:05.125,217845,(,0,0,0
10:05.172,217862,p,0,0,0
10:05.286,217903,),0,0,0
10:05.319,217915,(,0,0,1
10:05.428,217954,N,0,0,0
10:05.428,217954,),0,0,1
10:05.431,217955,(,0,0,2
10:05.672,218042,t,0,0,0
10:05.789,218084,),0,0,2
10:05.925,218133,(,0,0,0
10:05.961,218146,p,0,0,0
10:05.989,218156,),0,0,0
10:06.097,218195,(,0,0,1
10:06.214,218237,N,0,0,0
10:06.253,218251,),0,0,1
10:06.347,218285,(,0,0,2
10:06.461,218326,t,0,0,0
10:06.583,218370,),0,0,2
10:06.636,218389,(,0,0,0
10:06.656,218396,p,0,0,0
10:06.764,218435,),0,0,0
10:06.914,218489,(,0,0,1
10:07.031,218531,N,0,0,0
10:07.086,218551,),0,0,1
10:07.167,218580,(,0,0,2
10:07.281,218621,t,0,0,0
10:07.419,218671,),0,0,2
10:07.758,218793,(,0,0,1
10:07.872,218834,N,0,0,0
10:07.931,218855,),0,0,1
10:08.031,218891,(,0,0,2
10:08.139,218930,t,0,0,0
10:08.258,218973,),0,0,2
10:08.628,219106,(,0,0,1
10:08.761,219154,N,0,0,0
10:08.806,219170,),0,0,1
10:08.811,219172,(,0,0,2
10:09.050,219258,t,0,0,0
10:09.169,219301,),0,0,2
10:09.544,219436,(,0,0,1
10:09.656,219476,N,0,0,0
10:09.714,219497,),0,0,1
10:09.811,219532,(,0,0,2
10:09.922,219572,t,0,0,0
10:10.047,219617,),0,0,2
10:10.111,219640,(,0,0,0
10:10.114,219641,p,0,0,0
10:10.272,219698,),0,0,0
10:10.383,219738,(,0,0,1
10:10.492,219777,N,0,0,0
10:10.492,219777,),0,0,1
10:10.497,219779,(,0,0,2
10:10.744,219868,t,0,0,0
10:10.861,219910,),0,0,2
10:10.986,219955,(,0,0,0
10:11.053,219979,p,0,0,0
10:11.083,219990,),0,0,0
10:11.203,220033,(,0,0,1
10:11.314,220073,N,0,0,0
10:11.372,220094,),0,0,1
10:11.453,220123,(,0,0,2
10:11.572,220166,t,0,0,0
10:11.697,220211,),0,0,2
10:11.828,220258,(,0,0,0
10:11.956,220304,p,0,0,0
10:12.006,220322,),0,0,0
10:12.036,220333,(,0,0,1
10:12.147,220373,N,0,0,0
10:12.208,220395,),0,0,1
10:12.294,220426,(,0,0,2
10:12.397,220463,t,0,0,0
10:12.503,220501,),0,0,2
10:12.706,220574,(,0,0,0
10:12.742,220587,p,0,0,0
10:12.775,220599,),0,0,0
10:12.856,220628,(,0,0,1
10:12.964,220667,N,0,0,0
10:13.022,220688,),0,0,1
10:13.108,220719,(,0,0,2
10:13.225,220761,t,0,0,0
10:13.350,220806,),0,0,2
10:13.694,220930,(,0,0,1
10:13.797,220967,N,0,0,0
10:13.853,220987,),0,0,1
10:13.944,221020,(,0,0,2
10:14.061,221062,t,0,0,0
10:14.200,221112,),0,0,2
10:14.397,221183,(,0,0,0
10:14.475,221211,p,0,0,0
10:14.528,221230,),0,0,0
10:14.561,221242,(,0,0,1
10:14.675,221283,N,0,0,0
10:14.675,221283,),0,0,1
10:14.678,221284,(,0,0,2
10:14.953,221383,t,0,0,0
10:15.097,221435,),0,0,2
10:15.172,221462,(,0,0,0
10:15.197,221471,p,0,0,0
10:15.261,221494,),0,0,0
10:15.461,221566,(,0,0,1
10:15.589,221612,N,0,0,0
10:15.644,221632,),0,0,1
10:15.756,221672,(,0,0,2
10:15.842,221703,t,0,0,0
10:15.972,221750,),0,0,2
10:16.311,221872,(,0,0,1
10:16.436,221917,N,0,0,0
10:16.442,221919,),0,0,1
10:16.447,221921,(,0,0,2
10:16.703,222013,t,0,0,0
10:16.825,222057,),0,0,2
10:16.958,222105,(,0,0,0
10:17.103,222157,p,0,0,0
10:17.136,222169,),0,0,0
10:17.169,222181,(,0,0,1
10:17.278,222220,N,0,0,0
10:17.342,222243,),0,0,1
10:17.422,222272,(,0,0,2
10:17.536,222313,t,0,0,0
10:17.672,222362,),0,0,2
10:17.747,222389,(,0,0,0
10:17.831,222419,p,0,0,0
10:17.867,222432,),0,0,0
10:17.972,222470,(,0,0,1
10:18.072,222506,N,0,0,0
10:18.075,222507,),0,0,1
10:18.078,222508,(,0,0,2
10:18.319,222595,t,0,0,0
10:18.442,222639,),0,0,2
10:18.778,222760,(,0,0,1
10:18.881,222797,N,0,0,0
10:18.939,222818,),0,0,1
10:19.044,222856,(,0,0,2
10:19.131,222887,t,0,0,0
10:19.264,222935,),0,0,2
10:19.578,223048,(,0,0,1
10:19.708,223095,N,0,0,0
10:19.753,223111,),0,0,1
10:19.856,223148,(,0,0,2
10:19.983,223194,t,0,0,0
10:20.103,223237,),0,0,2
10:20.478,223372,(,0,0,1
10:20.608,223419,N,0,0,0
10:20.608,223419,),0,0,1
10:20.614,223421,(,0,0,2
10:20.914,223529,t,0,0,0
10:21.067,223584,),0,0,2
10:21.478,223732,(,0,0,1
10:21.592,223773,N,0,0,0
10:21.592,223773,),0,0,1
10:21.597,223775,(,0,0,2
10:21.867,223872,t,0,0,0
10:21.986,223915,),0,0,2
10:22.328,224038,(,0,0,1
10:22.450,224082,N,0,0,0
10:22.506,224102,),0,0,1
10:22.597,224135,(,0,0,2
10:22.700,224172,t,0,0,0
10:22.817,224214,),0,0,2
10:22.961,224266,(,0,0,0
10:23.044,224296,p,0,0,0
10:23.083,224310,),0,0,0
10:23.156,224336,(,0,0,1
10:23.264,224375,N,0,0,0
10:23.303,224389,),0,0,1
10:23.419,224431,(,0,0,2
10:23.511,224464,t,0,0,0
10:23.633,224508,),0,0,2
10:23.719,224539,(,0,0,0
10:23.733,224544,p,0,0,0
10:23.775,224559,),0,0,0
10:23.961,224626,(,0,0,1
10:24.069,224665,N,0,0,0
10:24.122,224684,),0,0,1
10:24.200,224712,(,0,0,2
10:24.306,224750,t,0,0,0
10:24.422,224792,),0,0,2
10:24.589,224852,(,0,0,0
10:24.614,224861,p,0,0,0
10:24.636,224869,),0,0,0
10:24.756,224912,(,0,0,1
10:24.783,224922,N,0,0,0
10:24.847,224945,),0,0,1
10:24.864,224951,(,0,0,2
10:25.097,225035,t,0,0,0
10:25.169,225061,),0,0,2
10:25.592,225213,(,0,0,1
10:25.711,225256,N,0,0,0
10:25.772,225278,),0,0,1
10:25.847,225305,(,0,0,2
10:25.997,225359,t,0,0,0
10:26.142,225411,),0,0,2
10:26.225,225441,(,0,0,0
10:26.308,225471,p,0,0,0
10:26.344,225484,),0,0,0
10:26.486,225535,(,0,0,1
10:26.603,225577,N,0,0,0
10:26.606,225578,),0,0,1
10:26.611,225580,(,0,0,2
10:26.883,225678,t,0,0,0
10:27.019,225727,),0,0,2
10:27.392,225861,(,0,0,1
10:27.506,225902,N,0,0,0
10:27.572,225926,),0,0,1
10:27.636,225949,(,0,0,2
10:27.764,225995,t,0,0,0
10:27.892,226041,),0,0,2
10:28.228,226162,(,0,0,1
10:28.342,226203,N,0,0,0
10:28.383,226218,),0,0,1
10:28.494,226258,(,0,0,2
10:28.606,226298,t,0,0,0
10:28.733,226344,),0,0,2
10:29.078,226468,(,0,0,1
10:29.200,226512,N,0,0,0
10:29.258,226533,),0,0,1
10:29.358,226569,(,0,0,2
10:29.464,226607,t,0,0,0
10:29.581,226649,),0,0,2
10:29.911,226768,(,0,0,1
10:30.011,226804,N,0,0,0
10:30.011,226804,),0,0,1
10:30.014,226805,(,0,0,2
10:30.256,226892,t,0,0,0
10:30.367,226932,),0,0,2
10:30.692,227049,(,0,0,1
10:30.811,227092,N,0,0,0
10:30.814,227093,),0,0,1
10:30.819,227095,(,0,0,2
10:31.053,227179,t,0,0,0
10:31.167,227220,),0,0,2
10:31.325,227277,(,0,0,0
10:31.442,227319,p,0,0,0
10:31.492,227337,),0,0,0
10:31.525,227349,(,0,0,1
10:31.633,227388,N,0,0,0
10:31.692,227409,),0,0,1
10:31.772,227438,(,0,0,2
10:31.886,227479,t,0,0,0
10:32.014,227525,),0,0,2
10:32.361,227650,(,0,0,1
10:32.483,227694,N,0,0,0
10:32.544,227716,),0,0,1
10:32.644,227752,(,0,0,2
10:32.747,227789,t,0,0,0
10:32.881,227837,),0,0,2
10:33.225,227961,(,0,0,1
10:33.350,228006,N,0,0,0
10:33.417,228030,),0,0,1
10:33.531,228071,(,0,0,2
10:33.631,228107,t,0,0,0
10:33.747,228149,),0,0,2
10:33.903,228205,(,0,0,0
10:33.972,228230,p,0,0,0
10:34.036,228253,),0,0,0
10:34.108,228279,(,0,0,1
10:34.228,228322,N,0,0,0
10:34.231,228323,),0,0,1
10:34.236,228325,(,0,0,2
10:34.497,228419,t,0,0,0
10:34.628,228466,),0,0,2
10:34.925,228573,(,0,0,1
10:35.067,228624,N,0,0,0
10:35.153,228655,),0,0,1
10:35.206,228674,(,0,0,2
10:35.317,228714,t,0,0,0
10:35.439,228758,),0,0,2
10:35.497,228779,(,0,0,0
10:35.525,228789,p,0,0,0
10:35.589,228812,),0,0,0
10:35.764,228875,(,0,0,1
10:35.872,228914,N,0,0,0
10:35.928,228934,),0,0,1
10:36.011,228964,(,0,0,2
10:36.119,229003,t,0,0,0
10:36.233,229044,),0,0,2
10:36.550,229158,(,0,0,1
10:36.664,229199,N,0,0,0
10:36.725,229221,),0,0,1
10:36.808,229251,(,0,0,2
10:36.925,229293,t,0,0,0
10:37.039,229334,),0,0,2
10:37.158,229377,(,0,0,0
10:37.189,229388,p,0,0,0
10:37.228,229402,),0,0,0
10:37.386,229459,(,0,0,1
10:37.506,229502,N,0,0,0
10:37.508,229503,),0,0,1
10:37.514,229505,(,0,0,2
10:37.781,229601,t,0,0,0
10:37.908,229647,),0,0,2
10:38.056,229700,(,0,0,0
10:38.083,229710,p,0,0,0
10:38.122,229724,),0,0,0
10:38.269,229777,(,0,0,1
10:38.389,229820,N,0,0,0
10:38.436,229837,),0,0,1
10:38.556,229880,(,0,0,2
10:38.675,229923,t,0,0,0
10:38.800,229968,),0,0,2
10:39.178,230104,(,0,0,1
10:39.311,230152,N,0,0,0
10:39.353,230167,),0,0,1
10:39.453,230203,(,0,0,2
10:39.569,230245,t,0,0,0
10:39.683,230286,),0,0,2
10:39.731,230303,(,0,0,0
10:39.742,230307,p,0,0,0
10:39.786,230323,),0,0,0
10:40.028,230410,(,0,0,1
10:40.147,230453,N,0,0,0
10:40.203,230473,),0,0,1
10:40.303,230509,(,0,0,2
10:40.403,230545,t,0,0,0
10:40.517,230586,),0,0,2
10:40.872,230714,(,0,0,1
10:40.986,230755,N,0,0,0
10:41.047,230777,),0,0,1
10:41.147,230813,(,0,0,2
10:41.242,230847,t,0,0,0
10:41.353,230887,),0,0,2
10:41.386,230899,(,0,0,0
10:41.406,230906,p,0,0,0
10:41.458,230925,),0,0,0
10:41.686,231007,(,0,0,1
10:41.794,231046,N,0,0,0
10:41.856,231068,),0,0,1
10:41.950,231102,(,0,0,2
10:42.047,231137,t,0,0,0
10:42.150,231174,),0,0,2
10:42.242,231207,(,0,0,0
10:42.278,231220,p,0,0,0
10:42.303,231229,),0,0,0
10:42.481,231293,(,0,0,1
10:42.586,231331,N,0,0,0
10:42.589,231332,),0,0,1
10:42.592,231333,(,0,0,2
10:42.858,231429,t,0,0,0
10:42.975,231471,),0,0,2
10:43.319,231595,(,0,0,1
10:43.431,231635,N,0,0,0
10:43.486,231655,),0,0,1
10:43.558,231681,(,0,0,2
10:43.683,231726,t,0,0,0
10:43.806,231770,),0,0,2
10:44.142,231891,(,0,0,1
10:44.275,231939,N,0,0,0
10:44.317,231954,),0,0,1
10:44.428,231994,(,0,0,2
10:44.536,232033,t,0,0,0
10:44.664,232079,),0,0,2
10:44.706,232094,(,0,0,0
10:44.731,232103,p,0,0,0
10:44.817,232134,),0,0,0
10:44.975,232191,(,0,0,1
10:45.119,232243,N,0,0,0
10:45.122,232244,),0,0,1
10:45.128,232246,(,0,0,2
10:45.397,232343,t,0,0,0
10:45.519,232387,),0,0,2
10:45.858,232509,(,0,0,1
10:46.000,232560,N,0,0,0
10:46.058,232581,),0,0,1
10:46.150,232614,(,0,0,2
10:46.272,232658,t,0,0,0
10:46.394,232702,),0,0,2
10:46.722,232820,(,0,0,1
10:46.850,232866,N,0,0,0
10:46.906,232886,),0,0,1
10:46.983,232914,(,0,0,2
10:47.097,232955,t,0,0,0
10:47.214,232997,),0,0,2
10:47.367,233052,(,0,0,0
10:47.456,233084,p,0,0,0
10:47.497,233099,),0,0,0
10:47.558,233121,(,0,0,1
10:47.658,233157,N,0,0,0
10:47.658,233157,),0,0,1
10:47.664,233159,(,0,0,2
10:47.900,233244,t,0,0,0
10:48.014,233285,),0,0,2
10:48.325,233397,(,0,0,1
10:48.444,233440,N,0,0,0
10:48.533,233472,),0,0,1
10:48.572,233486,(,0,0,2
10:48.692,233529,t,0,0,0
10:48.808,233571,),0,0,2
10:49.122,233684,(,0,0,1
10:49.250,233730,N,0,0,0
10:49.311,233752,),0,0,1
10:49.392,233781,(,0,0,2
10:49.514,233825,t,0,0,0
10:49.642,233871,),0,0,2
10:49.925,233973,(,0,0,1
10:50.075,234027,N,0,0,0
10:50.117,234042,),0,0,1
10:50.136,234049,(,0,0,2
10:50.353,234127,t,0,0,0
10:50.483,234174,),0,0,2
10:50.839,234302,(,0,0,1
10:50.964,234347,N,0,0,0
10:51.031,234371,),0,0,1
10:51.125,234405,(,0,0,2
10:51.253,234451,t,0,0,0
10:51.383,234498,),0,0,2
10:51.583,234570,(,0,0,0
10:51.617,234582,p,0,0,0
10:51.692,234609,),0,0,0
10:51.744,234628,(,0,0,1
