Elapsedtime,sample,Type,Sub,Chan,Num
0:00.789,284,(,0,0,1
0:00.831,299,N,0,0,0
0:00.872,314,),0,0,1
0:00.992,357,(,0,0,2
0:01.106,398,t,0,0,1
0:01.175,423,),0,0,2
0:01.661,598,(,0,0,1
0:01.703,613,N,0,0,0
0:01.747,629,),0,0,1
0:01.900,684,(,0,0,2
0:01.964,707,t,0,0,1
0:02.053,739,),0,0,2
0:02.233,804,(,0,0,0
0:02.308,831,p,0,0,0
0:02.383,858,),0,0,0
0:02.397,863,(,0,0,1
0:02.464,887,N,0,0,0
0:02.506,902,),0,0,1
0:02.644,952,(,0,0,2
0:02.728,982,t,0,0,1
0:02.808,1011,),0,0,2
0:03.308,1191,(,0,0,1
0:03.347,1205,N,0,0,0
0:03.378,1216,),0,0,1
0:03.533,1272,(,0,0,2
0:03.611,1300,t,0,0,1
0:03.700,1332,),0,0,2
0:03.894,1402,(,0,0,1
0:03.933,1416,N,0,0,0
0:03.964,1427,),0,0,1
0:04.081,1469,(,0,0,2
0:04.183,1506,t,0,0,1
0:04.267,1536,),0,0,2
0:04.519,1627,(,0,0,0
0:04.567,1644,p,0,0,0
0:04.614,1661,),0,0,0
0:04.683,1686,(,0,0,1
0:04.744,1708,N,0,0,0
0:04.775,1719,),0,0,1
0:04.925,1773,(,0,0,2
0:05.011,1804,t,0,0,1
0:05.103,1837,),0,0,2
0:05.300,1908,(,0,0,1
0:05.342,1923,N,0,0,0
0:05.381,1937,),0,0,1
0:05.531,1991,(,0,0,2
0:05.603,2017,t,0,0,1
0:05.683,2046,),0,0,2
0:06.092,2193,(,0,0,1
0:06.128,2206,N,0,0,0
0:06.172,2222,),0,0,1
0:06.286,2263,(,0,0,2
0:06.375,2295,t,0,0,1
0:06.458,2325,),0,0,2
0:06.619,2383,(,0,0,0
0:06.689,2408,p,0,0,0
0:06.775,2439,),0,0,0
0:06.844,2464,(,0,0,1
0:06.881,2477,N,0,0,0
0:06.925,2493,),0,0,1
0:07.044,2536,(,0,0,2
0:07.136,2569,t,0,0,1
0:07.228,2602,),0,0,2
0:07.525,2709,(,0,0,1
0:07.564,2723,N,0,0,0
0:07.606,2738,),0,0,1
0:07.728,2782,(,0,0,2
0:07.822,2816,t,0,0,1
0:07.978,2872,),0,0,2
0:08.117,2922,(,0,0,0
0:08.169,2941,p,0,0,0
0:08.225,2961,),0,0,0
0:08.292,2985,(,0,0,1
0:08.361,3010,N,0,0,0
0:08.403,3025,),0,0,1
0:08.536,3073,(,0,0,2
0:08.628,3106,t,0,0,1
0:08.714,3137,),0,0,2
0:08.931,3215,(,0,0,1
0:08.969,3229,N,0,0,0
0:09.008,3243,),0,0,1
0:09.050,3258,(,0,0,2
0:09.214,3317,t,0,0,1
0:09.292,3345,),0,0,2
0:09.347,3365,(,0,0,0
0:09.436,3397,p,0,0,0
0:09.492,3417,),0,0,0
0:09.561,3442,(,0,0,1
0:09.600,3456,N,0,0,0
0:09.642,3471,),0,0,1
0:09.789,3524,(,0,0,2
0:09.850,3546,t,0,0,1
0:09.950,3582,),0,0,2
0:10.692,3849,(,0,0,1
0:10.731,3863,N,0,0,0
0:10.778,3880,),0,0,1
0:10.933,3936,(,0,0,2
0:11.006,3962,t,0,0,1
0:11.103,3997,),0,0,2
0:11.656,4196,(,0,0,0
0:11.731,4223,p,0,0,0
0:11.819,4255,),0,0,0
0:11.842,4263,(,0,0,1
0:11.881,4277,N,0,0,0
0:11.919,4291,),0,0,1
0:12.078,4348,(,0,0,2
0:12.153,4375,t,0,0,1
0:12.239,4406,),0,0,2
0:12.681,4565,(,0,0,1
0:12.719,4579,N,0,0,0
0:12.764,4595,),0,0,1
0:12.919,4651,(,0,0,2
0:12.989,4676,t,0,0,1
0:13.081,4709,),0,0,2
0:13.556,4880,(,0,0,1
0:13.617,4902,N,0,0,0
0:13.658,4917,),0,0,1
0:13.797,4967,(,0,0,2
0:13.881,4997,t,0,0,1
0:13.964,5027,),0,0,2
0:14.189,5108,(,0,0,0
0:14.219,5119,p,0,0,0
0:14.322,5156,),0,0,0
0:14.417,5190,(,0,0,1
0:14.456,5204,N,0,0,0
0:14.500,5220,),0,0,1
0:14.667,5280,(,0,0,2
0:14.725,5301,t,0,0,1
0:14.806,5330,),0,0,2
0:15.256,5492,(,0,0,0
0:15.297,5507,p,0,0,0
0:15.342,5523,),0,0,0
0:15.431,5555,(,0,0,1
0:15.472,5570,N,0,0,0
0:15.517,5586,),0,0,1
0:15.614,5621,(,0,0,2
0:15.742,5667,t,0,0,4
0:15.917,5730,t,0,0,4
0:15.972,5750,),0,0,2
0:15.989,5756,(,0,0,0
0:16.069,5785,p,0,0,0
0:16.122,5804,),0,0,0
0:16.200,5832,(,0,0,1
0:16.242,5847,N,0,0,0
0:16.281,5861,),0,0,1
0:16.397,5903,t,0,0,3
0:16.506,5942,),0,0,2
0:16.522,5948,(,0,0,0
0:16.633,5988,p,0,0,0
0:16.675,6003,),0,0,0
0:16.761,6034,(,0,0,1
0:16.828,6058,N,0,0,0
0:16.872,6074,),0,0,1
0:16.997,6119,(,0,0,2
0:17.086,6151,t,0,0,1
0:17.167,6180,),0,0,2
0:17.611,6340,(,0,0,1
0:17.650,6354,N,0,0,0
0:17.692,6369,),0,0,1
0:17.831,6419,(,0,0,2
0:17.914,6449,t,0,0,1
0:17.997,6479,),0,0,2
0:18.364,6611,(,0,0,0
0:18.400,6624,p,0,0,0
0:18.506,6662,),0,0,0
0:18.533,6672,(,0,0,1
0:18.572,6686,N,0,0,0
0:18.614,6701,),0,0,1
0:18.739,6746,(,0,0,2
0:18.836,6781,t,0,0,1
0:18.911,6808,),0,0,2
0:19.733,7104,(,0,0,1
0:19.772,7118,N,0,0,0
0:19.811,7132,),0,0,1
0:19.953,7183,(,0,0,2
0:20.042,7215,t,0,0,4
0:20.200,7272,t,0,0,4
0:20.239,7286,),0,0,2
0:20.478,7372,(,0,0,1
0:20.517,7386,N,0,0,0
0:20.558,7401,),0,0,1
0:20.661,7438,(,0,0,2
0:20.767,7476,t,0,0,4
0:21.044,7576,t,0,0,4
0:21.131,7607,),0,0,2
0:21.625,7785,(,0,0,1
0:21.667,7800,N,0,0,0
0:21.697,7811,),0,0,1
0:21.847,7865,(,0,0,2
0:21.958,7905,t,0,0,1
0:22.053,7939,),0,0,2
0:22.597,8135,(,0,0,0
0:22.661,8158,p,0,0,0
0:22.719,8179,),0,0,0
0:22.769,8197,(,0,0,1
0:22.808,8211,N,0,0,0
0:22.850,8226,),0,0,1
0:22.992,8277,(,0,0,2
0:23.081,8309,t,0,0,1
0:23.169,8341,),0,0,2
0:23.394,8422,(,0,0,1
0:23.464,8447,N,0,0,0
0:23.506,8462,),0,0,1
0:23.661,8518,(,0,0,2
0:23.725,8541,t,0,0,1
0:23.814,8573,),0,0,2
0:24.036,8653,(,0,0,0
0:24.119,8683,p,0,0,0
0:24.181,8705,),0,0,0
0:24.208,8715,(,0,0,1
0:24.250,8730,N,0,0,0
0:24.278,8740,),0,0,1
0:24.458,8805,(,0,0,2
0:24.522,8828,t,0,0,1
0:24.611,8860,),0,0,2
0:24.900,8964,(,0,0,1
0:24.969,8989,N,0,0,0
0:25.011,9004,),0,0,1
0:25.111,9040,(,0,0,2
0:25.233,9084,t,0,0,1
0:25.311,9112,),0,0,2
0:25.614,9221,(,0,0,1
0:25.653,9235,N,0,0,0
0:25.692,9249,),0,0,1
0:25.831,9299,(,0,0,2
0:25.906,9326,t,0,0,1
0:26.006,9362,),0,0,2
0:26.297,9467,(,0,0,0
0:26.381,9497,p,0,0,0
0:26.422,9512,),0,0,0
0:26.467,9528,(,0,0,1
0:26.506,9542,N,0,0,0
0:26.544,9556,),0,0,1
0:26.697,9611,(,0,0,2
0:26.764,9635,t,0,0,1
0:26.856,9668,),0,0,2
0:27.408,9867,(,0,0,1
0:27.450,9882,N,0,0,0
0:27.489,9896,),0,0,1
0:27.625,9945,(,0,0,2
0:27.714,9977,t,0,0,1
0:27.800,10008,),0,0,2
0:28.389,10220,(,0,0,1
0:28.428,10234,N,0,0,0
0:28.458,10245,),0,0,1
0:28.617,10302,(,0,0,2
0:28.700,10332,t,0,0,1
0:28.792,10365,),0,0,2
0:29.011,10444,(,0,0,0
0:29.042,10455,p,0,0,0
0:29.078,10468,),0,0,0
0:29.217,10518,(,0,0,1
0:29.253,10531,N,0,0,0
0:29.292,10545,),0,0,1
0:29.456,10604,(,0,0,2
0:29.514,10625,t,0,0,1
0:29.631,10667,),0,0,2
0:29.742,10707,(,0,0,0
0:29.767,10716,p,0,0,0
0:29.808,10731,),0,0,0
0:29.936,10777,(,0,0,1
0:29.972,10790,N,0,0,0
0:30.014,10805,),0,0,1
0:30.153,10855,(,0,0,2
0:30.228,10882,t,0,0,1
0:30.300,10908,),0,0,2
0:30.581,11009,(,0,0,1
0:30.617,11022,N,0,0,0
0:30.658,11037,),0,0,1
0:30.808,11091,(,0,0,2
0:30.878,11116,t,0,0,1
0:30.978,11152,),0,0,2
0:31.281,11261,(,0,0,1
0:31.322,11276,N,0,0,0
0:31.361,11290,),0,0,1
0:31.514,11345,(,0,0,2
0:31.589,11372,t,0,0,1
0:31.675,11403,),0,0,2
0:32.022,11528,(,0,0,1
0:32.061,11542,N,0,0,0
0:32.103,11557,),0,0,1
0:32.253,11611,(,0,0,2
0:32.333,11640,t,0,0,1
0:32.417,11670,),0,0,2
0:32.756,11792,(,0,0,1
0:32.797,11807,N,0,0,0
0:32.836,11821,),0,0,1
0:32.972,11870,(,0,0,2
0:33.064,11903,t,0,0,1
0:33.147,11933,),0,0,2
0:33.419,12031,(,0,0,0
0:33.458,12045,p,0,0,0
0:33.492,12057,),0,0,0
0:33.669,12121,(,0,0,1
0:33.739,12146,N,0,0,0
0:33.781,12161,),0,0,1
0:33.931,12215,(,0,0,2
0:34.011,12244,t,0,0,1
0:34.089,12272,),0,0,2
0:34.128,12286,(,0,0,0
0:34.197,12311,p,0,0,0
0:34.233,12324,),0,0,0
0:34.258,12333,(,0,0,1
0:34.297,12347,N,0,0,0
0:34.339,12362,),0,0,1
0:34.475,12411,(,0,0,2
0:34.536,12433,t,0,0,4
0:34.633,12468,t,0,0,4
0:34.669,12481,),0,0,2
0:35.253,12691,(,0,0,1
0:35.292,12705,N,0,0,0
0:35.322,12716,),0,0,1
0:35.478,12772,(,0,0,2
0:35.567,12804,t,0,0,1
0:35.658,12837,),0,0,2
0:35.936,12937,(,0,0,0
0:35.969,12949,p,0,0,0
0:36.003,12961,),0,0,0
0:36.108,12999,(,0,0,1
0:36.144,13012,N,0,0,0
0:36.186,13027,),0,0,1
0:36.331,13079,(,0,0,2
0:36.411,13108,t,0,0,4
0:36.597,13175,t,0,0,4
0:36.633,13188,),0,0,2
0:36.778,13240,(,0,0,0
0:36.819,13255,p,0,0,0
0:36.889,13280,),0,0,0
0:36.947,13301,(,0,0,1
0:36.983,13314,N,0,0,0
0:37.028,13330,),0,0,1
0:37.169,13381,(,0,0,2
0:37.239,13406,t,0,0,1
0:37.336,13441,),0,0,2
0:37.583,13530,(,0,0,0
0:37.622,13544,p,0,0,0
0:37.708,13575,),0,0,0
0:37.758,13593,(,0,0,1
0:37.794,13606,N,0,0,0
0:37.839,13622,),0,0,1
0:38.003,13681,(,0,0,2
0:38.069,13705,t,0,0,1
0:38.175,13743,),0,0,2
0:38.419,13831,(,0,0,1
0:38.508,13863,N,0,0,0
0:38.539,13874,),0,0,1
0:38.639,13910,(,0,0,2
0:38.744,13948,t,0,0,1
0:38.858,13989,),0,0,2
0:38.947,14021,(,0,0,0
0:39.006,14042,p,0,0,0
0:39.056,14060,),0,0,0
0:39.206,14114,(,0,0,1
0:39.278,14140,N,0,0,0
0:39.319,14155,),0,0,1
0:39.453,14203,(,0,0,2
0:39.547,14237,t,0,0,1
0:39.650,14274,),0,0,2
0:39.892,14361,(,0,0,0
0:39.939,14378,p,0,0,0
0:39.978,14392,),0,0,0
0:40.000,14400,(,0,0,1
0:40.042,14415,N,0,0,0
0:40.072,14426,),0,0,1
0:40.200,14472,(,0,0,2
0:40.300,14508,t,0,0,1
0:40.375,14535,),0,0,2
0:40.628,14626,(,0,0,1
0:40.669,14641,N,0,0,0
0:40.700,14652,),0,0,1
0:40.850,14706,(,0,0,2
0:40.931,14735,t,0,0,1
0:41.017,14766,),0,0,2
0:41.311,14872,(,0,0,0
0:41.350,14886,p,0,0,0
0:41.381,14897,),0,0,0
0:41.519,14947,(,0,0,1
0:41.558,14961,N,0,0,0
0:41.600,14976,),0,0,1
0:41.725,15021,(,0,0,2
0:41.825,15057,t,0,0,1
0:41.911,15088,),0,0,2
0:41.964,15107,(,0,0,0
0:42.039,15134,p,0,0,0
0:42.089,15152,),0,0,0
0:42.267,15216,(,0,0,1
0:42.306,15230,N,0,0,0
0:42.347,15245,),0,0,1
0:42.494,15298,(,0,0,2
0:42.572,15326,t,0,0,1
0:42.661,15358,),0,0,2
0:43.233,15564,(,0,0,1
0:43.272,15578,N,0,0,0
0:43.314,15593,),0,0,1
0:43.450,15642,(,0,0,2
0:43.550,15678,t,0,0,1
0:43.656,15716,),0,0,2
0:43.944,15820,(,0,0,1
0:44.011,15844,N,0,0,0
0:44.053,15859,),0,0,1
0:44.172,15902,(,0,0,2
0:44.272,15938,t,0,0,1
0:44.353,15967,),0,0,2
0:44.533,16032,(,0,0,0
0:44.569,16045,p,0,0,0
0:44.625,16065,),0,0,0
0:44.664,16079,(,0,0,1
0:44.700,16092,N,0,0,0
0:44.744,16108,),0,0,1
0:44.794,16126,(,0,0,2
0:44.958,16185,t,0,0,1
0:45.050,16218,),0,0,2
0:45.242,16287,(,0,0,0
0:45.278,16300,p,0,0,0
0:45.319,16315,),0,0,0
0:45.381,16337,(,0,0,1
0:45.447,16361,N,0,0,0
0:45.489,16376,),0,0,1
0:45.619,16423,(,0,0,2
0:45.706,16454,t,0,0,1
0:45.783,16482,),0,0,2
0:45.836,16501,(,0,0,0
0:45.922,16532,p,0,0,0
0:45.969,16549,),0,0,0
0:46.119,16603,(,0,0,1
0:46.158,16617,N,0,0,0
0:46.197,16631,),0,0,1
0:46.347,16685,(,0,0,2
0:46.417,16710,t,0,0,1
0:46.503,16741,),0,0,2
0:46.878,16876,(,0,0,1
0:46.919,16891,N,0,0,0
0:46.958,16905,),0,0,1
0:47.125,16965,(,0,0,2
0:47.178,16984,t,0,0,1
0:47.256,17012,),0,0,2
0:47.567,17124,(,0,0,0
0:47.597,17135,p,0,0,0
0:47.642,17151,),0,0,0
0:47.719,17179,(,0,0,1
0:47.764,17195,N,0,0,0
0:47.803,17209,),0,0,1
0:47.953,17263,(,0,0,2
0:48.017,17286,t,0,0,1
0:48.108,17319,),0,0,2
0:48.189,17348,(,0,0,0
0:48.261,17374,p,0,0,0
0:48.350,17406,),0,0,0
0:48.481,17453,(,0,0,1
0:48.522,17468,N,0,0,0
0:48.553,17479,),0,0,1
0:48.728,17542,(,0,0,2
0:48.789,17564,t,0,0,1
0:48.875,17595,),0,0,2
0:49.081,17669,(,0,0,0
0:49.114,17681,p,0,0,0
0:49.158,17697,),0,0,0
0:49.264,17735,(,0,0,1
0:49.303,17749,N,0,0,0
0:49.333,17760,),0,0,1
0:49.506,17822,(,0,0,2
0:49.575,17847,t,0,0,1
0:49.675,17883,),0,0,2
0:49.936,17977,(,0,0,1
0:49.975,17991,N,0,0,0
0:50.019,18007,),0,0,1
0:50.153,18055,(,0,0,2
0:50.239,18086,t,0,0,4
0:50.397,18143,t,0,0,4
0:50.442,18159,),0,0,2
0:50.564,18203,(,0,0,0
0:50.592,18213,p,0,0,0
0:50.622,18224,),0,0,0
0:50.761,18274,(,0,0,1
0:50.803,18289,N,0,0,0
0:50.833,18300,),0,0,1
0:50.961,18346,(,0,0,2
0:51.058,18381,t,0,0,1
0:51.144,18412,),0,0,2
0:51.353,18487,(,0,0,0
0:51.381,18497,p,0,0,0
0:51.417,18510,),0,0,0
0:51.533,18552,(,0,0,1
0:51.572,18566,N,0,0,0
0:51.614,18581,),0,0,1
0:51.761,18634,(,0,0,2
0:51.836,18661,t,0,0,1
0:51.925,18693,),0,0,2
0:52.158,18777,(,0,0,1
0:52.197,18791,N,0,0,0
0:52.239,18806,),0,0,1
0:52.386,18859,(,0,0,2
0:52.450,18882,t,0,0,1
0:52.558,18921,),0,0,2
0:53.214,19157,(,0,0,1
0:53.253,19171,N,0,0,0
0:53.292,19185,),0,0,1
0:53.447,19241,(,0,0,2
0:53.528,19270,t,0,0,1
0:53.639,19310,),0,0,2
0:53.883,19398,(,0,0,0
0:53.911,19408,p,0,0,0
0:53.964,19427,),0,0,0
0:54.006,19442,(,0,0,1
0:54.044,19456,N,0,0,0
0:54.086,19471,),0,0,1
0:54.258,19533,(,0,0,2
0:54.306,19550,t,0,0,1
0:54.386,19579,),0,0,2
0:54.939,19778,(,0,0,0
0:54.969,19789,p,0,0,0
0:55.006,19802,),0,0,0
0:55.028,19810,(,0,0,1
0:55.067,19824,N,0,0,0
0:55.097,19835,),0,0,1
0:55.267,19896,(,0,0,2
0:55.333,19920,t,0,0,1
0:55.422,19952,),0,0,2
0:55.425,19953,(,0,0,0
0:55.542,19995,p,0,0,0
0:55.575,20007,),0,0,0
0:55.594,20014,(,0,0,1
0:55.636,20029,N,0,0,0
0:55.683,20046,),0,0,1
0:55.847,20105,(,0,0,2
0:55.894,20122,t,0,0,4
0:56.031,20171,t,0,0,4
0:56.075,20187,),0,0,2
0:56.289,20264,(,0,0,1
0:56.333,20280,N,0,0,0
0:56.364,20291,),0,0,1
0:56.528,20350,(,0,0,2
0:56.592,20373,t,0,0,1
0:56.686,20407,),0,0,2
0:57.328,20638,(,0,0,1
0:57.367,20652,N,0,0,0
0:57.397,20663,),0,0,1
0:57.461,20686,(,0,0,2
0:57.619,20743,t,0,0,1
0:57.711,20776,),0,0,2
0:58.139,20930,(,0,0,1
0:58.178,20944,N,0,0,0
0:58.206,20954,),0,0,1
0:58.350,21006,(,0,0,2
0:58.436,21037,t,0,0,1
0:58.522,21068,),0,0,2
0:58.783,21162,(,0,0,1
0:58.825,21177,N,0,0,0
0:58.867,21192,),0,0,1
0:59.017,21246,(,0,0,2
0:59.083,21270,t,0,0,1
0:59.169,21301,),0,0,2
0:59.950,21582,(,0,0,1
0:59.989,21596,N,0,0,0
1:00.031,21611,),0,0,1
1:00.117,21642,(,0,0,2
1:00.261,21694,t,0,0,1
1:00.356,21728,),0,0,2
1:00.625,21825,(,0,0,1
1:00.667,21840,N,0,0,0
1:00.706,21854,),0,0,1
1:00.856,21908,(,0,0,2
1:00.922,21932,t,0,0,1
1:00.997,21959,),0,0,2
1:01.053,21979,(,0,0,0
1:01.122,22004,p,0,0,0
1:01.156,22016,),0,0,0
1:01.203,22033,(,0,0,1
1:01.242,22047,N,0,0,0
1:01.272,22058,),0,0,1
1:01.431,22115,(,0,0,2
1:01.497,22139,t,0,0,1
1:01.594,22174,),0,0,2
1:01.708,22215,(,0,0,0
1:01.736,22225,p,0,0,0
1:01.778,22240,),0,0,0
1:01.875,22275,(,0,0,1
1:01.939,22298,N,0,0,0
1:01.978,22312,),0,0,1
1:02.083,22350,(,0,0,2
1:02.200,22392,t,0,0,1
1:02.278,22420,),0,0,2
1:02.442,22479,(,0,0,0
1:02.508,22503,p,0,0,0
1:02.569,22525,),0,0,0
1:02.589,22532,(,0,0,1
1:02.631,22547,N,0,0,0
1:02.669,22561,),0,0,1
1:02.778,22600,(,0,0,2
1:02.892,22641,t,0,0,1
1:02.983,22674,),0,0,2
1:03.406,22826,(,0,0,1
1:03.447,22841,N,0,0,0
1:03.492,22857,),0,0,1
1:03.639,22910,(,0,0,2
1:03.703,22933,t,0,0,1
1:03.794,22966,),0,0,2
1:03.992,23037,(,0,0,1
1:04.036,23053,N,0,0,0
1:04.067,23064,),0,0,1
1:04.225,23121,(,0,0,2
1:04.283,23142,t,0,0,1
1:04.372,23174,),0,0,2
1:04.822,23336,(,0,0,1
1:04.864,23351,N,0,0,0
1:04.906,23366,),0,0,1
1:05.008,23403,(,0,0,2
1:05.128,23446,t,0,0,1
1:05.208,23475,),0,0,2
1:05.603,23617,(,0,0,1
1:05.644,23632,N,0,0,0
1:05.686,23647,),0,0,1
1:05.825,23697,(,0,0,2
1:05.900,23724,t,0,0,1
1:05.981,23753,),0,0,2
1:06.289,23864,(,0,0,1
1:06.328,23878,N,0,0,0
1:06.369,23893,),0,0,1
1:06.539,23954,(,0,0,2
1:06.597,23975,t,0,0,1
1:06.681,24005,),0,0,2
1:06.992,24117,(,0,0,0
1:07.042,24135,p,0,0,0
1:07.089,24152,),0,0,0
1:07.261,24214,(,0,0,1
1:07.303,24229,N,0,0,0
1:07.333,24240,),0,0,1
1:07.492,24297,),0,0,2
1:07.503,24301,t,0,0,1
1:07.514,24305,(,0,0,2
1:07.519,24307,(,0,0,0
1:07.586,24331,p,0,0,0
1:07.675,24363,),0,0,0
1:07.753,24391,(,0,0,1
1:07.847,24425,N,0,0,0
1:07.911,24448,),0,0,1
1:08.014,24485,(,0,0,2
1:08.089,24512,t,0,0,1
1:08.217,24558,),0,0,2
1:08.450,24642,(,0,0,0
1:08.489,24656,p,0,0,0
1:08.522,24668,),0,0,0
1:08.706,24734,(,0,0,1
1:08.744,24748,N,0,0,0
1:08.783,24762,),0,0,1
1:08.825,24777,(,0,0,2
1:09.006,24842,t,0,0,4
1:09.169,24901,t,0,0,4
1:09.214,24917,),0,0,2
1:09.442,24999,(,0,0,1
1:09.483,25014,N,0,0,0
1:09.528,25030,),0,0,1
1:09.672,25082,(,0,0,2
1:09.756,25112,t,0,0,4
1:09.878,25156,t,0,0,4
1:09.931,25175,),0,0,2
1:10.267,25296,(,0,0,1
1:10.306,25310,N,0,0,0
1:10.344,25324,),0,0,1
1:10.467,25368,(,0,0,2
1:10.564,25403,t,0,0,1
1:10.642,25431,),0,0,2
1:10.833,25500,(,0,0,1
1:10.872,25514,N,0,0,0
1:10.903,25525,),0,0,1
1:11.011,25564,(,0,0,2
1:11.122,25604,t,0,0,1
1:11.208,25635,),0,0,2
1:11.397,25703,(,0,0,0
1:11.433,25716,p,0,0,0
1:11.483,25734,),0,0,0
1:11.708,25815,(,0,0,1
1:11.750,25830,N,0,0,0
1:11.794,25846,),0,0,1
1:11.953,25903,(,0,0,2
1:12.014,25925,t,0,0,1
1:12.103,25957,),0,0,2
1:12.292,26025,(,0,0,0
1:12.364,26051,p,0,0,0
1:12.422,26072,),0,0,0
1:12.464,26087,(,0,0,1
1:12.503,26101,N,0,0,0
1:12.542,26115,),0,0,1
1:12.708,26175,(,0,0,2
1:12.764,26195,t,0,0,1
1:12.858,26229,),0,0,2
1:13.400,26424,(,0,0,1
1:13.444,26440,N,0,0,0
1:13.475,26451,),0,0,1
1:13.622,26504,(,0,0,2
1:13.714,26537,t,0,0,1
1:13.797,26567,),0,0,2
1:13.989,26636,(,0,0,1
1:14.031,26651,N,0,0,0
1:14.072,26666,),0,0,1
1:14.231,26723,(,0,0,2
1:14.294,26746,t,0,0,1
1:14.375,26775,),0,0,2
1:14.625,26865,(,0,0,0
1:14.653,26875,p,0,0,0
1:14.722,26900,),0,0,0
1:14.803,26929,(,0,0,1
1:14.842,26943,N,0,0,0
1:14.881,26957,),0,0,1
1:14.975,26991,(,0,0,2
1:15.097,27035,t,0,0,1
1:15.178,27064,),0,0,2
1:15.256,27092,(,0,0,0
1:15.300,27108,p,0,0,0
1:15.367,27132,),0,0,0
1:15.414,27149,(,0,0,1
1:15.478,27172,N,0,0,0
1:15.517,27186,),0,0,1
1:15.653,27235,(,0,0,2
1:15.719,27259,t,0,0,1
1:15.800,27288,),0,0,2
1:16.278,27460,(,0,0,1
1:16.319,27475,N,0,0,0
1:16.350,27486,),0,0,1
1:16.500,27540,(,0,0,2
1:16.586,27571,t,0,0,1
1:16.678,27604,),0,0,2
1:16.683,27606,(,0,0,0
1:16.772,27638,p,0,0,0
1:16.786,27643,),0,0,0
1:16.808,27651,(,0,0,1
1:16.889,27680,N,0,0,0
1:16.961,27706,),0,0,1
1:17.039,27734,(,0,0,2
1:17.156,27776,t,0,0,1
1:17.278,27820,),0,0,2
1:17.472,27890,(,0,0,0
1:17.528,27910,p,0,0,0
1:17.569,27925,),0,0,0
1:17.694,27970,(,0,0,1
1:17.739,27986,N,0,0,0
1:17.769,27997,),0,0,1
1:17.917,28050,(,0,0,2
1:18.006,28082,t,0,0,1
1:18.100,28116,),0,0,2
1:18.583,28290,(,0,0,1
1:18.622,28304,N,0,0,0
1:18.664,28319,),0,0,1
1:18.797,28367,(,0,0,2
1:18.883,28398,t,0,0,1
1:18.961,28426,),0,0,2
1:19.014,28445,(,0,0,0
1:19.039,28454,p,0,0,0
1:19.189,28508,),0,0,0
1:19.197,28511,(,0,0,1
1:19.208,28515,N,0,0,0
1:19.247,28529,),0,0,1
1:19.325,28557,(,0,0,2
1:19.431,28595,t,0,0,1
1:19.569,28645,),0,0,2
1:19.883,28758,(,0,0,1
1:19.950,28782,N,0,0,0
1:19.992,28797,),0,0,1
1:20.111,28840,(,0,0,2
1:20.200,28872,t,0,0,1
1:20.292,28905,),0,0,2
1:20.753,29071,(,0,0,1
1:20.792,29085,N,0,0,0
1:20.833,29100,),0,0,1
1:20.983,29154,(,0,0,2
1:21.061,29182,t,0,0,1
1:21.147,29213,),0,0,2
1:21.333,29280,(,0,0,0
1:21.386,29299,p,0,0,0
1:21.461,29326,),0,0,0
1:21.497,29339,(,0,0,1
1:21.536,29353,N,0,0,0
1:21.578,29368,),0,0,1
1:21.694,29410,(,0,0,2
1:21.786,29443,t,0,0,1
1:21.875,29475,),0,0,2
1:21.975,29511,(,0,0,0
1:22.064,29543,p,0,0,0
1:22.114,29561,),0,0,0
1:22.169,29581,(,0,0,1
1:22.208,29595,N,0,0,0
1:22.250,29610,),0,0,1
1:22.367,29652,(,0,0,2
1:22.458,29685,t,0,0,1
1:22.547,29717,),0,0,2
1:22.856,29828,(,0,0,1
1:22.894,29842,N,0,0,0
1:22.936,29857,),0,0,1
1:23.078,29908,(,0,0,2
1:23.147,29933,t,0,0,1
1:23.242,29967,),0,0,2
1:23.433,30036,(,0,0,1
1:23.481,30053,N,0,0,0
1:23.511,30064,),0,0,1
1:23.656,30116,(,0,0,2
1:23.739,30146,t,0,0,1
1:23.817,30174,),0,0,2
1:24.169,30301,(,0,0,0
1:24.208,30315,p,0,0,0
1:24.244,30328,),0,0,0
1:24.342,30363,(,0,0,1
1:24.381,30377,N,0,0,0
1:24.422,30392,),0,0,1
1:24.467,30408,(,0,0,2
1:24.650,30474,t,0,0,4
1:24.803,30529,t,0,0,4
1:24.842,30543,),0,0,2
1:24.997,30599,(,0,0,0
1:25.028,30610,p,0,0,0
1:25.067,30624,),0,0,0
1:25.167,30660,(,0,0,1
1:25.206,30674,N,0,0,0
1:25.244,30688,),0,0,1
1:25.397,30743,(,0,0,2
1:25.456,30764,t,0,0,1
1:25.558,30801,),0,0,2
1:25.753,30871,(,0,0,0
1:25.794,30886,p,0,0,0
1:25.828,30898,),0,0,0
1:25.978,30952,(,0,0,1
1:26.017,30966,N,0,0,0
1:26.058,30981,),0,0,1
1:26.206,31034,(,0,0,2
1:26.281,31061,t,0,0,1
1:26.367,31092,),0,0,2
1:26.583,31170,(,0,0,1
1:26.622,31184,N,0,0,0
1:26.667,31200,),0,0,1
1:26.808,31251,(,0,0,2
1:26.864,31271,t,0,0,1
1:26.939,31298,),0,0,2
1:27.011,31324,(,0,0,0
1:27.081,31349,p,0,0,0
1:27.183,31386,),0,0,0
1:27.325,31437,(,0,0,1
1:27.369,31453,N,0,0,0
1:27.411,31468,),0,0,1
1:27.572,31526,(,0,0,2
1:27.631,31547,t,0,0,1
1:27.736,31585,),0,0,2
1:28.056,31700,(,0,0,1
1:28.122,31724,N,0,0,0
1:28.156,31736,),0,0,1
1:28.314,31793,(,0,0,2
1:28.386,31819,t,0,0,1
1:28.475,31851,),0,0,2
1:28.789,31964,(,0,0,1
1:28.831,31979,N,0,0,0
1:28.861,31990,),0,0,1
1:29.031,32051,(,0,0,2
1:29.094,32074,t,0,0,1
1:29.186,32107,),0,0,2
1:29.636,32269,(,0,0,1
1:29.678,32284,N,0,0,0
1:29.708,32295,),0,0,1
1:29.864,32351,(,0,0,2
1:29.931,32375,t,0,0,1
1:30.019,32407,),0,0,2
1:30.369,32533,(,0,0,0
1:30.392,32541,p,0,0,0
1:30.425,32553,),0,0,0
1:30.603,32617,(,0,0,1
1:30.644,32632,N,0,0,0
1:30.675,32643,),0,0,1
1:30.822,32696,(,0,0,2
1:30.919,32731,t,0,0,1
1:31.011,32764,),0,0,2
1:31.606,32978,(,0,0,1
1:31.647,32993,N,0,0,0
1:31.689,33008,),0,0,1
1:31.850,33066,(,0,0,2
1:31.922,33092,t,0,0,1
1:32.019,33127,),0,0,2
1:32.258,33213,(,0,0,1
1:32.344,33244,N,0,0,0
1:32.381,33257,),0,0,1
1:32.497,33299,(,0,0,2
1:32.592,33333,t,0,0,1
1:32.694,33370,),0,0,2
1:33.197,33551,(,0,0,1
1:33.242,33567,N,0,0,0
1:33.272,33578,),0,0,1
1:33.425,33633,(,0,0,2
1:33.514,33665,t,0,0,1
1:33.594,33694,),0,0,2
1:33.725,33741,(,0,0,0
1:33.767,33756,p,0,0,0
1:33.869,33793,),0,0,0
1:33.981,33833,(,0,0,1
1:34.022,33848,N,0,0,0
1:34.069,33865,),0,0,1
1:34.189,33908,(,0,0,2
1:34.297,33947,t,0,0,1
1:34.383,33978,),0,0,2
1:34.422,33992,(,0,0,0
1:34.469,34009,p,0,0,0
1:34.581,34049,),0,0,0
1:34.650,34074,(,0,0,1
1:34.742,34107,N,0,0,0
1:34.803,34129,),0,0,1
1:34.894,34162,(,0,0,2
1:34.997,34199,t,0,0,1
1:35.131,34247,),0,0,2
1:35.553,34399,(,0,0,1
1:35.589,34412,N,0,0,0
1:35.631,34427,),0,0,1
1:35.767,34476,(,0,0,2
1:35.853,34507,t,0,0,1
1:35.933,34536,),0,0,2
1:36.208,34635,(,0,0,1
1:36.247,34649,N,0,0,0
1:36.286,34663,),0,0,1
1:36.436,34717,(,0,0,2
1:36.500,34740,t,0,0,1
1:36.597,34775,),0,0,2
1:36.661,34798,(,0,0,1
1:36.775,34839,N,0,0,0
1:36.844,34864,),0,0,1
1:36.931,34895,(,0,0,2
1:37.022,34928,t,0,0,1
1:37.150,34974,),0,0,2
1:37.583,35130,(,0,0,0
1:37.614,35141,p,0,0,0
1:37.656,35156,),0,0,0
1:37.747,35189,(,0,0,1
1:37.814,35213,N,0,0,0
1:37.844,35224,),0,0,1
1:37.981,35273,(,0,0,2
1:38.092,35313,t,0,0,1
1:38.181,35345,),0,0,2
1:38.436,35437,(,0,0,1
1:38.475,35451,N,0,0,0
1:38.514,35465,),0,0,1
1:38.656,35516,(,0,0,2
1:38.736,35545,t,0,0,1
1:38.822,35576,),0,0,2
1:38.919,35611,(,0,0,1
1:39.014,35645,N,0,0,0
1:39.078,35668,),0,0,1
1:39.136,35689,(,0,0,2
1:39.242,35727,t,0,0,1
1:39.369,35773,),0,0,2
1:39.697,35891,(,0,0,1
1:39.739,35906,N,0,0,0
1:39.767,35916,),0,0,1
1:39.919,35971,(,0,0,2
1:39.989,35996,t,0,0,1
1:40.078,36028,),0,0,2
1:40.650,36234,(,0,0,1
1:40.686,36247,N,0,0,0
1:40.725,36261,),0,0,1
1:40.825,36297,(,0,0,2
1:40.953,36343,t,0,0,1
1:41.039,36374,),0,0,2
1:41.128,36406,(,0,0,1
1:41.239,36446,N,0,0,0
1:41.300,36468,),0,0,1
1:41.342,36483,(,0,0,2
1:41.481,36533,t,0,0,1
1:41.597,36575,),0,0,2
1:41.964,36707,(,0,0,0
1:42.025,36729,p,0,0,0
1:42.086,36751,),0,0,0
1:42.178,36784,(,0,0,1
1:42.217,36798,N,0,0,0
1:42.256,36812,),0,0,1
1:42.414,36869,(,0,0,2
1:42.475,36891,t,0,0,1
1:42.569,36925,),0,0,2
1:42.875,37035,(,0,0,1
1:42.917,37050,N,0,0,0
1:42.958,37065,),0,0,1
1:43.117,37122,(,0,0,2
1:43.167,37140,t,0,0,4
1:43.344,37204,t,0,0,4
1:43.394,37222,),0,0,2
1:43.719,37339,(,0,0,1
1:43.758,37353,N,0,0,0
1:43.789,37364,),0,0,1
1:43.889,37400,(,0,0,2
1:44.019,37447,t,0,0,1
1:44.103,37477,),0,0,2
1:44.319,37555,(,0,0,0
1:44.375,37575,p,0,0,0
1:44.478,37612,),0,0,0
1:44.567,37644,(,0,0,1
1:44.608,37659,N,0,0,0
1:44.647,37673,),0,0,1
1:44.736,37705,(,0,0,2
1:44.875,37755,t,0,0,1
1:44.950,37782,),0,0,2
1:45.019,37807,(,0,0,0
1:45.086,37831,p,0,0,0
1:45.128,37846,),0,0,0
1:45.206,37874,(,0,0,1
1:45.247,37889,N,0,0,0
1:45.286,37903,),0,0,1
1:45.436,37957,(,0,0,2
1:45.500,37980,t,0,0,1
1:45.575,38007,),0,0,2
1:45.875,38115,(,0,0,0
1:45.928,38134,p,0,0,0
1:45.994,38158,),0,0,0
1:46.019,38167,(,0,0,1
1:46.058,38181,N,0,0,0
1:46.100,38196,),0,0,1
1:46.183,38226,(,0,0,2
1:46.306,38270,t,0,0,1
1:46.394,38302,),0,0,2
1:46.639,38390,(,0,0,1
1:46.681,38405,N,0,0,0
1:46.722,38420,),0,0,1
1:46.850,38466,(,0,0,2
1:46.928,38494,t,0,0,1
1:47.008,38523,),0,0,2
1:47.425,38673,(,0,0,1
1:47.464,38687,N,0,0,0
1:47.506,38702,),0,0,1
1:47.656,38756,(,0,0,2
1:47.722,38780,t,0,0,1
1:47.814,38813,),0,0,2
1:48.136,38929,(,0,0,1
1:48.175,38943,N,0,0,0
1:48.214,38957,),0,0,1
1:48.319,38995,(,0,0,2
1:48.428,39034,t,0,0,1
1:48.503,39061,),0,0,2
1:48.625,39105,(,0,0,0
1:48.678,39124,p,0,0,0
1:48.753,39151,),0,0,0
1:48.942,39219,(,0,0,1
1:48.983,39234,N,0,0,0
1:49.014,39245,),0,0,1
1:49.144,39292,(,0,0,2
1:49.242,39327,t,0,0,1
1:49.328,39358,),0,0,2
1:49.750,39510,(,0,0,1
1:49.789,39524,N,0,0,0
1:49.831,39539,),0,0,1
1:49.917,39570,(,0,0,2
1:50.047,39617,t,0,0,1
1:50.125,39645,),0,0,2
1:50.369,39733,(,0,0,1
1:50.411,39748,N,0,0,0
1:50.453,39763,),0,0,1
1:50.581,39809,(,0,0,2
1:50.664,39839,t,0,0,1
1:50.750,39870,),0,0,2
1:51.128,40006,(,0,0,1
1:51.169,40021,N,0,0,0
1:51.200,40032,),0,0,1
1:51.375,40095,(,0,0,2
1:51.439,40118,t,0,0,1
1:51.511,40144,),0,0,2
1:51.717,40218,(,0,0,0
1:51.747,40229,p,0,0,0
1:51.794,40246,),0,0,0
1:51.981,40313,(,0,0,1
1:52.019,40327,N,0,0,0
1:52.069,40345,),0,0,1
1:52.136,40369,(,0,0,2
1:52.281,40421,t,0,0,1
1:52.411,40468,),0,0,2
1:52.672,40562,(,0,0,0
1:52.703,40573,p,0,0,0
1:52.747,40589,),0,0,0
1:52.853,40627,(,0,0,1
1:52.889,40640,N,0,0,0
1:52.925,40653,),0,0,1
1:53.072,40706,(,0,0,2
1:53.144,40732,t,0,0,1
1:53.239,40766,),0,0,2
1:53.828,40978,(,0,0,1
1:53.867,40992,N,0,0,0
1:53.908,41007,),0,0,1
1:54.058,41061,(,0,0,2
1:54.142,41091,t,0,0,1
1:54.219,41119,),0,0,2
1:54.331,41159,(,0,0,0
1:54.383,41178,p,0,0,0
1:54.472,41210,),0,0,0
1:54.506,41222,(,0,0,1
1:54.544,41236,N,0,0,0
1:54.583,41250,),0,0,1
1:54.650,41274,(,0,0,2
1:54.683,41286,t,0,0,0
1:54.817,41334,),0,0,2
1:55.231,41483,(,0,0,1
1:55.269,41497,N,0,0,0
1:55.314,41513,),0,0,1
1:55.453,41563,(,0,0,2
1:55.533,41592,t,0,0,1
1:55.619,41623,),0,0,2
1:56.178,41824,(,0,0,0
1:56.258,41853,p,0,0,0
1:56.336,41881,),0,0,0
1:56.428,41914,(,0,0,1
1:56.467,41928,N,0,0,0
1:56.508,41943,),0,0,1
1:56.619,41983,(,0,0,2
1:56.736,42025,t,0,0,1
1:56.825,42057,),0,0,2
1:57.247,42209,(,0,0,1
1:57.286,42223,N,0,0,0
1:57.331,42239,),0,0,1
1:57.478,42292,(,0,0,2
1:57.553,42319,t,0,0,1
1:57.636,42349,),0,0,2
1:57.869,42433,(,0,0,1
1:57.911,42448,N,0,0,0
1:57.942,42459,),0,0,1
1:58.103,42517,(,0,0,2
1:58.172,42542,t,0,0,1
1:58.258,42573,),0,0,2
1:59.072,42866,(,0,0,1
1:59.144,42892,N,0,0,0
1:59.186,42907,),0,0,1
1:59.319,42955,t,0,0,3
1:59.422,42992,),0,0,2
1:59.667,43080,(,0,0,1
1:59.706,43094,N,0,0,0
1:59.750,43110,),0,0,1
1:59.786,43123,(,0,0,2
1:59.950,43182,t,0,0,1
2:00.017,43206,),0,0,2
2:00.319,43315,(,0,0,0
2:00.356,43328,p,0,0,0
2:00.383,43338,),0,0,0
2:00.569,43405,(,0,0,1
2:00.611,43420,N,0,0,0
2:00.642,43431,),0,0,1
2:00.758,43473,(,0,0,2
2:00.886,43519,t,0,0,1
2:01.011,43564,),0,0,2
2:01.139,43610,(,0,0,0
2:01.175,43623,p,0,0,0
2:01.264,43655,),0,0,0
2:01.300,43668,(,0,0,1
2:01.367,43692,N,0,0,0
2:01.411,43708,),0,0,1
2:01.528,43750,(,0,0,2
2:01.639,43790,t,0,0,1
2:01.714,43817,),0,0,2
2:02.247,44009,(,0,0,1
2:02.289,44024,N,0,0,0
2:02.328,44038,),0,0,1
2:02.486,44095,(,0,0,2
2:02.564,44123,t,0,0,1
2:02.644,44152,),0,0,2
2:02.872,44234,(,0,0,1
2:02.911,44248,N,0,0,0
2:02.950,44262,),0,0,1
2:02.981,44273,(,0,0,2
2:03.161,44338,t,0,0,1
2:03.303,44389,),0,0,2
2:03.669,44521,(,0,0,1
2:03.708,44535,N,0,0,0
2:03.750,44550,),0,0,1
2:03.900,44604,(,0,0,2
2:03.967,44628,t,0,0,1
2:04.069,44665,),0,0,2
2:04.331,44759,(,0,0,0
2:04.408,44787,p,0,0,0
2:04.450,44802,),0,0,0
2:04.553,44839,(,0,0,1
2:04.592,44853,N,0,0,0
2:04.633,44868,),0,0,1
2:04.806,44930,(,0,0,2
2:04.872,44954,t,0,0,1
2:04.956,44984,),0,0,2
2:05.397,45143,(,0,0,0
2:05.431,45155,p,0,0,0
2:05.467,45168,),0,0,0
2:05.506,45182,(,0,0,1
2:05.542,45195,N,0,0,0
2:05.586,45211,),0,0,1
2:05.747,45269,(,0,0,2
2:05.800,45288,t,0,0,1
2:05.883,45318,),0,0,2
2:06.083,45390,(,0,0,0
2:06.108,45399,p,0,0,0
2:06.139,45410,),0,0,0
2:06.231,45443,(,0,0,1
2:06.269,45457,N,0,0,0
2:06.311,45472,),0,0,1
2:06.467,45528,(,0,0,2
2:06.522,45548,t,0,0,1
2:06.589,45572,),0,0,2
2:06.731,45623,(,0,0,0
2:06.761,45634,p,0,0,0
2:06.814,45653,),0,0,0
2:06.839,45662,(,0,0,1
2:06.881,45677,N,0,0,0
2:06.911,45688,),0,0,1
2:07.022,45728,(,0,0,2
2:07.133,45768,t,0,0,1
2:07.208,45795,),0,0,2
2:07.258,45813,(,0,0,0
2:07.336,45841,p,0,0,0
2:07.397,45863,),0,0,0
2:07.433,45876,(,0,0,1
2:07.500,45900,N,0,0,0
2:07.531,45911,),0,0,1
2:07.653,45955,(,0,0,2
2:07.758,45993,t,0,0,1
2:07.844,46024,),0,0,2
2:08.103,46117,(,0,0,1
2:08.142,46131,N,0,0,0
2:08.183,46146,),0,0,1
2:08.350,46206,(,0,0,2
2:08.403,46225,t,0,0,1
2:08.492,46257,),0,0,2
2:08.939,46418,(,0,0,1
2:09.011,46444,N,0,0,0
2:09.042,46455,),0,0,1
2:09.203,46513,(,0,0,2
2:09.289,46544,t,0,0,1
2:09.378,46576,),0,0,2
2:09.742,46707,(,0,0,0
2:09.783,46722,p,0,0,0
2:09.833,46740,),0,0,0
2:09.914,46769,(,0,0,1
2:09.958,46785,N,0,0,0
2:09.989,46796,),0,0,1
2:10.114,46841,(,0,0,2
2:10.222,46880,t,0,0,1
2:10.314,46913,),0,0,2
2:10.828,47098,(,0,0,1
2:10.867,47112,N,0,0,0
2:10.908,47127,),0,0,1
2:11.017,47166,(,0,0,2
2:11.131,47207,t,0,0,1
2:11.217,47238,),0,0,2
2:11.603,47377,(,0,0,0
2:11.639,47390,p,0,0,0
2:11.689,47408,),0,0,0
2:11.733,47424,(,0,0,1
2:11.772,47438,N,0,0,0
2:11.817,47454,),0,0,1
2:11.889,47480,(,0,0,2
2:12.047,47537,t,0,0,1
2:12.125,47565,),0,0,2
2:12.128,47566,(,0,0,0
2:12.167,47580,p,0,0,0
2:12.283,47622,),0,0,0
2:12.342,47643,(,0,0,1
2:12.381,47657,N,0,0,0
2:12.411,47668,),0,0,1
2:12.539,47714,(,0,0,2
2:12.636,47749,t,0,0,4
2:12.772,47798,t,0,0,4
2:12.836,47821,),0,0,2
2:13.183,47946,(,0,0,1
2:13.225,47961,N,0,0,0
2:13.253,47971,),0,0,1
2:13.356,48008,(,0,0,2
2:13.472,48050,t,0,0,1
2:13.564,48083,),0,0,2
2:13.728,48142,(,0,0,0
2:13.839,48182,p,0,0,0
2:13.900,48204,),0,0,0
2:13.939,48218,(,0,0,1
2:13.978,48232,N,0,0,0
2:14.019,48247,),0,0,1
2:14.153,48295,(,0,0,2
2:14.242,48327,t,0,0,1
2:14.319,48355,),0,0,2
2:14.706,48494,(,0,0,1
2:14.744,48508,N,0,0,0
2:14.789,48524,),0,0,1
2:14.897,48563,(,0,0,2
2:14.994,48598,t,0,0,1
2:15.075,48627,),0,0,2
2:15.444,48760,(,0,0,1
2:15.506,48782,N,0,0,0
2:15.539,48794,),0,0,1
2:15.678,48844,(,0,0,2
2:15.767,48876,t,0,0,1
2:15.856,48908,),0,0,2
2:16.336,49081,(,0,0,1
2:16.406,49106,N,0,0,0
2:16.436,49117,),0,0,1
2:16.553,49159,(,0,0,2
2:16.664,49199,t,0,0,1
2:16.747,49229,),0,0,2
2:16.869,49273,(,0,0,0
2:16.931,49295,p,0,0,0
2:16.964,49307,),0,0,0
2:17.078,49348,(,0,0,1
2:17.122,49364,N,0,0,0
2:17.161,49378,),0,0,1
2:17.292,49425,(,0,0,2
2:17.375,49455,t,0,0,1
2:17.461,49486,),0,0,2
2:17.681,49565,(,0,0,1
2:17.722,49580,N,0,0,0
2:17.764,49595,),0,0,1
2:17.897,49643,(,0,0,2
2:17.978,49672,t,0,0,1
2:18.064,49703,),0,0,2
2:18.281,49781,(,0,0,1
2:18.353,49807,N,0,0,0
2:18.394,49822,),0,0,1
2:18.517,49866,(,0,0,2
2:18.608,49899,t,0,0,1
2:18.686,49927,),0,0,2
2:19.211,50116,(,0,0,1
2:19.250,50130,N,0,0,0
2:19.278,50140,),0,0,1
2:19.419,50191,(,0,0,2
2:19.517,50226,t,0,0,1
2:19.622,50264,),0,0,2
2:20.269,50497,(,0,0,1
2:20.311,50512,N,0,0,0
2:20.350,50526,),0,0,1
2:20.469,50569,(,0,0,2
2:20.581,50609,t,0,0,1
2:20.681,50645,),0,0,2
2:20.878,50716,(,0,0,1
2:20.947,50741,N,0,0,0
2:20.986,50755,),0,0,1
2:21.117,50802,(,0,0,2
2:21.206,50834,t,0,0,1
2:21.289,50864,),0,0,2
2:21.922,51092,(,0,0,1
2:21.964,51107,N,0,0,0
2:21.994,51118,),0,0,1
2:22.136,51169,(,0,0,2
2:22.239,51206,t,0,0,1
2:22.333,51240,),0,0,2
2:22.614,51341,(,0,0,1
2:22.675,51363,N,0,0,0
2:22.706,51374,),0,0,1
2:22.792,51405,(,0,0,2
2:22.942,51459,t,0,0,4
2:23.247,51569,t,0,0,4
2:23.289,51584,),0,0,2
2:23.544,51676,(,0,0,1
2:23.619,51703,N,0,0,0
2:23.661,51718,),0,0,1
2:23.817,51774,(,0,0,2
2:23.894,51802,t,0,0,1
2:23.978,51832,),0,0,2
2:24.453,52003,(,0,0,1
2:24.492,52017,N,0,0,0
2:24.533,52032,),0,0,1
2:24.661,52078,(,0,0,2
2:24.758,52113,t,0,0,1
2:24.839,52142,),0,0,2
2:25.228,52282,(,0,0,1
2:25.269,52297,N,0,0,0
2:25.297,52307,),0,0,1
2:25.467,52368,(,0,0,2
2:25.547,52397,t,0,0,1
2:25.653,52435,),0,0,2
2:26.011,52564,(,0,0,1
2:26.075,52587,N,0,0,0
2:26.114,52601,),0,0,1
2:26.261,52654,(,0,0,2
2:26.336,52681,t,0,0,1
2:26.428,52714,),0,0,2
2:27.056,52940,(,0,0,1
2:27.100,52956,N,0,0,0
2:27.139,52970,),0,0,1
2:27.294,53026,(,0,0,2
2:27.369,53053,t,0,0,4
2:27.603,53137,t,0,0,4
2:27.667,53160,),0,0,2
2:27.817,53214,(,0,0,0
2:27.853,53227,p,0,0,0
2:27.911,53248,),0,0,0
2:27.947,53261,(,0,0,1
2:27.989,53276,N,0,0,0
2:28.031,53291,),0,0,1
2:28.167,53340,(,0,0,2
2:28.258,53373,t,0,0,4
2:28.472,53450,t,0,0,4
2:28.522,53468,),0,0,2
2:28.856,53588,(,0,0,1
2:28.897,53603,N,0,0,0
2:28.936,53617,),0,0,1
2:29.097,53675,(,0,0,2
2:29.175,53703,t,0,0,1
2:29.256,53732,),0,0,2
2:29.522,53828,(,0,0,1
2:29.564,53843,N,0,0,0
2:29.603,53857,),0,0,1
2:29.761,53914,(,0,0,2
2:29.831,53939,t,0,0,1
2:29.917,53970,),0,0,2
2:30.211,54076,(,0,0,1
2:30.272,54098,N,0,0,0
2:30.314,54113,),0,0,1
2:30.469,54169,(,0,0,2
2:30.533,54192,t,0,0,1
2:30.606,54218,),0,0,2
2:30.608,54219,(,0,0,0
2:30.733,54264,p,0,0,0
2:30.767,54276,),0,0,0
2:30.800,54288,(,0,0,1
2:30.839,54302,N,0,0,0
2:30.869,54313,),0,0,1
2:31.033,54372,(,0,0,2
2:31.083,54390,t,0,0,1
2:31.167,54420,),0,0,2
2:31.714,54617,(,0,0,1
2:31.756,54632,N,0,0,0
2:31.794,54646,),0,0,1
2:31.964,54707,(,0,0,2
2:32.025,54729,t,0,0,1
2:32.128,54766,),0,0,2
2:32.264,54815,(,0,0,0
2:32.317,54834,p,0,0,0
2:32.378,54856,),0,0,0
2:32.456,54884,(,0,0,1
2:32.528,54910,N,0,0,0
2:32.569,54925,),0,0,1
2:32.675,54963,(,0,0,2
2:32.789,55004,t,0,0,1
2:32.861,55030,),0,0,2
2:32.950,55062,(,0,0,0
2:32.997,55079,p,0,0,0
2:33.061,55102,),0,0,0
2:33.147,55133,(,0,0,1
2:33.219,55159,N,0,0,0
2:33.264,55175,),0,0,1
2:33.353,55207,(,0,0,2
2:33.478,55252,t,0,0,4
2:33.647,55313,t,0,0,4
2:33.714,55337,),0,0,2
2:33.725,55341,(,0,0,0
2:33.800,55368,p,0,0,0
2:33.864,55391,),0,0,0
2:33.886,55399,(,0,0,1
2:33.961,55426,N,0,0,0
2:34.000,55440,),0,0,1
2:34.117,55482,(,0,0,2
2:34.222,55520,t,0,0,1
2:34.303,55549,),0,0,2
2:34.522,55628,(,0,0,0
2:34.567,55644,p,0,0,0
2:34.631,55667,),0,0,0
2:34.733,55704,(,0,0,1
2:34.775,55719,N,0,0,0
2:34.817,55734,),0,0,1
2:34.956,55784,(,0,0,2
2:35.042,55815,t,0,0,1
2:35.128,55846,),0,0,2
2:35.319,55915,(,0,0,1
2:35.361,55930,N,0,0,0
2:35.400,55944,),0,0,1
2:35.481,55973,(,0,0,2
2:35.617,56022,t,0,0,1
2:35.731,56063,),0,0,2
2:36.150,56214,(,0,0,0
2:36.181,56225,p,0,0,0
2:36.233,56244,),0,0,0
2:36.347,56285,(,0,0,1
2:36.386,56299,N,0,0,0
2:36.428,56314,),0,0,1
2:36.558,56361,(,0,0,2
2:36.667,56400,t,0,0,1
2:36.772,56438,),0,0,2
2:37.122,56564,(,0,0,1
2:37.164,56579,N,0,0,0
2:37.203,56593,),0,0,1
2:37.353,56647,(,0,0,2
2:37.422,56672,t,0,0,4
2:37.561,56722,t,0,0,4
2:37.633,56748,),0,0,2
2:37.786,56803,(,0,0,0
2:37.822,56816,p,0,0,0
2:37.872,56834,),0,0,0
2:38.011,56884,(,0,0,1
2:38.053,56899,N,0,0,0
2:38.094,56914,),0,0,1
2:38.233,56964,(,0,0,2
2:38.319,56995,t,0,0,1
2:38.411,57028,),0,0,2
2:38.714,57137,(,0,0,1
2:38.758,57153,N,0,0,0
2:38.800,57168,),0,0,1
2:38.947,57221,(,0,0,2
2:39.025,57249,t,0,0,1
2:39.108,57279,),0,0,2
2:39.400,57384,(,0,0,1
2:39.442,57399,N,0,0,0
2:39.475,57411,),0,0,1
2:39.597,57455,(,0,0,2
2:39.694,57490,t,0,0,1
2:39.764,57515,),0,0,2
2:40.233,57684,(,0,0,1
2:40.275,57699,N,0,0,0
2:40.306,57710,),0,0,1
2:40.428,57754,(,0,0,2
2:40.539,57794,t,0,0,1
2:40.625,57825,),0,0,2
2:40.892,57921,(,0,0,1
2:40.931,57935,N,0,0,0
2:40.972,57950,),0,0,1
2:41.128,58006,(,0,0,2
2:41.189,58028,t,0,0,1
2:41.283,58062,),0,0,2
2:41.569,58165,(,0,0,1
2:41.608,58179,N,0,0,0
2:41.650,58194,),0,0,1
2:41.806,58250,(,0,0,2
2:41.872,58274,t,0,0,1
2:41.956,58304,),0,0,2
2:42.058,58341,(,0,0,1
2:42.333,58440,N,0,0,0
2:42.536,58513,),0,0,1
2:42.892,58641,(,0,0,1
2:42.956,58664,N,0,0,0
2:42.986,58675,),0,0,1
2:43.131,58727,(,0,0,2
2:43.217,58758,t,0,0,1
2:43.294,58786,),0,0,2
2:43.533,58872,(,0,0,0
2:43.586,58891,p,0,0,0
2:43.694,58930,),0,0,0
2:43.714,58937,(,0,0,1
2:43.756,58952,N,0,0,0
2:43.797,58967,),0,0,1
2:43.922,59012,(,0,0,2
2:44.006,59042,t,0,0,1
2:44.094,59074,),0,0,2
2:44.331,59159,(,0,0,0
2:44.394,59182,p,0,0,0
2:44.461,59206,),0,0,0
2:44.539,59234,(,0,0,1
2:44.578,59248,N,0,0,0
2:44.622,59264,),0,0,1
2:44.769,59317,(,0,0,2
2:44.833,59340,t,0,0,1
2:44.928,59374,),0,0,2
2:45.594,59614,(,0,0,1
2:45.636,59629,N,0,0,0
2:45.675,59643,),0,0,1
2:45.828,59698,(,0,0,2
2:45.919,59731,t,0,0,1
2:46.003,59761,),0,0,2
2:46.100,59796,(,0,0,0
2:46.181,59825,p,0,0,0
2:46.231,59843,),0,0,0
2:46.247,59849,(,0,0,1
2:46.289,59864,N,0,0,0
2:46.319,59875,),0,0,1
2:46.475,59931,(,0,0,2
2:46.550,59958,t,0,0,1
2:46.622,59984,),0,0,2
2:47.164,60179,(,0,0,1
2:47.203,60193,N,0,0,0
2:47.244,60208,),0,0,1
2:47.353,60247,(,0,0,2
2:47.469,60289,t,0,0,1
2:47.572,60326,),0,0,2
2:47.708,60375,(,0,0,0
2:47.753,60391,p,0,0,0
2:47.861,60430,),0,0,0
2:47.886,60439,(,0,0,1
2:47.950,60462,N,0,0,0
2:47.992,60477,),0,0,1
2:48.131,60527,(,0,0,2
2:48.214,60557,t,0,0,1
2:48.300,60588,),0,0,2
2:48.458,60645,(,0,0,0
2:48.489,60656,p,0,0,0
2:48.550,60678,),0,0,0
2:48.711,60736,(,0,0,1
2:48.750,60750,N,0,0,0
2:48.781,60761,),0,0,1
2:48.933,60816,(,0,0,2
2:49.017,60846,t,0,0,1
2:49.100,60876,),0,0,2
2:49.264,60935,(,0,0,0
2:49.294,60946,p,0,0,0
2:49.325,60957,),0,0,0
2:49.453,61003,(,0,0,1
2:49.494,61018,N,0,0,0
2:49.536,61033,),0,0,1
2:49.689,61088,(,0,0,2
2:49.761,61114,t,0,0,1
2:49.844,61144,),0,0,2
2:50.375,61335,(,0,0,1
2:50.414,61349,N,0,0,0
2:50.444,61360,),0,0,1
2:50.603,61417,(,0,0,2
2:50.683,61446,t,0,0,1
2:50.769,61477,),0,0,2
2:51.292,61665,(,0,0,1
2:51.333,61680,N,0,0,0
2:51.375,61695,),0,0,1
2:51.533,61752,(,0,0,2
2:51.600,61776,t,0,0,1
2:51.692,61809,),0,0,2
2:51.889,61880,(,0,0,1
2:51.969,61909,N,0,0,0
2:51.997,61919,),0,0,1
2:52.119,61963,(,0,0,2
2:52.222,62000,t,0,0,1
2:52.314,62033,),0,0,2
2:52.756,62192,(,0,0,1
2:52.797,62207,N,0,0,0
2:52.836,62221,),0,0,1
2:52.928,62254,(,0,0,2
2:53.064,62303,t,0,0,1
2:53.167,62340,),0,0,2
2:53.397,62423,(,0,0,1
2:53.436,62437,N,0,0,0
2:53.481,62453,),0,0,1
2:53.628,62506,(,0,0,2
2:53.686,62527,t,0,0,4
2:53.847,62585,t,0,0,4
2:53.892,62601,),0,0,2
2:54.208,62715,(,0,0,1
2:54.247,62729,N,0,0,0
2:54.289,62744,),0,0,1
2:54.431,62795,(,0,0,2
2:54.500,62820,t,0,0,1
2:54.578,62848,),0,0,2
2:55.028,63010,(,0,0,1
2:55.069,63025,N,0,0,0
2:55.108,63039,),0,0,1
2:55.247,63089,(,0,0,2
2:55.328,63118,t,0,0,1
2:55.417,63150,),0,0,2
2:55.458,63165,(,0,0,1
2:55.561,63202,N,0,0,0
2:55.581,63209,),0,0,1
2:55.667,63240,(,0,0,2
2:55.769,63277,t,0,0,4
2:55.872,63314,t,0,0,4
2:55.917,63330,),0,0,2
2:56.578,63568,(,0,0,0
2:56.608,63579,p,0,0,0
2:56.642,63591,),0,0,0
2:56.644,63592,(,0,0,1
2:56.744,63628,N,0,0,0
2:56.889,63680,),0,0,1
2:56.903,63685,(,0,0,2
2:57.131,63767,t,0,0,0
2:57.286,63823,),0,0,2
2:57.472,63890,(,0,0,1
2:57.511,63904,N,0,0,0
2:57.553,63919,),0,0,1
2:57.692,63969,(,0,0,2
2:57.772,63998,t,0,0,1
2:57.853,64027,),0,0,2
2:58.025,64089,(,0,0,0
2:58.064,64103,p,0,0,0
2:58.128,64126,),0,0,0
2:58.139,64130,(,0,0,1
2:58.256,64172,N,0,0,0
2:58.469,64249,),0,0,1
2:58.664,64319,(,0,0,2
2:58.706,64334,t,0,0,4
2:58.772,64358,t,0,0,4
2:58.781,64361,),0,0,2
2:58.842,64383,(,0,0,1
2:58.992,64437,N,0,0,0
2:59.172,64502,),0,0,1
2:59.669,64681,(,0,0,1
2:59.711,64696,N,0,0,0
2:59.753,64711,),0,0,1
2:59.875,64755,(,0,0,2
2:59.981,64793,t,0,0,1
3:00.072,64826,),0,0,2
3:00.489,64976,(,0,0,1
3:00.528,64990,N,0,0,0
3:00.572,65006,),0,0,1
3:00.719,65059,(,0,0,2
3:00.794,65086,t,0,0,1
3:00.892,65121,),0,0,2
3:01.578,65368,(,0,0,0
3:01.606,65378,p,0,0,0
3:01.636,65389,),0,0,0
3:01.669,65401,(,0,0,1
3:01.708,65415,N,0,0,0
3:01.867,65472,),0,0,1
3:01.892,65481,(,0,0,2
3:02.081,65549,t,0,0,0
3:02.178,65584,),0,0,2
3:02.308,65631,(,0,0,0
3:02.322,65636,p,0,0,0
3:02.367,65652,),0,0,0
3:02.378,65656,(,0,0,1
3:02.514,65705,N,0,0,0
3:02.742,65787,),0,0,1
3:02.786,65803,(,0,0,2
3:02.856,65828,t,0,0,4
3:02.939,65858,t,0,0,4
3:03.025,65889,),0,0,2
3:03.194,65950,(,0,0,0
3:03.222,65960,p,0,0,0
3:03.256,65972,),0,0,0
3:03.261,65974,(,0,0,1
3:03.361,66010,N,0,0,0
3:03.500,66060,),0,0,1
3:03.511,66064,(,0,0,2
3:03.597,66095,t,0,0,0
3:03.658,66117,),0,0,2
3:04.175,66303,(,0,0,0
3:04.203,66313,p,0,0,0
3:04.233,66324,),0,0,0
3:04.306,66350,(,0,0,1
3:04.356,66368,N,0,0,0
3:04.569,66445,),0,0,1
3:04.633,66468,(,0,0,2
3:04.656,66476,t,0,0,1
3:04.681,66485,),0,0,2
3:04.822,66536,(,0,0,0
3:04.850,66546,p,0,0,0
3:04.881,66557,),0,0,0
3:04.939,66578,(,0,0,1
3:04.989,66596,N,0,0,0
3:05.181,66665,),0,0,1
3:05.619,66823,(,0,0,0
3:05.647,66833,p,0,0,0
3:05.675,66843,),0,0,0
3:05.739,66866,(,0,0,1
3:05.794,66886,N,0,0,0
3:05.978,66952,),0,0,1
3:06.236,67045,(,0,0,2
3:06.272,67058,t,0,0,1
3:06.314,67073,),0,0,2
3:06.397,67103,(,0,0,1
3:06.550,67158,N,0,0,0
3:06.744,67228,),0,0,1
3:06.822,67256,(,0,0,2
3:06.972,67310,t,0,0,0
3:07.161,67378,),0,0,2
3:07.247,67409,(,0,0,0
3:07.275,67419,p,0,0,0
3:07.308,67431,),0,0,0
3:07.314,67433,(,0,0,1
3:07.372,67454,N,0,0,0
3:07.544,67516,),0,0,1
3:07.550,67518,(,0,0,2
3:07.686,67567,t,0,0,0
3:07.833,67620,),0,0,2
3:08.050,67698,(,0,0,1
3:08.228,67762,N,0,0,0
3:08.408,67827,),0,0,1
3:08.458,67845,t,0,0,2
3:08.500,67860,),0,0,2
3:08.586,67891,(,0,0,1
3:08.725,67941,N,0,0,0
3:08.914,68009,),0,0,1
3:08.947,68021,(,0,0,2
3:09.022,68048,t,0,0,0
3:09.067,68064,),0,0,2
3:09.472,68210,(,0,0,1
3:09.608,68259,N,0,0,0
3:09.817,68334,),0,0,1
3:09.947,68381,(,0,0,2
3:09.989,68396,t,0,0,1
3:10.028,68410,),0,0,2
3:10.128,68446,(,0,0,1
3:10.278,68500,N,0,0,0
3:10.472,68570,),0,0,1
3:10.631,68627,(,0,0,2
3:10.711,68656,t,0,0,4
3:10.778,68680,t,0,0,4
3:10.831,68699,),0,0,2
3:10.858,68709,(,0,0,0
3:10.886,68719,p,0,0,0
3:10.917,68730,),0,0,0
3:10.975,68751,(,0,0,1
3:11.044,68776,N,0,0,0
3:11.239,68846,),0,0,1
3:11.361,68890,(,0,0,2
3:11.417,68910,t,0,0,0
3:11.478,68932,),0,0,2
3:11.550,68958,(,0,0,0
3:11.581,68969,p,0,0,0
3:11.611,68980,),0,0,0
3:11.711,69016,(,0,0,1
3:11.728,69022,N,0,0,0
3:11.897,69083,),0,0,1
3:11.928,69094,(,0,0,2
3:11.967,69108,t,0,0,4
3:12.050,69138,t,0,0,4
3:12.119,69163,),0,0,2
3:12.122,69164,(,0,0,0
3:12.133,69168,p,0,0,0
3:12.250,69210,),0,0,0
3:12.261,69214,(,0,0,1
3:12.400,69264,N,0,0,0
3:12.581,69329,),0,0,1
3:12.653,69355,(,0,0,2
3:12.714,69377,t,0,0,5
3:12.828,69418,t,0,0,5
3:12.917,69450,),0,0,2
3:12.939,69458,(,0,0,0
3:12.961,69466,p,0,0,0
3:13.006,69482,),0,0,0
3:13.017,69486,(,0,0,1
3:13.144,69532,N,0,0,0
3:13.397,69623,),0,0,1
3:13.675,69723,(,0,0,2
3:13.700,69732,t,0,0,1
3:13.747,69749,),0,0,2
3:13.761,69754,(,0,0,0
3:13.775,69759,p,0,0,0
3:13.819,69775,),0,0,0
3:13.831,69779,(,0,0,1
3:13.967,69828,N,0,0,0
3:14.181,69905,),0,0,1
3:14.308,69951,(,0,0,2
3:14.358,69969,t,0,0,1
3:14.414,69989,),0,0,2
3:14.447,70001,(,0,0,0
3:14.522,70028,p,0,0,0
3:14.619,70063,),0,0,0
3:14.631,70067,(,0,0,1
3:14.783,70122,N,0,0,0
3:14.986,70195,),0,0,1
3:15.325,70317,(,0,0,1
3:15.494,70378,N,0,0,0
3:15.675,70443,),0,0,1
3:15.717,70458,(,0,0,2
3:15.781,70481,t,0,0,0
3:15.839,70502,),0,0,2
3:15.944,70540,(,0,0,0
3:15.972,70550,p,0,0,0
3:16.011,70564,),0,0,0
3:16.039,70574,(,0,0,1
3:16.161,70618,N,0,0,0
3:16.339,70682,),0,0,1
3:16.347,70685,(,0,0,2
3:16.508,70743,t,0,0,0
3:16.556,70760,),0,0,2
3:16.947,70901,(,0,0,0
3:16.975,70911,p,0,0,0
3:17.006,70922,),0,0,0
3:17.108,70959,(,0,0,1
3:17.131,70967,N,0,0,0
3:17.256,71012,),0,0,1
3:17.264,71015,(,0,0,2
3:17.475,71091,t,0,0,0
3:17.633,71148,),0,0,2
3:17.881,71237,(,0,0,0
3:17.911,71248,p,0,0,0
3:17.942,71259,),0,0,0
3:18.008,71283,(,0,0,1
3:18.064,71303,N,0,0,0
3:18.264,71375,),0,0,1
3:18.353,71407,(,0,0,2
3:18.428,71434,t,0,0,0
3:18.486,71455,),0,0,2
3:18.747,71549,(,0,0,0
3:18.775,71559,p,0,0,0
3:18.792,71565,),0,0,0
3:18.811,71572,(,0,0,1
3:18.931,71615,N,0,0,0
3:19.050,71658,),0,0,1
3:19.058,71661,(,0,0,2
3:19.156,71696,t,0,0,0
3:19.214,71717,),0,0,2
3:19.253,71731,(,0,0,0
3:19.306,71750,p,0,0,0
3:19.361,71770,),0,0,0
3:19.464,71807,(,0,0,1
3:19.639,71870,N,0,0,0
3:19.817,71934,),0,0,1
3:20.044,72016,(,0,0,2
3:20.086,72031,t,0,0,1
3:20.119,72043,),0,0,2
3:20.278,72100,(,0,0,0
3:20.306,72110,p,0,0,0
3:20.336,72121,),0,0,0
3:20.378,72136,(,0,0,1
3:20.428,72154,N,0,0,0
3:20.581,72209,),0,0,1
3:20.583,72210,t,0,0,2
3:20.667,72240,),0,0,2
3:21.072,72386,(,0,0,0
3:21.097,72395,p,0,0,0
3:21.142,72411,),0,0,0
3:21.269,72457,(,0,0,1
3:21.406,72506,N,0,0,0
3:21.614,72581,),0,0,1
3:21.731,72623,(,0,0,2
3:21.806,72650,t,0,0,0
3:21.886,72679,),0,0,2
3:22.017,72726,(,0,0,1
3:22.197,72791,N,0,0,0
3:22.383,72858,),0,0,1
3:22.531,72911,(,0,0,2
3:22.692,72969,t,0,0,0
3:22.858,73029,),0,0,2
3:22.947,73061,(,0,0,0
3:22.994,73078,p,0,0,0
3:23.072,73106,),0,0,0
3:23.081,73109,(,0,0,1
3:23.228,73162,N,0,0,0
3:23.447,73241,),0,0,1
3:23.489,73256,(,0,0,2
3:23.511,73264,t,0,0,0
3:23.536,73273,),0,0,2
3:23.636,73309,(,0,0,0
3:23.667,73320,p,0,0,0
3:23.700,73332,),0,0,0
3:23.775,73359,(,0,0,1
3:23.822,73376,N,0,0,0
3:24.011,73444,),0,0,1
3:24.542,73635,(,0,0,1
3:24.686,73687,N,0,0,0
3:24.942,73779,),0,0,1
3:24.981,73793,(,0,0,2
3:25.031,73811,t,0,0,1
3:25.108,73839,),0,0,2
3:25.228,73882,(,0,0,1
3:25.372,73934,N,0,0,0
3:25.578,74008,),0,0,1
3:25.742,74067,(,0,0,0
3:25.811,74092,p,0,0,0
3:25.883,74118,),0,0,0
3:25.894,74122,(,0,0,1
3:26.033,74172,N,0,0,0
3:26.242,74247,),0,0,1
3:26.481,74333,(,0,0,2
3:26.539,74354,t,0,0,1
3:26.589,74372,),0,0,2
3:26.669,74401,(,0,0,1
3:26.822,74456,N,0,0,0
3:27.008,74523,),0,0,1
3:27.322,74636,(,0,0,0
3:27.353,74647,p,0,0,0
3:27.386,74659,),0,0,0
3:27.486,74695,(,0,0,1
3:27.503,74701,N,0,0,0
3:27.714,74777,),0,0,1
3:27.856,74828,(,0,0,2
3:27.956,74864,t,0,0,1
3:28.033,74892,),0,0,2
3:28.050,74898,(,0,0,0
3:28.083,74910,p,0,0,0
3:28.142,74931,),0,0,0
3:28.150,74934,(,0,0,1
3:28.294,74986,N,0,0,0
3:28.514,75065,),0,0,1
3:28.586,75091,(,0,0,2
3:28.731,75143,t,0,0,1
3:28.886,75199,),0,0,2
3:28.914,75209,(,0,0,0
3:28.947,75221,p,0,0,0
3:29.083,75270,),0,0,0
3:29.094,75274,(,0,0,1
3:29.244,75328,N,0,0,0
3:29.428,75394,),0,0,1
3:29.481,75413,(,0,0,2
3:29.575,75447,t,0,0,0
3:29.667,75480,),0,0,2
3:29.689,75488,(,0,0,0
3:29.697,75491,p,0,0,0
3:29.833,75540,),0,0,0
3:29.842,75543,(,0,0,1
3:29.992,75597,N,0,0,0
3:30.183,75666,),0,0,1
3:30.328,75718,(,0,0,0
3:30.364,75731,p,0,0,0
3:30.403,75745,),0,0,0
3:30.547,75797,(,0,0,1
3:30.728,75862,N,0,0,0
3:30.914,75929,),0,0,1
3:31.128,76006,(,0,0,2
3:31.167,76020,t,0,0,1
3:31.206,76034,),0,0,2
3:31.372,76094,(,0,0,0
3:31.403,76105,p,0,0,0
3:31.433,76116,),0,0,0
3:31.450,76122,(,0,0,1
3:31.511,76144,N,0,0,0
3:31.547,76157,),0,0,1
3:31.581,76169,(,0,0,2
3:31.678,76204,t,0,0,4
3:31.900,76284,t,0,0,4
3:31.964,76307,),0,0,2
3:32.197,76391,(,0,0,0
3:32.228,76402,p,0,0,0
3:32.261,76414,),0,0,0
3:32.269,76417,(,0,0,1
3:32.336,76441,N,0,0,0
3:32.492,76497,),0,0,1
3:32.500,76500,(,0,0,2
3:32.722,76580,t,0,0,0
3:32.825,76617,),0,0,2
3:32.989,76676,(,0,0,0
3:33.025,76689,p,0,0,0
3:33.067,76704,),0,0,0
3:33.172,76742,N,0,0,0
3:33.175,76743,(,0,0,1
3:33.378,76816,),0,0,1
3:33.542,76875,(,0,0,0
3:33.567,76884,p,0,0,0
3:33.667,76920,),0,0,0
3:33.678,76924,(,0,0,1
3:33.800,76968,N,0,0,0
3:34.019,77047,),0,0,1
3:34.122,77084,(,0,0,2
3:34.183,77106,t,0,0,0
3:34.253,77131,),0,0,2
3:34.350,77166,(,0,0,0
3:34.383,77178,p,0,0,0
3:34.458,77205,),0,0,0
3:34.469,77209,(,0,0,1
3:34.617,77262,N,0,0,0
3:34.836,77341,),0,0,1
3:34.936,77377,(,0,0,2
3:34.986,77395,t,0,0,5
3:35.044,77416,t,0,0,5
3:35.117,77442,),0,0,2
3:35.206,77474,(,0,0,0
3:35.236,77485,p,0,0,0
3:35.272,77498,),0,0,0
3:35.275,77499,(,0,0,1
3:35.392,77541,N,0,0,0
3:35.503,77581,),0,0,1
3:35.519,77587,(,0,0,2
3:35.672,77642,t,0,0,0
3:35.750,77670,),0,0,2
3:35.833,77700,(,0,0,1
3:35.983,77754,N,0,0,0
3:36.150,77814,),0,0,1
3:36.217,77838,(,0,0,2
3:36.261,77854,t,0,0,0
3:36.369,77893,),0,0,2
3:36.514,77945,(,0,0,0
3:36.544,77956,p,0,0,0
3:36.575,77967,),0,0,0
3:36.617,77982,(,0,0,1
3:36.667,78000,N,0,0,0
3:36.781,78041,),0,0,1
3:36.814,78053,t,0,0,2
3:36.903,78085,),0,0,2
3:37.119,78163,(,0,0,0
3:37.197,78191,p,0,0,0
3:37.250,78210,),0,0,0
3:37.286,78223,(,0,0,1
3:37.467,78288,N,0,0,0
3:37.653,78355,),0,0,1
3:37.678,78364,(,0,0,2
3:37.725,78381,t,0,0,1
3:37.775,78399,),0,0,2
3:37.856,78428,(,0,0,0
3:37.881,78437,p,0,0,0
3:38.000,78480,),0,0,0
3:38.008,78483,(,0,0,1
3:38.161,78538,N,0,0,0
3:38.353,78607,),0,0,1
3:38.558,78681,(,0,0,2
3:38.625,78705,t,0,0,1
3:38.661,78718,),0,0,2
3:38.794,78766,(,0,0,0
3:38.825,78777,p,0,0,0
3:38.853,78787,),0,0,0
3:38.892,78801,(,0,0,1
3:38.967,78828,N,0,0,0
3:39.156,78896,),0,0,1
3:39.158,78897,t,0,0,2
3:39.206,78914,),0,0,2
3:39.264,78935,(,0,0,1
3:39.514,79025,N,0,0,0
3:39.731,79103,),0,0,1
3:39.844,79144,(,0,0,2
3:39.944,79180,t,0,0,0
3:39.997,79199,),0,0,2
3:40.431,79355,(,0,0,0
3:40.458,79365,p,0,0,0
3:40.489,79376,),0,0,0
3:40.594,79414,(,0,0,1
3:40.606,79418,N,0,0,0
3:40.733,79464,),0,0,1
3:40.747,79469,(,0,0,2
3:40.911,79528,t,0,0,0
3:41.025,79569,),0,0,2
3:41.081,79589,(,0,0,0
3:41.092,79593,p,0,0,0
3:41.139,79610,),0,0,0
3:41.150,79614,(,0,0,1
3:41.300,79668,N,0,0,0
3:41.517,79746,),0,0,1
3:41.644,79792,(,0,0,2
3:41.683,79806,t,0,0,0
3:41.750,79830,),0,0,2
3:41.797,79847,(,0,0,0
3:41.825,79857,p,0,0,0
3:41.856,79868,),0,0,0
3:41.975,79911,N,0,0,0
3:41.975,79911,(,0,0,1
3:42.156,79976,),0,0,1
3:42.714,80177,(,0,0,1
3:42.894,80242,N,0,0,0
3:43.111,80320,),0,0,1
3:43.497,80459,(,0,0,1
3:43.606,80498,N,0,0,0
3:43.825,80577,),0,0,1
3:43.939,80618,(,0,0,2
3:43.986,80635,t,0,0,0
3:44.044,80656,),0,0,2
3:44.206,80714,(,0,0,0
3:44.233,80724,p,0,0,0
3:44.264,80735,),0,0,0
3:44.317,80754,(,0,0,1
3:44.372,80774,N,0,0,0
3:44.586,80851,),0,0,1
3:44.750,80910,(,0,0,2
3:44.775,80919,t,0,0,4
3:44.822,80936,t,0,0,4
3:44.892,80961,),0,0,2
3:44.922,80972,(,0,0,0
3:44.975,80991,p,0,0,0
3:45.064,81023,),0,0,0
3:45.075,81027,(,0,0,1
3:45.211,81076,N,0,0,0
3:45.428,81154,),0,0,1
3:46.022,81368,(,0,0,0
3:46.050,81378,p,0,0,0
3:46.081,81389,),0,0,0
3:46.122,81404,(,0,0,1
3:46.175,81423,N,0,0,0
3:46.317,81474,),0,0,1
3:46.333,81480,(,0,0,2
3:46.517,81546,t,0,0,0
3:46.692,81609,),0,0,2
3:46.950,81702,(,0,0,0
3:47.008,81723,p,0,0,0
3:47.039,81734,),0,0,0
3:47.072,81746,(,0,0,1
3:47.253,81811,N,0,0,0
3:47.456,81884,),0,0,1
3:47.531,81911,(,0,0,2
3:47.608,81939,t,0,0,0
3:47.675,81963,),0,0,2
3:47.756,81992,(,0,0,0
3:47.775,81999,p,0,0,0
3:47.825,82017,),0,0,0
3:47.833,82020,(,0,0,1
3:47.983,82074,N,0,0,0
3:48.186,82147,),0,0,1
3:48.539,82274,(,0,0,0
3:48.567,82284,p,0,0,0
3:48.597,82295,),0,0,0
3:48.686,82327,(,0,0,1
3:48.711,82336,N,0,0,0
3:48.914,82409,),0,0,1
3:48.964,82427,(,0,0,2
3:48.983,82434,t,0,0,4
3:49.033,82452,t,0,0,4
3:49.092,82473,),0,0,2
3:49.133,82488,(,0,0,0
3:49.147,82493,p,0,0,0
3:49.194,82510,),0,0,0
3:49.206,82514,(,0,0,1
3:49.356,82568,N,0,0,0
3:49.525,82629,),0,0,1
3:50.006,82802,(,0,0,1
3:50.156,82856,N,0,0,0
3:50.333,82920,),0,0,1
3:50.428,82954,(,0,0,2
3:50.497,82979,t,0,0,0
3:50.606,83018,),0,0,2
3:50.969,83149,(,0,0,0
3:50.997,83159,p,0,0,0
3:51.028,83170,),0,0,0
3:51.058,83181,(,0,0,1
3:51.083,83190,N,0,0,0
3:51.131,83207,),0,0,1
3:51.169,83221,(,0,0,2
3:51.267,83256,t,0,0,1
3:51.339,83282,),0,0,2
3:51.411,83308,(,0,0,1
3:51.706,83414,N,0,0,0
3:51.906,83486,),0,0,1
3:52.050,83538,(,0,0,2
3:52.122,83564,t,0,0,1
3:52.186,83587,),0,0,2
3:52.250,83610,(,0,0,0
3:52.283,83622,p,0,0,0
3:52.325,83637,),0,0,0
3:52.492,83697,(,0,0,1
3:52.642,83751,N,0,0,0
3:52.858,83829,),0,0,1
3:52.939,83858,(,0,0,2
3:52.981,83873,t,0,0,1
3:53.011,83884,),0,0,2
3:53.206,83954,(,0,0,1
3:53.386,84019,N,0,0,0
3:53.558,84081,),0,0,1
3:54.078,84268,(,0,0,0
3:54.106,84278,p,0,0,0
3:54.136,84289,),0,0,0
3:54.225,84321,(,0,0,1
3:54.264,84335,N,0,0,0
3:54.461,84406,),0,0,1
3:54.567,84444,(,0,0,2
3:54.622,84464,t,0,0,0
3:54.703,84493,),0,0,2
3:54.839,84542,(,0,0,0
3:54.872,84554,p,0,0,0
3:54.950,84582,),0,0,0
3:54.961,84586,(,0,0,1
3:55.114,84641,N,0,0,0
3:55.322,84716,),0,0,1
3:55.706,84854,(,0,0,1
3:55.833,84900,N,0,0,0
3:56.036,84973,),0,0,1
3:56.064,84983,(,0,0,2
3:56.161,85018,t,0,0,0
3:56.214,85037,),0,0,2
3:56.286,85063,(,0,0,0
3:56.314,85073,p,0,0,0
3:56.344,85084,),0,0,0
3:56.428,85114,(,0,0,1
3:56.433,85116,N,0,0,0
3:56.656,85196,),0,0,1
3:56.714,85217,),0,0,2
3:56.803,85249,t,0,0,1
3:56.892,85281,(,0,0,2
3:57.061,85342,(,0,0,0
3:57.092,85353,p,0,0,0
3:57.122,85364,),0,0,0
3:57.186,85387,(,0,0,1
3:57.244,85408,N,0,0,0
3:57.369,85453,),0,0,1
3:57.372,85454,t,0,0,2
3:57.478,85492,),0,0,2
3:57.650,85554,(,0,0,0
3:57.681,85565,p,0,0,0
3:57.714,85577,),0,0,0
3:57.717,85578,(,0,0,1
3:57.772,85598,N,0,0,0
3:57.931,85655,),0,0,1
3:57.936,85657,(,0,0,2
3:58.061,85702,t,0,0,0
3:58.114,85721,),0,0,2
3:58.406,85826,(,0,0,0
3:58.444,85840,p,0,0,0
3:58.575,85887,),0,0,0
3:58.586,85891,(,0,0,1
3:58.736,85945,N,0,0,0
3:58.931,86015,),0,0,1
3:59.036,86053,(,0,0,2
3:59.186,86107,t,0,0,0
3:59.314,86153,),0,0,2
3:59.400,86184,(,0,0,1
3:59.564,86243,N,0,0,0
3:59.761,86314,),0,0,1
3:59.792,86325,(,0,0,2
3:59.850,86346,t,0,0,0
3:59.958,86385,),0,0,2
4:00.156,86456,(,0,0,0
4:00.183,86466,p,0,0,0
4:00.214,86477,),0,0,0
4:00.317,86514,N,0,0,0
4:00.325,86517,(,0,0,1
4:00.514,86585,),0,0,1
4:00.569,86605,(,0,0,2
4:00.631,86627,t,0,0,4
4:00.728,86662,t,0,0,4
4:00.750,86670,),0,0,2
4:00.781,86681,(,0,0,0
4:00.811,86692,p,0,0,0
4:00.842,86703,),0,0,0
4:00.933,86736,(,0,0,1
4:00.967,86748,N,0,0,0
4:01.161,86818,),0,0,1
4:01.333,86880,(,0,0,2
4:01.386,86899,t,0,0,4
4:01.453,86923,t,0,0,4
4:01.508,86943,),0,0,2
4:01.700,87012,(,0,0,1
4:01.850,87066,N,0,0,0
4:02.056,87140,),0,0,1
4:02.622,87344,(,0,0,0
4:02.678,87364,p,0,0,0
4:02.758,87393,),0,0,0
4:02.769,87397,(,0,0,1
4:02.919,87451,N,0,0,0
4:03.106,87518,),0,0,1
4:03.489,87656,(,0,0,0
4:03.517,87666,p,0,0,0
4:03.547,87677,),0,0,0
4:03.628,87706,(,0,0,1
4:03.672,87722,N,0,0,0
4:03.867,87792,),0,0,1
4:04.128,87886,(,0,0,0
4:04.153,87895,p,0,0,0
4:04.208,87915,),0,0,0
4:04.219,87919,(,0,0,1
4:04.372,87974,N,0,0,0
4:04.553,88039,),0,0,1
4:04.764,88115,(,0,0,2
4:04.811,88132,t,0,0,0
4:04.872,88154,),0,0,2
4:05.058,88221,(,0,0,1
4:05.208,88275,N,0,0,0
4:05.389,88340,),0,0,1
4:05.433,88356,(,0,0,2
4:05.508,88383,t,0,0,0
4:05.556,88400,),0,0,2
4:05.692,88449,(,0,0,0
4:05.725,88461,p,0,0,0
4:05.836,88501,),0,0,0
4:05.847,88505,(,0,0,1
4:05.997,88559,N,0,0,0
4:06.197,88631,),0,0,1
4:06.225,88641,(,0,0,0
4:06.272,88658,p,0,0,0
4:06.403,88705,),0,0,0
4:06.414,88709,(,0,0,1
4:06.567,88764,N,0,0,0
4:06.736,88825,),0,0,1
4:06.839,88862,(,0,0,2
4:06.878,88876,t,0,0,5
4:06.994,88918,t,0,0,5
4:07.067,88944,),0,0,2
4:07.122,88964,(,0,0,0
4:07.181,88985,p,0,0,0
4:07.258,89013,),0,0,0
4:07.306,89030,(,0,0,1
4:07.486,89095,N,0,0,0
4:07.667,89160,),0,0,1
4:07.711,89176,(,0,0,2
4:07.775,89199,t,0,0,0
4:07.864,89231,),0,0,2
4:07.967,89268,(,0,0,0
4:07.997,89279,p,0,0,0
4:08.075,89307,),0,0,0
4:08.086,89311,(,0,0,1
4:08.208,89355,N,0,0,0
4:08.433,89436,),0,0,1
4:08.764,89555,(,0,0,0
4:08.794,89566,p,0,0,0
4:08.825,89577,),0,0,0
4:08.947,89621,N,0,0,0
4:08.953,89623,(,0,0,1
4:09.131,89687,),0,0,1
4:09.261,89734,(,0,0,2
4:09.314,89753,t,0,0,0
4:09.392,89781,),0,0,2
4:09.578,89848,(,0,0,0
4:09.594,89854,p,0,0,0
4:09.639,89870,),0,0,0
4:09.647,89873,(,0,0,1
4:09.783,89922,N,0,0,0
4:10.006,90002,),0,0,1
4:10.219,90079,(,0,0,2
4:10.283,90102,t,0,0,1
4:10.342,90123,),0,0,2
4:10.433,90156,(,0,0,0
4:10.472,90170,p,0,0,0
4:10.517,90186,),0,0,0
4:10.528,90190,(,0,0,1
4:10.661,90238,N,0,0,0
4:10.867,90312,),0,0,1
4:11.069,90385,(,0,0,2
4:11.117,90402,t,0,0,1
4:11.147,90413,),0,0,2
4:11.431,90515,(,0,0,0
4:11.483,90534,p,0,0,0
4:11.539,90554,),0,0,0
4:11.583,90570,(,0,0,1
4:11.767,90636,N,0,0,0
4:11.967,90708,),0,0,1
4:12.394,90862,(,0,0,0
4:12.411,90868,p,0,0,0
4:12.456,90884,),0,0,0
4:12.467,90888,(,0,0,1
4:12.594,90934,N,0,0,0
4:12.839,91022,),0,0,1
4:13.383,91218,(,0,0,0
4:13.411,91228,p,0,0,0
4:13.442,91239,),0,0,0
4:13.494,91258,(,0,0,1
4:13.550,91278,N,0,0,0
4:13.692,91329,),0,0,1
4:13.694,91330,t,0,0,2
4:13.783,91362,),0,0,2
4:13.844,91384,(,0,0,0
4:13.919,91411,p,0,0,0
4:14.019,91447,),0,0,0
4:14.031,91451,(,0,0,1
4:14.181,91505,N,0,0,0
4:14.347,91565,),0,0,1
4:14.542,91635,(,0,0,0
4:14.572,91646,p,0,0,0
4:14.606,91658,),0,0,0
4:14.636,91669,(,0,0,1
4:14.694,91690,N,0,0,0
4:14.897,91763,),0,0,1
4:14.944,91780,(,0,0,2
4:15.019,91807,t,0,0,1
4:15.056,91820,),0,0,2
4:15.167,91860,(,0,0,1
4:15.314,91913,N,0,0,0
4:15.531,91991,),0,0,1
4:15.622,92024,(,0,0,2
4:15.744,92068,t,0,0,1
4:15.872,92114,),0,0,2
4:16.344,92284,(,0,0,0
4:16.372,92294,p,0,0,0
4:16.406,92306,),0,0,0
4:16.436,92317,(,0,0,1
4:16.489,92336,N,0,0,0
4:16.642,92391,),0,0,1
4:16.653,92395,(,0,0,2
4:16.803,92449,t,0,0,0
4:16.944,92500,),0,0,2
4:17.133,92568,(,0,0,1
4:17.283,92622,N,0,0,0
4:17.458,92685,),0,0,1
4:17.483,92694,t,0,0,2
4:17.539,92714,),0,0,2
4:17.681,92765,(,0,0,0
4:17.711,92776,p,0,0,0
4:17.744,92788,),0,0,0
4:17.758,92793,(,0,0,1
4:17.819,92815,N,0,0,0
4:18.044,92896,),0,0,1
4:18.158,92937,(,0,0,2
4:18.258,92973,t,0,0,5
4:18.303,92989,),0,0,2
4:18.411,93028,(,0,0,1
4:18.539,93074,N,0,0,0
4:18.744,93148,),0,0,1
4:18.811,93172,(,0,0,2
4:18.933,93216,t,0,0,0
4:19.119,93283,),0,0,2
4:19.247,93329,(,0,0,1
4:19.400,93384,N,0,0,0
4:19.589,93452,),0,0,1
4:19.636,93469,(,0,0,2
4:19.733,93504,t,0,0,0
4:19.794,93526,),0,0,2
4:20.006,93602,(,0,0,1
4:20.183,93666,N,0,0,0
4:20.369,93733,),0,0,1
4:20.467,93768,(,0,0,2
4:20.506,93782,t,0,0,4
4:20.575,93807,t,0,0,4
4:20.647,93833,),0,0,2
4:20.708,93855,(,0,0,1
4:20.858,93909,N,0,0,0
4:21.067,93984,),0,0,1
4:21.353,94087,(,0,0,0
4:21.383,94098,p,0,0,0
4:21.414,94109,),0,0,0
4:21.469,94129,(,0,0,1
4:21.525,94149,N,0,0,0
4:21.717,94218,),0,0,1
4:21.828,94258,(,0,0,2
4:21.858,94269,t,0,0,0
4:21.894,94282,),0,0,2
4:21.925,94293,(,0,0,0
4:21.956,94304,p,0,0,0
4:21.986,94315,),0,0,0
4:22.100,94356,(,0,0,1
4:22.108,94359,N,0,0,0
4:22.136,94369,),0,0,1
4:22.231,94403,(,0,0,2
4:22.339,94442,t,0,0,0
4:22.400,94464,),0,0,2
4:22.697,94571,(,0,0,0
4:22.722,94580,p,0,0,0
4:22.814,94613,),0,0,0
4:22.825,94617,(,0,0,1
4:22.975,94671,N,0,0,0
4:23.167,94740,),0,0,1
4:23.239,94766,(,0,0,2
4:23.286,94783,t,0,0,0
4:23.386,94819,),0,0,2
4:23.661,94918,(,0,0,0
4:23.686,94927,p,0,0,0
4:23.775,94959,),0,0,0
4:23.786,94963,(,0,0,1
4:23.939,95018,N,0,0,0
4:24.142,95091,),0,0,1
4:24.283,95142,(,0,0,2
4:24.358,95169,t,0,0,0
4:24.431,95195,),0,0,2
4:24.561,95242,(,0,0,0
4:24.592,95253,p,0,0,0
4:24.622,95264,),0,0,0
4:24.692,95289,(,0,0,1
4:24.733,95304,N,0,0,0
4:24.942,95379,),0,0,1
4:25.153,95455,(,0,0,0
4:25.206,95474,p,0,0,0
4:25.283,95502,),0,0,0
4:25.342,95523,(,0,0,1
4:25.506,95582,N,0,0,0
4:25.706,95654,),0,0,1
4:26.106,95798,(,0,0,0
4:26.150,95814,p,0,0,0
4:26.264,95855,),0,0,0
4:26.275,95859,(,0,0,1
4:26.425,95913,N,0,0,0
4:26.628,95986,),0,0,1
4:26.697,96011,(,0,0,2
4:26.839,96062,t,0,0,0
4:26.956,96104,),0,0,2
4:27.058,96141,(,0,0,1
4:27.211,96196,N,0,0,0
4:27.408,96267,),0,0,1
4:27.544,96316,(,0,0,2
4:27.594,96334,t,0,0,0
4:27.631,96347,),0,0,2
4:27.661,96358,(,0,0,0
4:27.689,96368,p,0,0,0
4:27.722,96380,),0,0,0
4:27.872,96434,(,0,0,1
4:28.053,96499,N,0,0,0
4:28.239,96566,),0,0,1
4:28.272,96578,(,0,0,2
4:28.331,96599,t,0,0,0
4:28.408,96627,),0,0,2
4:28.953,96823,(,0,0,0
4:28.967,96828,p,0,0,0
4:29.011,96844,),0,0,0
4:29.022,96848,(,0,0,1
4:29.158,96897,N,0,0,0
4:29.378,96976,),0,0,1
4:29.400,96984,(,0,0,2
4:29.447,97001,t,0,0,1
4:29.506,97022,),0,0,2
4:29.564,97043,(,0,0,0
4:29.581,97049,p,0,0,0
4:29.622,97064,),0,0,0
4:29.633,97068,(,0,0,1
4:29.767,97116,N,0,0,0
4:30.006,97202,),0,0,1
4:30.094,97234,(,0,0,2
4:30.150,97254,t,0,0,0
4:30.203,97273,),0,0,2
4:30.392,97341,(,0,0,0
4:30.422,97352,p,0,0,0
4:30.450,97362,),0,0,0
4:30.503,97381,(,0,0,1
4:30.558,97401,N,0,0,0
4:30.747,97469,),0,0,1
4:30.881,97517,(,0,0,2
4:30.931,97535,t,0,0,5
4:31.053,97579,t,0,0,5
4:31.083,97590,),0,0,2
4:31.103,97597,(,0,0,0
4:31.122,97604,p,0,0,0
4:31.203,97633,),0,0,0
4:31.214,97637,(,0,0,1
4:31.356,97688,N,0,0,0
4:31.539,97754,),0,0,1
4:31.694,97810,(,0,0,2
4:31.733,97824,t,0,0,1
4:31.769,97837,),0,0,2
4:31.875,97875,(,0,0,0
4:31.906,97886,p,0,0,0
4:31.928,97894,),0,0,0
4:31.961,97906,(,0,0,1
4:32.144,97972,N,0,0,0
4:32.336,98041,),0,0,1
4:32.389,98060,(,0,0,2
4:32.447,98081,t,0,0,0
4:32.533,98112,),0,0,2
4:32.678,98164,(,0,0,0
4:32.708,98175,p,0,0,0
4:32.856,98228,),0,0,0
4:32.867,98232,(,0,0,1
4:33.017,98286,N,0,0,0
4:33.156,98336,(,0,0,0
4:33.211,98356,),0,0,1
4:33.264,98375,p,0,0,0
4:33.317,98394,),0,0,0
4:33.397,98423,(,0,0,1
4:33.492,98457,N,0,0,0
4:33.678,98524,),0,0,1
4:33.703,98533,(,0,0,2
4:33.853,98587,t,0,0,0
4:33.981,98633,),0,0,2
4:34.039,98654,(,0,0,0
4:34.078,98668,p,0,0,0
4:34.153,98695,),0,0,0
4:34.308,98751,(,0,0,1
4:34.458,98805,N,0,0,0
4:34.653,98875,),0,0,1
4:34.656,98876,t,0,0,2
4:34.731,98903,),0,0,2
4:34.828,98938,(,0,0,1
4:35.011,99004,N,0,0,0
4:35.178,99064,),0,0,1
4:35.214,99077,(,0,0,2
4:35.319,99115,t,0,0,4
4:35.397,99143,t,0,0,4
4:35.456,99164,),0,0,2
4:37.758,99993,(,0,0,1
4:37.833,100020,N,0,0,0
4:37.847,100025,),0,0,1
4:37.944,100060,(,0,0,2
4:38.081,100109,t,0,0,1
4:38.208,100155,),0,0,2
4:42.081,101549,(,0,0,1
4:42.139,101570,N,0,0,0
4:42.178,101584,),0,0,1
4:42.336,101641,(,0,0,2
4:42.392,101661,t,0,0,4
4:42.689,101768,t,0,0,4
4:42.742,101787,),0,0,2
4:45.617,102822,(,0,0,1
4:45.650,102834,N,0,0,0
4:45.692,102849,),0,0,1
4:45.814,102893,(,0,0,2
4:45.919,102931,t,0,0,1
4:46.000,102960,),0,0,2
4:46.311,103072,(,0,0,1
4:46.361,103090,N,0,0,0
4:46.403,103105,),0,0,1
4:46.561,103162,(,0,0,2
4:46.625,103185,t,0,0,1
4:46.706,103214,),0,0,2
4:50.786,104683,(,0,0,1
4:50.836,104701,N,0,0,0
4:50.878,104716,),0,0,1
4:51.008,104763,(,0,0,2
4:51.103,104797,t,0,0,4
4:51.333,104880,t,0,0,4
4:51.411,104908,),0,0,2
4:51.656,104996,(,0,0,1
4:51.700,105012,N,0,0,0
4:51.742,105027,),0,0,1
4:52.331,105239,(,0,0,2
4:52.367,105252,t,0,0,0
4:52.408,105267,),0,0,2
4:56.061,106582,(,0,0,1
4:56.114,106601,N,0,0,0
4:56.153,106615,),0,0,1
4:56.311,106672,(,0,0,2
4:56.369,106693,t,0,0,4
4:56.572,106766,t,0,0,4
4:56.628,106786,),0,0,2
4:57.128,106966,(,0,0,1
4:57.175,106983,N,0,0,0
4:57.217,106998,),0,0,1
4:57.369,107053,(,0,0,2
4:57.439,107078,t,0,0,4
4:57.756,107192,t,0,0,4
4:57.817,107214,),0,0,2
5:03.658,109317,(,0,0,1
5:03.719,109339,N,0,0,0
5:03.761,109354,),0,0,1
5:03.914,109409,(,0,0,2
5:04.011,109444,t,0,0,1
5:04.125,109485,),0,0,2
5:04.658,109677,(,0,0,1
5:04.703,109693,N,0,0,0
5:04.744,109708,),0,0,1
5:04.900,109764,(,0,0,2
5:04.978,109792,t,0,0,4
5:05.375,109935,t,0,0,4
5:05.453,109963,),0,0,2
5:06.197,110231,(,0,0,1
5:06.253,110251,N,0,0,0
5:06.292,110265,),0,0,1
5:06.444,110320,(,0,0,2
5:06.522,110348,t,0,0,1
5:06.597,110375,),0,0,2
5:10.717,111858,(,0,0,1
5:10.769,111877,N,0,0,0
5:10.811,111892,),0,0,1
5:10.958,111945,(,0,0,2
5:11.036,111973,t,0,0,4
5:11.400,112104,t,0,0,4
5:11.478,112132,),0,0,2
5:13.364,112811,(,0,0,1
5:13.406,112826,N,0,0,0
5:13.444,112840,),0,0,1
5:13.592,112893,(,0,0,2
5:13.908,113007,t,0,0,1
5:14.242,113127,),0,0,2
5:15.925,113733,(,0,0,1
5:15.967,113748,N,0,0,0
5:16.006,113762,),0,0,1
5:16.156,113816,(,0,0,2
5:16.233,113844,t,0,0,1
5:16.317,113874,),0,0,2
5:16.769,114037,(,0,0,1
5:16.828,114058,N,0,0,0
5:16.869,114073,),0,0,1
5:17.019,114127,(,0,0,2
5:17.106,114158,t,0,0,1
5:17.192,114189,),0,0,2
5:17.597,114335,(,0,0,1
5:17.642,114351,N,0,0,0
5:17.683,114366,),0,0,1
5:17.831,114419,(,0,0,2
5:17.908,114447,t,0,0,4
5:18.356,114608,t,0,0,4
5:18.436,114637,),0,0,2
5:20.244,115288,(,0,0,1
5:20.278,115300,N,0,0,0
5:20.306,115310,),0,0,1
5:20.994,115558,t,0,0,2
5:21.081,115589,),0,0,2
5:23.672,116522,(,0,0,1
5:23.728,116542,N,0,0,0
5:23.758,116553,),0,0,1
5:23.889,116600,(,0,0,2
5:24.011,116644,t,0,0,1
5:24.103,116677,),0,0,2
5:25.275,117099,(,0,0,1
5:25.331,117119,N,0,0,0
5:25.361,117130,),0,0,1
5:26.097,117395,t,0,0,2
5:26.144,117412,),0,0,2
5:26.903,117685,(,0,0,1
5:26.950,117702,N,0,0,0
5:26.992,117717,),0,0,1
5:27.711,117976,t,0,0,2
5:27.764,117995,),0,0,2
5:29.206,118514,(,0,0,1
5:29.256,118532,N,0,0,0
5:29.317,118554,),0,0,1
5:29.864,118751,(,0,0,2
5:29.897,118763,t,0,0,0
5:29.939,118778,),0,0,2
5:33.114,119921,(,0,0,1
5:33.150,119934,N,0,0,0
5:33.181,119945,),0,0,1
5:33.764,120155,(,0,0,2
5:33.797,120167,t,0,0,0
5:33.836,120181,),0,0,2
5:38.428,121834,(,0,0,1
5:38.469,121849,N,0,0,0
5:38.511,121864,),0,0,1
5:38.653,121915,(,0,0,2
5:38.739,121946,t,0,0,4
5:39.006,122042,t,0,0,4
5:39.075,122067,),0,0,2
5:41.669,123001,(,0,0,1
5:41.681,123005,N,0,0,0
5:41.725,123021,),0,0,1
5:42.406,123266,(,0,0,2
5:42.439,123278,t,0,0,0
5:42.478,123292,),0,0,2
5:44.175,123903,(,0,0,1
5:44.222,123920,N,0,0,0
5:44.261,123934,),0,0,1
5:44.803,124129,(,0,0,2
5:44.839,124142,t,0,0,0
5:44.878,124156,),0,0,2
5:46.447,124721,(,0,0,1
5:46.508,124743,N,0,0,0
5:46.547,124757,),0,0,1
5:47.106,124958,(,0,0,2
5:47.142,124971,t,0,0,0
5:47.181,124985,),0,0,2
5:48.653,125515,(,0,0,1
5:48.711,125536,N,0,0,0
5:48.742,125547,),0,0,1
5:48.917,125610,(,0,0,2
5:48.983,125634,t,0,0,1
5:49.081,125669,),0,0,2
5:50.911,126328,(,0,0,1
5:50.947,126341,N,0,0,0
5:50.986,126355,),0,0,1
5:51.128,126406,(,0,0,2
5:51.214,126437,t,0,0,1
5:51.294,126466,),0,0,2
5:51.578,126568,(,0,0,1
5:51.614,126581,N,0,0,0
5:51.656,126596,),0,0,1
5:52.206,126794,(,0,0,2
5:52.239,126806,t,0,0,0
5:52.278,126820,),0,0,2
5:53.711,127336,(,0,0,1
5:53.750,127350,N,0,0,0
5:53.792,127365,),0,0,1
5:54.494,127618,(,0,0,2
5:54.531,127631,t,0,0,0
5:54.569,127645,),0,0,2
5:55.086,127831,(,0,0,1
5:55.119,127843,N,0,0,0
5:55.156,127856,),0,0,1
5:55.819,128095,(,0,0,2
5:55.856,128108,t,0,0,0
5:55.897,128123,),0,0,2
5:56.553,128359,(,0,0,1
5:56.603,128377,N,0,0,0
5:56.644,128392,),0,0,1
5:57.308,128631,(,0,0,2
5:57.342,128643,t,0,0,0
5:57.383,128658,),0,0,2
5:57.953,128863,(,0,0,1
5:58.008,128883,N,0,0,0
5:58.050,128898,),0,0,1
5:58.206,128954,(,0,0,2
5:58.278,128980,t,0,0,1
5:58.361,129010,),0,0,2
5:58.722,129140,(,0,0,1
5:58.775,129159,N,0,0,0
5:58.806,129170,),0,0,1
5:58.986,129235,(,0,0,2
5:59.031,129251,t,0,0,4
5:59.211,129316,t,0,0,4
5:59.289,129344,),0,0,2
6:00.464,129767,(,0,0,1
6:00.497,129779,N,0,0,0
6:00.536,129793,),0,0,1
6:01.258,130053,(,0,0,2
6:01.292,130065,t,0,0,0
6:01.333,130080,),0,0,2
6:01.992,130317,(,0,0,1
6:02.047,130337,N,0,0,0
6:02.086,130351,),0,0,1
6:02.808,130611,(,0,0,2
6:02.817,130614,t,0,0,0
6:02.892,130641,),0,0,2
6:03.717,130938,(,0,0,1
6:03.764,130955,N,0,0,0
6:03.806,130970,),0,0,1
6:04.486,131215,(,0,0,2
6:04.519,131227,t,0,0,0
6:04.558,131241,),0,0,2
6:05.389,131540,(,0,0,1
6:05.447,131561,N,0,0,0
6:05.478,131572,),0,0,1
6:06.211,131836,t,0,0,2
6:06.264,131855,),0,0,2
6:10.922,133532,(,0,0,1
6:10.967,133548,N,0,0,0
6:11.008,133563,),0,0,1
6:11.686,133807,(,0,0,2
6:11.719,133819,t,0,0,0
6:11.758,133833,),0,0,2
6:13.033,134292,(,0,0,1
6:13.069,134305,N,0,0,0
6:13.111,134320,),0,0,1
6:13.256,134372,(,0,0,2
6:13.328,134398,t,0,0,1
6:13.417,134430,),0,0,2
6:13.461,134446,(,0,0,0
6:13.469,134449,p,0,0,0
6:13.622,134504,),0,0,0
6:13.628,134506,(,0,0,1
6:13.656,134516,N,0,0,0
6:13.697,134531,),0,0,1
6:13.711,134536,(,0,0,2
6:13.858,134589,t,0,0,1
6:13.983,134634,),0,0,2
6:14.806,134930,(,0,0,1
6:14.853,134947,N,0,0,0
6:14.894,134962,),0,0,1
6:15.047,135017,(,0,0,2
6:15.119,135043,t,0,0,1
6:15.197,135071,),0,0,2
6:15.428,135154,(,0,0,1
6:15.472,135170,N,0,0,0
6:15.517,135186,),0,0,1
6:16.189,135428,(,0,0,2
6:16.225,135441,t,0,0,0
6:16.267,135456,),0,0,2
6:19.125,136485,(,0,0,1
6:19.172,136502,N,0,0,0
6:19.214,136517,),0,0,1
6:19.781,136721,(,0,0,2
6:19.814,136733,t,0,0,0
6:19.856,136748,),0,0,2
6:22.192,137589,(,0,0,1
6:22.242,137607,N,0,0,0
6:22.272,137618,),0,0,1
6:22.344,137644,(,0,0,2
6:22.506,137702,t,0,0,1
6:22.589,137732,),0,0,2
6:22.767,137796,(,0,0,1
6:22.836,137821,N,0,0,0
6:22.853,137827,),0,0,1
6:22.858,137829,(,0,0,2
6:23.336,138001,t,0,0,1
6:23.639,138110,),0,0,2
6:25.169,138661,(,0,0,1
6:25.206,138674,N,0,0,0
6:25.236,138685,),0,0,1
6:25.900,138924,(,0,0,2
6:25.933,138936,t,0,0,0
6:25.975,138951,),0,0,2
6:27.361,139450,(,0,0,1
6:27.406,139466,N,0,0,0
6:27.447,139481,),0,0,1
6:27.592,139533,(,0,0,2
6:27.653,139555,t,0,0,1
6:27.731,139583,),0,0,2
6:28.136,139729,(,0,0,1
6:28.189,139748,N,0,0,0
6:28.250,139770,),0,0,1
6:28.364,139811,(,0,0,2
6:28.442,139839,t,0,0,1
6:28.519,139867,),0,0,2
6:28.964,140027,(,0,0,1
6:29.025,140049,N,0,0,0
6:29.064,140063,),0,0,1
6:29.222,140120,(,0,0,2
6:29.283,140142,t,0,0,1
6:29.383,140178,),0,0,2
6:29.792,140325,(,0,0,1
6:29.833,140340,N,0,0,0
6:29.875,140355,),0,0,1
6:30.014,140405,(,0,0,2
6:30.100,140436,t,0,0,1
6:30.206,140474,),0,0,2
6:30.706,140654,(,0,0,1
6:30.756,140672,N,0,0,0
6:30.797,140687,),0,0,1
6:30.919,140731,(,0,0,2
6:31.017,140766,t,0,0,1
6:31.103,140797,),0,0,2
6:31.286,140863,(,0,0,1
6:31.322,140876,N,0,0,0
6:31.364,140891,),0,0,1
6:31.514,140945,(,0,0,2
6:31.575,140967,t,0,0,1
6:31.653,140995,),0,0,2
6:32.103,141157,(,0,0,1
6:32.164,141179,N,0,0,0
6:32.206,141194,),0,0,1
6:32.344,141244,(,0,0,2
6:32.433,141276,t,0,0,1
6:32.522,141308,),0,0,2
6:32.972,141470,(,0,0,1
6:33.028,141490,N,0,0,0
6:33.069,141505,),0,0,1
6:33.244,141568,(,0,0,2
6:33.294,141586,t,0,0,1
6:33.364,141611,),0,0,2
6:33.697,141731,(,0,0,1
6:33.739,141746,N,0,0,0
6:33.781,141761,),0,0,1
6:33.947,141821,(,0,0,2
6:34.006,141842,t,0,0,4
6:34.203,141913,t,0,0,4
6:34.261,141934,),0,0,2
6:34.675,142083,(,0,0,1
6:34.717,142098,N,0,0,0
6:34.758,142113,),0,0,1
6:34.881,142157,(,0,0,2
6:34.983,142194,t,0,0,1
6:35.064,142223,),0,0,2
6:35.331,142319,(,0,0,1
6:35.372,142334,N,0,0,0
6:35.411,142348,),0,0,1
6:35.536,142393,(,0,0,2
6:35.639,142430,t,0,0,1
6:35.725,142461,),0,0,2
6:36.064,142583,(,0,0,1
6:36.106,142598,N,0,0,0
6:36.147,142613,),0,0,1
6:36.242,142647,(,0,0,2
6:36.378,142696,t,0,0,1
6:36.461,142726,),0,0,2
6:36.722,142820,(,0,0,1
6:36.761,142834,N,0,0,0
6:36.817,142854,),0,0,1
6:36.867,142872,(,0,0,2
6:37.017,142926,t,0,0,4
6:37.225,143001,t,0,0,4
6:37.297,143027,),0,0,2
6:37.683,143166,(,0,0,1
6:37.731,143183,N,0,0,0
6:37.772,143198,),0,0,1
6:37.925,143253,(,0,0,2
6:38.000,143280,t,0,0,1
6:38.075,143307,),0,0,2
6:38.397,143423,(,0,0,1
6:38.436,143437,N,0,0,0
6:38.478,143452,),0,0,1
6:38.600,143496,(,0,0,2
6:38.683,143526,t,0,0,1
6:38.769,143557,),0,0,2
6:38.972,143630,(,0,0,1
6:39.039,143654,N,0,0,0
6:39.067,143664,),0,0,1
6:39.228,143722,(,0,0,2
6:39.300,143748,t,0,0,1
6:39.386,143779,),0,0,2
6:42.581,144929,(,0,0,1
6:42.628,144946,N,0,0,0
6:42.669,144961,),0,0,1
6:42.786,145003,(,0,0,2
6:42.864,145031,t,0,0,1
6:42.944,145060,),0,0,2
6:43.297,145187,(,0,0,1
6:43.342,145203,N,0,0,0
6:43.381,145217,),0,0,1
6:43.528,145270,(,0,0,2
6:43.597,145295,t,0,0,1
6:43.689,145328,),0,0,2
6:43.961,145426,(,0,0,1
6:44.006,145442,N,0,0,0
6:44.044,145456,),0,0,1
6:44.108,145479,(,0,0,2
6:44.264,145535,t,0,0,1
6:44.375,145575,),0,0,2
6:44.628,145666,(,0,0,1
6:44.672,145682,N,0,0,0
6:44.711,145696,),0,0,1
6:44.831,145739,(,0,0,2
6:44.933,145776,t,0,0,1
6:45.011,145804,),0,0,2
6:45.308,145911,(,0,0,1
6:45.353,145927,N,0,0,0
6:45.392,145941,),0,0,1
6:45.464,145967,(,0,0,2
6:45.594,146014,t,0,0,1
6:45.669,146041,),0,0,2
6:46.300,146268,(,0,0,1
6:46.344,146284,N,0,0,0
6:46.383,146298,),0,0,1
6:46.544,146356,(,0,0,2
6:46.625,146385,t,0,0,1
6:46.717,146418,),0,0,2
6:47.167,146580,(,0,0,1
6:47.208,146595,N,0,0,0
6:47.247,146609,),0,0,1
6:47.403,146665,(,0,0,2
6:47.481,146693,t,0,0,1
6:47.569,146725,),0,0,2
6:47.842,146823,(,0,0,1
6:47.886,146839,N,0,0,0
6:47.928,146854,),0,0,1
6:48.056,146900,(,0,0,2
6:48.128,146926,t,0,0,1
6:48.214,146957,),0,0,2
6:48.489,147056,(,0,0,1
6:48.536,147073,N,0,0,0
6:48.578,147088,),0,0,1
6:48.719,147139,(,0,0,2
6:48.786,147163,t,0,0,1
6:48.881,147197,),0,0,2
6:49.167,147300,(,0,0,1
6:49.214,147317,N,0,0,0
6:49.256,147332,),0,0,1
6:49.400,147384,(,0,0,2
6:49.456,147404,t,0,0,1
6:49.539,147434,),0,0,2
6:52.025,148329,(,0,0,1
6:52.072,148346,N,0,0,0
6:52.111,148360,),0,0,1
6:52.256,148412,(,0,0,2
6:52.328,148438,t,0,0,1
6:52.406,148466,),0,0,2
6:54.953,149383,(,0,0,1
6:55.008,149403,N,0,0,0
6:55.047,149417,),0,0,1
6:55.186,149467,(,0,0,2
6:55.267,149496,t,0,0,1
6:55.353,149527,),0,0,2
6:55.569,149605,(,0,0,1
6:55.606,149618,N,0,0,0
6:55.644,149632,),0,0,1
6:55.767,149676,(,0,0,2
6:55.864,149711,t,0,0,1
6:55.936,149737,),0,0,2
6:56.278,149860,(,0,0,1
6:56.308,149871,N,0,0,0
6:56.347,149885,),0,0,1
6:56.444,149920,(,0,0,2
6:56.564,149963,t,0,0,1
6:56.669,150001,),0,0,2
6:57.942,150459,(,0,0,1
6:57.975,150471,N,0,0,0
6:58.017,150486,),0,0,1
6:58.175,150543,(,0,0,2
6:58.239,150566,t,0,0,1
6:58.328,150598,),0,0,2
6:58.644,150712,(,0,0,1
6:58.678,150724,N,0,0,0
6:58.717,150738,),0,0,1
6:58.842,150783,(,0,0,2
6:58.925,150813,t,0,0,1
6:59.006,150842,),0,0,2
6:59.311,150952,(,0,0,1
6:59.361,150970,N,0,0,0
6:59.400,150984,),0,0,1
6:59.542,151035,(,0,0,2
6:59.622,151064,t,0,0,4
6:59.731,151103,t,0,0,4
6:59.758,151113,),0,0,2
7:00.258,151293,(,0,0,1
7:00.294,151306,N,0,0,0
7:00.333,151320,),0,0,1
7:00.486,151375,(,0,0,2
7:00.569,151405,t,0,0,1
7:00.653,151435,),0,0,2
7:00.986,151555,(,0,0,1
7:01.042,151575,N,0,0,0
7:01.086,151591,),0,0,1
7:01.178,151624,(,0,0,2
7:01.303,151669,t,0,0,4
7:01.408,151707,t,0,0,4
7:01.472,151730,),0,0,2
7:01.647,151793,(,0,0,1
7:01.681,151805,N,0,0,0
7:01.719,151819,),0,0,1
7:01.850,151866,(,0,0,2
7:01.925,151893,t,0,0,1
7:02.000,151920,),0,0,2
7:02.978,152272,(,0,0,1
7:03.014,152285,N,0,0,0
7:03.053,152299,),0,0,1
7:03.175,152343,(,0,0,2
7:03.258,152373,t,0,0,4
7:03.358,152409,t,0,0,4
7:03.481,152453,),0,0,2
7:03.717,152538,(,0,0,1
7:03.758,152553,N,0,0,0
7:03.800,152568,),0,0,1
7:03.881,152597,(,0,0,2
7:04.000,152640,t,0,0,4
7:04.119,152683,t,0,0,4
7:04.164,152699,),0,0,2
7:04.350,152766,(,0,0,1
7:04.386,152779,N,0,0,0
7:04.425,152793,),0,0,1
7:04.569,152845,(,0,0,2
7:04.644,152872,t,0,0,1
7:04.722,152900,),0,0,2
7:05.089,153032,(,0,0,1
7:05.142,153051,N,0,0,0
7:05.172,153062,),0,0,1
7:05.250,153090,(,0,0,2
7:05.400,153144,t,0,0,1
7:05.478,153172,),0,0,2
7:05.683,153246,(,0,0,1
7:05.736,153265,N,0,0,0
7:05.778,153280,),0,0,1
7:05.900,153324,(,0,0,2
7:05.978,153352,t,0,0,1
7:06.050,153378,),0,0,2
7:06.544,153556,(,0,0,1
7:06.597,153575,N,0,0,0
7:06.636,153589,),0,0,1
7:06.747,153629,(,0,0,2
7:06.869,153673,t,0,0,1
7:06.961,153706,),0,0,2
7:07.361,153850,(,0,0,1
7:07.394,153862,N,0,0,0
7:07.425,153873,),0,0,1
7:07.514,153905,(,0,0,2
7:07.636,153949,t,0,0,4
7:07.742,153987,t,0,0,4
7:07.794,154006,),0,0,2
7:07.981,154073,(,0,0,1
7:08.031,154091,N,0,0,0
7:08.072,154106,),0,0,1
7:08.208,154155,(,0,0,2
7:08.275,154179,t,0,0,4
7:08.369,154213,t,0,0,4
7:08.481,154253,),0,0,2
7:08.850,154386,(,0,0,1
7:08.883,154398,N,0,0,0
7:08.925,154413,),0,0,1
7:09.025,154449,(,0,0,2
7:09.144,154492,t,0,0,1
7:09.231,154523,),0,0,2
7:09.586,154651,(,0,0,1
7:09.633,154668,N,0,0,0
7:09.672,154682,),0,0,1
7:09.775,154719,(,0,0,2
7:09.869,154753,t,0,0,4
7:09.978,154792,t,0,0,4
7:10.050,154818,),0,0,2
7:10.219,154879,(,0,0,1
7:10.264,154895,N,0,0,0
7:10.308,154911,),0,0,1
7:10.467,154968,(,0,0,2
7:10.531,154991,t,0,0,1
7:10.611,155020,),0,0,2
7:11.603,155377,(,0,0,1
7:11.653,155395,N,0,0,0
7:11.692,155409,),0,0,1
7:11.831,155459,(,0,0,2
7:11.911,155488,t,0,0,1
7:11.992,155517,),0,0,2
7:12.328,155638,(,0,0,1
7:12.378,155656,N,0,0,0
7:12.417,155670,),0,0,1
7:12.517,155706,(,0,0,2
7:12.619,155743,t,0,0,1
7:12.700,155772,),0,0,2
7:12.964,155867,(,0,0,1
7:13.014,155885,N,0,0,0
7:13.056,155900,),0,0,1
7:13.192,155949,(,0,0,2
7:13.269,155977,t,0,0,1
7:13.356,156008,),0,0,2
7:13.722,156140,(,0,0,1
7:13.778,156160,N,0,0,0
7:13.819,156175,),0,0,1
7:13.947,156221,(,0,0,2
7:14.044,156256,t,0,0,1
7:14.128,156286,),0,0,2
7:14.483,156414,(,0,0,1
7:14.542,156435,N,0,0,0
7:14.569,156445,),0,0,1
7:14.708,156495,(,0,0,2
7:14.797,156527,t,0,0,1
7:14.900,156564,),0,0,2
7:15.258,156693,(,0,0,1
7:15.314,156713,N,0,0,0
7:15.353,156727,),0,0,1
7:15.506,156782,(,0,0,2
7:15.578,156808,t,0,0,1
7:15.669,156841,),0,0,2
7:18.572,157886,(,0,0,1
7:18.614,157901,N,0,0,0
7:18.653,157915,),0,0,1
7:18.808,157971,(,0,0,2
7:18.872,157994,t,0,0,1
7:18.975,158031,),0,0,2
7:19.378,158176,(,0,0,1
7:19.417,158190,N,0,0,0
7:19.456,158204,),0,0,1
7:19.606,158258,(,0,0,2
7:19.678,158284,t,0,0,1
7:19.758,158313,),0,0,2
7:20.192,158469,(,0,0,1
7:20.239,158486,N,0,0,0
7:20.281,158501,),0,0,1
7:20.422,158552,(,0,0,2
7:20.514,158585,t,0,0,1
7:20.622,158624,),0,0,2
7:21.050,158778,(,0,0,1
7:21.092,158793,N,0,0,0
7:21.131,158807,),0,0,1
7:21.283,158862,(,0,0,2
7:21.356,158888,t,0,0,1
7:21.439,158918,),0,0,2
7:21.700,159012,(,0,0,1
7:21.756,159032,N,0,0,0
7:21.794,159046,),0,0,1
7:21.906,159086,(,0,0,2
7:22.003,159121,t,0,0,1
7:22.086,159151,),0,0,2
7:22.561,159322,(,0,0,1
7:22.617,159342,N,0,0,0
7:22.644,159352,),0,0,1
7:22.781,159401,(,0,0,2
7:22.872,159434,t,0,0,1
7:22.953,159463,),0,0,2
7:27.200,160992,(,0,0,1
7:27.253,161011,N,0,0,0
7:27.292,161025,),0,0,1
7:27.464,161087,(,0,0,2
7:27.517,161106,t,0,0,1
7:27.608,161139,),0,0,2
7:27.964,161267,(,0,0,1
7:28.019,161287,N,0,0,0
7:28.058,161301,),0,0,1
7:28.156,161336,(,0,0,2
7:28.267,161376,t,0,0,1
7:28.347,161405,),0,0,2
7:28.844,161584,(,0,0,1
7:28.889,161600,N,0,0,0
7:28.928,161614,),0,0,1
7:29.078,161668,(,0,0,2
7:29.142,161691,t,0,0,1
7:29.225,161721,),0,0,2
7:29.539,161834,(,0,0,1
7:29.581,161849,N,0,0,0
7:29.622,161864,),0,0,1
7:29.744,161908,(,0,0,2
7:29.833,161940,t,0,0,1
7:29.922,161972,),0,0,2
7:30.383,162138,(,0,0,1
7:30.425,162153,N,0,0,0
7:30.467,162168,),0,0,1
7:30.553,162199,(,0,0,2
7:30.675,162243,t,0,0,1
7:30.756,162272,),0,0,2
7:34.483,163614,(,0,0,1
7:34.531,163631,N,0,0,0
7:34.569,163645,),0,0,1
7:34.731,163703,(,0,0,2
7:34.792,163725,t,0,0,1
7:34.875,163755,),0,0,2
7:35.769,164077,(,0,0,1
7:35.814,164093,N,0,0,0
7:35.853,164107,),0,0,1
7:36.006,164162,(,0,0,2
7:36.081,164189,t,0,0,1
7:36.172,164222,),0,0,2
7:36.447,164321,(,0,0,1
7:36.492,164337,N,0,0,0
7:36.531,164351,),0,0,1
7:36.622,164384,(,0,0,2
7:36.747,164429,t,0,0,1
7:36.828,164458,),0,0,2
7:37.567,164724,(,0,0,1
7:37.606,164738,N,0,0,0
7:37.644,164752,),0,0,1
7:37.794,164806,(,0,0,2
7:37.886,164839,t,0,0,1
7:38.000,164880,),0,0,2
7:38.467,165048,(,0,0,1
7:38.511,165064,N,0,0,0
7:38.550,165078,),0,0,1
7:38.675,165123,(,0,0,2
7:38.789,165164,t,0,0,4
7:39.081,165269,t,0,0,4
7:39.122,165284,),0,0,2
7:39.728,165502,(,0,0,1
7:39.769,165517,N,0,0,0
7:39.811,165532,),0,0,1
7:39.900,165564,(,0,0,2
7:40.036,165613,t,0,0,1
7:40.117,165642,),0,0,2
7:40.528,165790,(,0,0,1
7:40.569,165805,N,0,0,0
7:40.611,165820,),0,0,1
7:40.700,165852,(,0,0,2
7:40.833,165900,t,0,0,4
7:41.108,165999,t,0,0,4
7:41.197,166031,),0,0,2
7:41.436,166117,(,0,0,1
7:41.469,166129,N,0,0,0
7:41.503,166141,),0,0,1
7:41.678,166204,(,0,0,2
7:41.744,166228,t,0,0,1
7:41.833,166260,),0,0,2
7:42.092,166353,(,0,0,1
7:42.150,166374,N,0,0,0
7:42.192,166389,),0,0,1
7:42.342,166443,(,0,0,2
7:42.414,166469,t,0,0,1
7:42.500,166500,),0,0,2
7:44.503,167221,(,0,0,1
7:44.572,167246,N,0,0,0
7:44.614,167261,),0,0,1
7:44.753,167311,(,0,0,2
7:44.850,167346,t,0,0,4
7:44.964,167387,t,0,0,4
7:45.000,167400,),0,0,2
7:45.400,167544,(,0,0,1
7:45.442,167559,N,0,0,0
7:45.486,167575,),0,0,1
7:45.589,167612,(,0,0,2
7:45.714,167657,t,0,0,1
7:45.794,167686,),0,0,2
7:46.194,167830,(,0,0,1
7:46.239,167846,N,0,0,0
7:46.281,167861,),0,0,1
7:46.400,167904,(,0,0,2
7:46.503,167941,t,0,0,1
7:46.592,167973,),0,0,2
7:47.042,168135,(,0,0,1
7:47.086,168151,N,0,0,0
7:47.128,168166,),0,0,1
7:47.197,168191,(,0,0,2
7:47.350,168246,t,0,0,4
7:47.597,168335,t,0,0,4
7:47.653,168355,),0,0,2
7:47.864,168431,(,0,0,1
7:47.911,168448,N,0,0,0
7:47.953,168463,),0,0,1
7:48.025,168489,(,0,0,2
7:48.183,168546,t,0,0,4
7:48.439,168638,t,0,0,4
7:48.497,168659,),0,0,2
7:49.003,168841,(,0,0,1
7:49.044,168856,N,0,0,0
7:49.083,168870,),0,0,1
7:49.217,168918,t,0,0,3
7:49.322,168956,),0,0,2
7:49.608,169059,(,0,0,1
7:49.647,169073,N,0,0,0
7:49.689,169088,),0,0,1
7:49.814,169133,(,0,0,2
7:49.894,169162,t,0,0,1
7:49.997,169199,),0,0,2
7:50.283,169302,(,0,0,1
7:50.331,169319,N,0,0,0
7:50.369,169333,),0,0,1
7:50.464,169367,(,0,0,2
7:50.583,169410,t,0,0,1
7:50.672,169442,),0,0,2
7:51.031,169571,(,0,0,1
7:51.072,169586,N,0,0,0
7:51.111,169600,),0,0,1
7:51.267,169656,(,0,0,2
7:51.325,169677,t,0,0,1
7:51.419,169711,),0,0,2
7:51.836,169861,(,0,0,1
7:51.872,169874,N,0,0,0
7:51.914,169889,),0,0,1
7:52.050,169938,(,0,0,2
7:52.133,169968,t,0,0,1
7:52.244,170008,),0,0,2
7:52.636,170149,(,0,0,1
7:52.681,170165,N,0,0,0
7:52.722,170180,),0,0,1
7:52.869,170233,(,0,0,2
7:52.947,170261,t,0,0,1
7:53.033,170292,),0,0,2
7:53.414,170429,(,0,0,1
7:53.464,170447,N,0,0,0
7:53.506,170462,),0,0,1
7:53.667,170520,(,0,0,2
7:53.719,170539,t,0,0,1
7:53.800,170568,),0,0,2
7:54.228,170722,(,0,0,1
7:54.272,170738,N,0,0,0
7:54.311,170752,),0,0,1
7:54.472,170810,(,0,0,2
7:54.539,170834,t,0,0,1
7:54.625,170865,),0,0,2
7:55.053,171019,(,0,0,1
7:55.103,171037,N,0,0,0
7:55.144,171052,),0,0,1
7:55.306,171110,(,0,0,2
7:55.381,171137,t,0,0,1
7:55.472,171170,),0,0,2
7:55.850,171306,(,0,0,1
7:55.897,171323,N,0,0,0
7:55.939,171338,),0,0,1
7:56.094,171394,(,0,0,2
7:56.161,171418,t,0,0,1
7:56.247,171449,),0,0,2
7:56.583,171570,(,0,0,1
7:56.617,171582,N,0,0,0
7:56.644,171592,),0,0,1
7:56.783,171642,(,0,0,2
7:56.867,171672,t,0,0,1
7:56.964,171707,),0,0,2
8:02.283,173622,(,0,0,1
8:02.328,173638,N,0,0,0
8:02.369,173653,),0,0,1
8:02.494,173698,(,0,0,2
8:02.578,173728,t,0,0,1
8:02.664,173759,),0,0,2
8:03.272,173978,(,0,0,1
8:03.314,173993,N,0,0,0
8:03.356,174008,),0,0,1
8:03.503,174061,(,0,0,2
8:03.575,174087,t,0,0,1
8:03.664,174119,),0,0,2
8:04.000,174240,(,0,0,1
8:04.044,174256,N,0,0,0
8:04.083,174270,),0,0,1
8:04.250,174330,(,0,0,2
8:04.297,174347,t,0,0,1
8:04.386,174379,),0,0,2
8:04.883,174558,(,0,0,1
8:04.942,174579,N,0,0,0
8:04.981,174593,),0,0,1
8:05.119,174643,(,0,0,2
8:05.208,174675,t,0,0,1
8:05.306,174710,),0,0,2
8:07.119,175363,(,0,0,1
8:07.169,175381,N,0,0,0
8:07.211,175396,),0,0,1
8:07.364,175451,(,0,0,2
8:07.442,175479,t,0,0,1
8:07.531,175511,),0,0,2
8:07.925,175653,(,0,0,1
8:07.969,175669,N,0,0,0
8:08.008,175683,),0,0,1
8:08.164,175739,(,0,0,2
8:08.233,175764,t,0,0,1
8:08.322,175796,),0,0,2
8:08.750,175950,(,0,0,1
8:08.797,175967,N,0,0,0
8:08.839,175982,),0,0,1
8:09.006,176042,(,0,0,2
8:09.078,176068,t,0,0,1
8:09.164,176099,),0,0,2
8:09.572,176246,(,0,0,1
8:09.614,176261,N,0,0,0
8:09.653,176275,),0,0,1
8:09.808,176331,(,0,0,2
8:09.883,176358,t,0,0,1
8:09.978,176392,),0,0,2
8:10.286,176503,(,0,0,1
8:10.333,176520,N,0,0,0
8:10.372,176534,),0,0,1
8:10.422,176552,(,0,0,2
8:10.592,176613,t,0,0,1
8:10.672,176642,),0,0,2
8:11.058,176781,(,0,0,1
8:11.100,176796,N,0,0,0
8:11.142,176811,),0,0,1
8:11.225,176841,(,0,0,2
8:11.361,176890,t,0,0,1
8:11.444,176920,),0,0,2
8:11.972,177110,(,0,0,1
8:12.011,177124,N,0,0,0
8:12.050,177138,),0,0,1
8:12.494,177298,(,0,0,2
8:12.558,177321,t,0,0,0
8:12.631,177347,),0,0,2
8:13.514,177665,(,0,0,1
8:13.556,177680,N,0,0,0
8:13.594,177694,),0,0,1
8:13.678,177724,(,0,0,2
8:13.808,177771,t,0,0,4
8:14.044,177856,t,0,0,4
8:14.075,177867,),0,0,2
8:14.347,177965,(,0,0,1
8:14.386,177979,N,0,0,0
8:14.425,177993,),0,0,1
8:14.894,178162,(,0,0,2
8:14.975,178191,t,0,0,0
8:15.194,178270,),0,0,2
8:15.728,178462,(,0,0,1
8:15.764,178475,N,0,0,0
8:15.806,178490,),0,0,1
8:15.944,178540,(,0,0,2
8:16.039,178574,t,0,0,1
8:16.122,178604,),0,0,2
8:16.614,178781,(,0,0,1
8:16.667,178800,N,0,0,0
8:16.694,178810,),0,0,1
8:16.881,178877,(,0,0,2
8:16.936,178897,t,0,0,1
8:17.019,178927,),0,0,2
8:17.456,179084,(,0,0,1
8:17.511,179104,N,0,0,0
8:17.542,179115,),0,0,1
8:17.700,179172,(,0,0,2
8:17.778,179200,t,0,0,1
8:17.894,179242,),0,0,2
8:18.297,179387,(,0,0,1
8:18.333,179400,N,0,0,0
8:18.364,179411,),0,0,1
8:18.517,179466,(,0,0,2
8:18.600,179496,t,0,0,1
8:18.703,179533,),0,0,2
8:19.011,179644,(,0,0,1
8:19.061,179662,N,0,0,0
8:19.092,179673,),0,0,1
8:19.161,179698,(,0,0,2
8:19.325,179757,t,0,0,4
8:19.564,179843,t,0,0,4
8:19.631,179867,),0,0,2
8:20.625,180225,(,0,0,1
8:20.661,180238,N,0,0,0
8:20.689,180248,),0,0,1
8:20.797,180287,(,0,0,2
8:20.917,180330,t,0,0,4
8:21.150,180414,t,0,0,4
8:21.172,180422,),0,0,2
8:21.431,180515,(,0,0,1
8:21.483,180534,N,0,0,0
8:21.525,180549,),0,0,1
8:21.586,180571,(,0,0,2
8:21.747,180629,t,0,0,4
8:21.986,180715,t,0,0,4
8:22.064,180743,),0,0,2
8:30.511,183784,(,0,0,1
8:30.700,183852,N,0,0,0
8:30.808,183891,),0,0,1
8:31.289,184064,t,0,0,2
8:31.361,184090,),0,0,2
8:32.136,184369,(,0,0,1
8:32.186,184387,N,0,0,0
8:32.225,184401,),0,0,1
8:32.369,184453,(,0,0,2
8:32.453,184483,t,0,0,1
8:32.553,184519,),0,0,2
8:33.694,184930,(,0,0,1
8:33.728,184942,N,0,0,0
8:33.769,184957,),0,0,1
8:33.886,184999,(,0,0,2
8:33.986,185035,t,0,0,1
8:34.069,185065,),0,0,2
8:34.442,185199,(,0,0,1
8:34.492,185217,N,0,0,0
8:34.533,185232,),0,0,1
8:34.675,185283,(,0,0,2
8:34.753,185311,t,0,0,1
8:34.839,185342,),0,0,2
8:37.086,186151,(,0,0,1
8:37.275,186219,N,0,0,0
8:37.403,186265,),0,0,1
8:37.411,186268,(,0,0,2
8:37.619,186343,t,0,0,0
8:37.714,186377,),0,0,2
8:38.042,186495,(,0,0,1
8:38.217,186558,N,0,0,0
8:38.344,186604,),0,0,1
8:38.353,186607,(,0,0,2
8:38.558,186681,t,0,0,0
8:38.625,186705,),0,0,2
8:38.761,186754,(,0,0,1
8:38.878,186796,N,0,0,0
8:38.983,186834,),0,0,1
8:38.994,186838,(,0,0,2
8:39.131,186887,t,0,0,0
8:39.208,186915,),0,0,2
8:39.361,186970,(,0,0,1
8:39.478,187012,N,0,0,0
8:39.597,187055,),0,0,1
8:39.606,187058,(,0,0,2
8:39.856,187148,t,0,0,0
8:39.947,187181,),0,0,2
8:40.100,187236,(,0,0,1
8:40.281,187301,N,0,0,0
8:40.414,187349,),0,0,1
8:40.422,187352,(,0,0,2
8:40.656,187436,t,0,0,0
8:40.775,187479,),0,0,2
8:41.061,187582,(,0,0,1
8:41.075,187587,N,0,0,0
8:41.278,187660,),0,0,1
8:41.303,187669,(,0,0,2
8:41.367,187692,t,0,0,5
8:41.486,187735,t,0,0,5
8:41.544,187756,),0,0,2
8:41.800,187848,(,0,0,1
8:41.808,187851,N,0,0,0
8:42.017,187926,),0,0,1
8:42.117,187962,(,0,0,2
8:42.158,187977,t,0,0,0
8:42.181,187985,),0,0,2
8:42.347,188045,(,0,0,1
8:42.517,188106,N,0,0,0
8:42.653,188155,),0,0,1
8:42.667,188160,(,0,0,2
8:42.808,188211,t,0,0,0
8:42.894,188242,),0,0,2
8:43.033,188292,(,0,0,1
8:43.178,188344,N,0,0,0
8:43.328,188398,),0,0,1
8:43.339,188402,(,0,0,2
8:43.522,188468,t,0,0,0
8:43.625,188505,),0,0,2
8:45.011,189004,(,0,0,1
8:45.183,189066,N,0,0,0
8:45.306,189110,),0,0,1
8:45.317,189114,(,0,0,2
8:45.444,189160,t,0,0,0
8:45.539,189194,),0,0,2
8:45.597,189215,(,0,0,1
8:45.786,189283,N,0,0,0
8:45.881,189317,),0,0,1
8:45.883,189318,(,0,0,2
8:46.042,189375,t,0,0,0
8:46.150,189414,),0,0,2
8:46.264,189455,(,0,0,1
8:46.453,189523,N,0,0,0
8:46.558,189561,),0,0,1
8:46.575,189567,(,0,0,2
8:46.764,189635,t,0,0,0
8:46.861,189670,),0,0,2
8:47.200,189792,(,0,0,1
8:47.225,189801,N,0,0,0
8:47.372,189854,),0,0,1
8:47.383,189858,(,0,0,2
8:47.506,189902,t,0,0,0
8:47.572,189926,),0,0,2
8:47.792,190005,(,0,0,1
8:47.989,190076,N,0,0,0
8:48.100,190116,),0,0,1
8:48.108,190119,(,0,0,2
8:48.294,190186,t,0,0,0
8:48.389,190220,),0,0,2
8:48.728,190342,(,0,0,1
8:48.908,190407,N,0,0,0
8:49.053,190459,),0,0,1
8:49.069,190465,(,0,0,2
8:49.244,190528,t,0,0,0
8:49.389,190580,),0,0,2
8:49.997,190799,(,0,0,1
8:50.192,190869,N,0,0,0
8:50.317,190914,),0,0,1
8:50.339,190922,(,0,0,2
8:50.569,191005,t,0,0,0
8:50.656,191036,),0,0,2
8:50.939,191138,(,0,0,1
8:51.058,191181,N,0,0,0
8:51.161,191218,),0,0,1
8:51.167,191220,(,0,0,2
8:51.331,191279,t,0,0,0
8:51.472,191330,),0,0,2
8:51.967,191508,(,0,0,0
8:52.022,191528,p,0,0,0
8:52.108,191559,),0,0,0
8:52.214,191597,(,0,0,1
8:52.269,191617,N,0,0,0
8:52.586,191731,),0,0,1
8:52.764,191795,(,0,0,2
8:52.850,191826,t,0,0,1
8:52.967,191868,),0,0,2
8:53.183,191946,(,0,0,1
8:53.333,192000,N,0,0,0
8:53.425,192033,),0,0,1
8:53.469,192049,(,0,0,2
8:53.717,192138,t,0,0,0
8:53.819,192175,),0,0,2
8:53.936,192217,(,0,0,1
8:54.125,192285,N,0,0,0
8:54.253,192331,),0,0,1
8:54.275,192339,(,0,0,2
8:54.517,192426,t,0,0,0
8:54.633,192468,),0,0,2
8:54.681,192485,(,0,0,0
8:54.747,192509,p,0,0,0
8:54.836,192541,),0,0,0
8:54.878,192556,(,0,0,1
8:54.992,192597,N,0,0,0
8:55.111,192640,),0,0,1
8:55.117,192642,(,0,0,2
8:55.164,192659,t,0,0,0
8:55.219,192679,),0,0,2
8:55.353,192727,(,0,0,1
8:55.533,192792,N,0,0,0
8:55.647,192833,),0,0,1
8:55.650,192834,(,0,0,2
8:55.917,192930,t,0,0,0
8:56.044,192976,),0,0,2
8:56.081,192989,(,0,0,0
8:56.136,193009,p,0,0,0
8:56.197,193031,),0,0,0
8:56.206,193034,(,0,0,1
8:56.356,193088,N,0,0,0
8:56.472,193130,),0,0,1
8:56.500,193140,(,0,0,2
8:56.758,193233,t,0,0,0
8:56.881,193277,),0,0,2
8:56.978,193312,(,0,0,1
8:57.164,193379,N,0,0,0
8:57.275,193419,),0,0,1
8:57.278,193420,(,0,0,2
8:57.436,193477,t,0,0,0
8:57.581,193529,),0,0,2
8:59.267,194136,(,0,0,1
8:59.425,194193,N,0,0,0
8:59.561,194242,),0,0,1
8:59.578,194248,(,0,0,2
8:59.717,194298,t,0,0,0
8:59.764,194315,),0,0,2
9:00.003,194401,N,0,0,0
9:00.008,194403,(,0,0,1
9:00.219,194479,),0,0,1
9:00.686,194647,(,0,0,1
9:00.747,194669,N,0,0,0
9:00.867,194712,),0,0,1
9:00.883,194718,(,0,0,2
9:01.056,194780,t,0,0,0
9:01.161,194818,),0,0,2
9:02.147,195173,(,0,0,1
9:02.319,195235,N,0,0,0
9:02.456,195284,),0,0,1
9:02.678,195364,(,0,0,2
9:02.744,195388,t,0,0,0
9:02.819,195415,),0,0,2
9:03.661,195718,(,0,0,0
9:03.711,195736,p,0,0,0
9:03.772,195758,),0,0,0
9:03.839,195782,(,0,0,1
9:03.933,195816,N,0,0,0
9:04.036,195853,),0,0,1
9:04.064,195863,(,0,0,2
9:04.228,195922,t,0,0,0
9:04.350,195966,),0,0,2
9:04.586,196051,(,0,0,1
9:04.764,196115,N,0,0,0
9:04.878,196156,),0,0,1
9:05.089,196232,(,0,0,2
9:05.156,196256,t,0,0,0
9:05.231,196283,),0,0,2
9:06.078,196588,(,0,0,1
9:06.256,196652,N,0,0,0
9:06.392,196701,),0,0,1
9:06.394,196702,t,0,0,2
9:06.472,196730,),0,0,2
9:10.919,198331,(,0,0,1
9:11.094,198394,N,0,0,0
9:11.219,198439,),0,0,1
9:11.222,198440,(,0,0,2
9:11.442,198519,t,0,0,0
9:11.539,198554,),0,0,2
9:11.706,198614,(,0,0,1
9:11.736,198625,N,0,0,0
9:11.778,198640,),0,0,1
9:11.917,198690,(,0,0,2
9:11.994,198718,t,0,0,1
9:12.111,198760,),0,0,2
9:12.486,198895,(,0,0,1
9:12.522,198908,N,0,0,0
9:12.569,198925,),0,0,1
9:12.728,198982,(,0,0,2
9:12.803,199009,t,0,0,1
9:12.892,199041,),0,0,2
9:13.197,199151,(,0,0,1
9:13.233,199164,N,0,0,0
9:13.261,199174,),0,0,1
9:13.406,199226,(,0,0,2
9:13.494,199258,t,0,0,4
9:13.611,199300,t,0,0,4
9:13.667,199320,),0,0,2
9:13.847,199385,(,0,0,1
9:13.886,199399,N,0,0,0
9:13.917,199410,),0,0,1
9:14.028,199450,(,0,0,2
9:14.136,199489,t,0,0,1
9:14.225,199521,),0,0,2
9:14.803,199729,(,0,0,1
9:14.839,199742,N,0,0,0
9:14.867,199752,),0,0,1
9:15.014,199805,(,0,0,2
9:15.097,199835,t,0,0,1
9:15.208,199875,),0,0,2
9:15.764,200075,(,0,0,1
9:15.800,200088,N,0,0,0
9:15.825,200097,),0,0,1
9:16.008,200163,(,0,0,2
9:16.061,200182,t,0,0,1
9:16.150,200214,),0,0,2
9:16.189,200228,(,0,0,0
9:16.272,200258,p,0,0,0
9:16.325,200277,),0,0,0
9:16.489,200336,(,0,0,1
9:16.528,200350,N,0,0,0
9:16.553,200359,),0,0,1
9:16.683,200406,(,0,0,2
9:16.792,200445,t,0,0,1
9:16.881,200477,),0,0,2
9:17.117,200562,(,0,0,0
9:17.197,200591,p,0,0,0
9:17.253,200611,),0,0,0
9:17.281,200621,(,0,0,1
9:17.319,200635,N,0,0,0
9:17.347,200645,),0,0,1
9:17.514,200705,(,0,0,2
9:17.589,200732,t,0,0,1
9:17.675,200763,),0,0,2
9:18.086,200911,(,0,0,1
9:18.122,200924,N,0,0,0
9:18.153,200935,),0,0,1
9:18.317,200994,(,0,0,2
9:18.389,201020,t,0,0,1
9:18.486,201055,),0,0,2
9:18.681,201125,(,0,0,1
9:18.717,201138,N,0,0,0
9:18.744,201148,),0,0,1
9:18.883,201198,(,0,0,2
9:18.967,201228,t,0,0,1
9:19.081,201269,),0,0,2
9:19.347,201365,(,0,0,1
9:19.383,201378,N,0,0,0
9:19.411,201388,),0,0,1
9:19.542,201435,(,0,0,2
9:19.647,201473,t,0,0,1
9:19.731,201503,),0,0,2
9:20.256,201692,(,0,0,1
9:20.292,201705,N,0,0,0
9:20.319,201715,),0,0,1
9:20.497,201779,(,0,0,2
9:20.567,201804,t,0,0,1
9:20.711,201856,),0,0,2
9:21.214,202037,(,0,0,1
9:21.253,202051,N,0,0,0
9:21.281,202061,),0,0,1
9:21.389,202100,(,0,0,2
9:21.522,202148,t,0,0,4
9:21.797,202247,t,0,0,4
9:21.867,202272,),0,0,2
9:22.111,202360,(,0,0,1
9:22.147,202373,N,0,0,0
9:22.192,202389,),0,0,1
9:22.350,202446,(,0,0,2
9:22.425,202473,t,0,0,4
9:22.644,202552,t,0,0,4
9:22.714,202577,),0,0,2
9:22.753,202591,(,0,0,0
9:22.794,202606,p,0,0,0
9:22.856,202628,),0,0,0
9:22.944,202660,(,0,0,1
9:22.972,202670,N,0,0,0
9:23.017,202686,),0,0,1
9:23.108,202719,(,0,0,2
9:23.233,202764,t,0,0,1
9:23.314,202793,),0,0,2
9:23.636,202909,(,0,0,0
9:23.661,202918,p,0,0,0
9:23.692,202929,),0,0,0
9:23.847,202985,(,0,0,1
9:23.886,202999,N,0,0,0
9:23.914,203009,),0,0,1
9:24.108,203079,(,0,0,2
9:24.169,203101,t,0,0,1
9:24.256,203132,),0,0,2
9:24.461,203206,(,0,0,0
9:24.533,203232,p,0,0,0
9:24.589,203252,),0,0,0
9:24.689,203288,(,0,0,1
9:24.719,203299,N,0,0,0
9:24.764,203315,),0,0,1
9:24.911,203368,(,0,0,2
9:24.986,203395,t,0,0,1
9:25.072,203426,),0,0,2
9:25.206,203474,(,0,0,0
9:25.231,203483,p,0,0,0
9:25.303,203509,),0,0,0
9:25.483,203574,(,0,0,1
9:25.514,203585,N,0,0,0
9:25.556,203600,),0,0,1
9:25.631,203627,(,0,0,2
9:25.767,203676,t,0,0,1
9:25.842,203703,),0,0,2
9:26.361,203890,(,0,0,1
9:26.397,203903,N,0,0,0
9:26.428,203914,),0,0,1
9:26.583,203970,(,0,0,2
9:26.672,204002,t,0,0,1
9:26.772,204038,),0,0,2
9:27.164,204179,(,0,0,1
9:27.192,204189,N,0,0,0
9:27.233,204204,),0,0,1
9:27.383,204258,(,0,0,2
9:27.464,204287,t,0,0,1
9:27.583,204330,),0,0,2
9:27.967,204468,(,0,0,1
9:27.994,204478,N,0,0,0
9:28.022,204488,),0,0,1
9:28.208,204555,(,0,0,2
9:28.267,204576,t,0,0,1
9:28.358,204609,),0,0,2
9:28.839,204782,(,0,0,1
9:28.867,204792,N,0,0,0
9:28.894,204802,),0,0,1
9:29.067,204864,(,0,0,2
9:29.131,204887,t,0,0,1
9:29.222,204920,),0,0,2
9:29.358,204969,(,0,0,0
9:29.458,205005,p,0,0,0
9:29.492,205017,),0,0,0
9:29.622,205064,(,0,0,1
9:29.658,205077,N,0,0,0
9:29.686,205087,),0,0,1
9:29.839,205142,(,0,0,2
9:29.917,205170,t,0,0,1
9:30.008,205203,),0,0,2
9:30.194,205270,(,0,0,0
9:30.203,205273,p,0,0,0
9:30.225,205281,),0,0,0
9:30.406,205346,(,0,0,1
9:30.436,205357,N,0,0,0
9:30.481,205373,),0,0,1
9:30.636,205429,(,0,0,2
9:30.708,205455,t,0,0,1
9:30.792,205485,),0,0,2
9:31.033,205572,(,0,0,1
9:31.064,205583,N,0,0,0
9:31.111,205600,),0,0,1
9:31.267,205656,(,0,0,2
9:31.333,205680,t,0,0,1
9:31.444,205720,),0,0,2
9:31.489,205736,(,0,0,0
9:31.511,205744,p,0,0,0
9:31.569,205765,),0,0,0
9:31.669,205801,(,0,0,1
9:31.697,205811,N,0,0,0
9:31.742,205827,),0,0,1
9:31.875,205875,(,0,0,2
9:31.958,205905,t,0,0,1
9:32.044,205936,),0,0,2
9:32.469,206089,(,0,0,1
9:32.497,206099,N,0,0,0
9:32.522,206108,),0,0,1
9:32.686,206167,(,0,0,2
9:32.756,206192,t,0,0,1
9:32.878,206236,),0,0,2
9:33.372,206414,(,0,0,1
9:33.411,206428,N,0,0,0
9:33.456,206444,),0,0,1
9:33.617,206502,(,0,0,2
9:33.686,206527,t,0,0,1
9:33.775,206559,),0,0,2
9:34.011,206644,(,0,0,1
9:34.042,206655,N,0,0,0
9:34.086,206671,),0,0,1
9:34.225,206721,(,0,0,2
9:34.308,206751,t,0,0,1
9:34.394,206782,),0,0,2
9:34.781,206921,(,0,0,1
9:34.811,206932,N,0,0,0
9:34.839,206942,),0,0,1
9:35.014,207005,(,0,0,2
9:35.081,207029,t,0,0,1
9:35.169,207061,),0,0,2
9:35.494,207178,(,0,0,1
9:35.525,207189,N,0,0,0
9:35.553,207199,),0,0,1
9:35.669,207241,(,0,0,2
9:35.772,207278,t,0,0,1
9:35.847,207305,),0,0,2
9:36.139,207410,(,0,0,1
9:36.169,207421,N,0,0,0
9:36.200,207432,),0,0,1
9:36.381,207497,(,0,0,2
9:36.431,207515,t,0,0,1
9:36.522,207548,),0,0,2
9:36.944,207700,(,0,0,1
9:36.983,207714,N,0,0,0
9:37.011,207724,),0,0,1
9:37.167,207780,(,0,0,2
9:37.256,207812,t,0,0,1
9:37.356,207848,),0,0,2
9:37.653,207955,(,0,0,0
9:37.700,207972,p,0,0,0
9:37.750,207990,),0,0,0
9:37.789,208004,(,0,0,1
9:37.819,208015,N,0,0,0
9:37.847,208025,),0,0,1
9:38.014,208085,(,0,0,2
9:38.097,208115,t,0,0,1
9:38.181,208145,),0,0,2
9:38.578,208288,(,0,0,1
9:38.606,208298,N,0,0,0
9:38.633,208308,),0,0,1
9:38.794,208366,(,0,0,2
9:38.872,208394,t,0,0,1
9:38.953,208423,),0,0,2
9:39.303,208549,(,0,0,1
9:39.331,208559,N,0,0,0
9:39.375,208575,),0,0,1
9:39.514,208625,(,0,0,2
9:39.589,208652,t,0,0,1
9:39.703,208693,),0,0,2
9:39.883,208758,(,0,0,1
9:39.917,208770,N,0,0,0
9:39.958,208785,),0,0,1
9:40.094,208834,(,0,0,2
9:40.161,208858,t,0,0,1
9:40.286,208903,),0,0,2
9:40.578,209008,(,0,0,1
9:40.614,209021,N,0,0,0
9:40.642,209031,),0,0,1
9:40.753,209071,(,0,0,2
9:40.858,209109,t,0,0,1
9:40.936,209137,),0,0,2
9:41.125,209205,(,0,0,0
9:41.203,209233,p,0,0,0
9:41.256,209252,),0,0,0
9:41.297,209267,(,0,0,1
9:41.336,209281,N,0,0,0
9:41.367,209292,),0,0,1
9:41.514,209345,(,0,0,2
9:41.597,209375,t,0,0,1
9:41.678,209404,),0,0,2
9:42.078,209548,(,0,0,1
9:42.117,209562,N,0,0,0
9:42.147,209573,),0,0,1
9:42.303,209629,(,0,0,2
9:42.386,209659,t,0,0,1
9:42.472,209690,),0,0,2
9:42.847,209825,(,0,0,1
9:42.883,209838,N,0,0,0
9:42.925,209853,),0,0,1
9:43.069,209905,(,0,0,2
9:43.144,209932,t,0,0,1
9:43.222,209960,),0,0,2
9:43.625,210105,(,0,0,1
9:43.661,210118,N,0,0,0
9:43.686,210127,),0,0,1
9:43.836,210181,(,0,0,2
9:43.917,210210,t,0,0,1
9:43.997,210239,),0,0,2
9:44.406,210386,(,0,0,1
9:44.442,210399,N,0,0,0
9:44.467,210408,),0,0,1
9:44.625,210465,(,0,0,2
9:44.711,210496,t,0,0,1
9:44.792,210525,),0,0,2
9:45.019,210607,(,0,0,1
9:45.056,210620,N,0,0,0
9:45.083,210630,),0,0,1
9:45.231,210683,(,0,0,2
9:45.308,210711,t,0,0,1
9:45.381,210737,),0,0,2
9:45.981,210953,(,0,0,1
9:46.017,210966,N,0,0,0
9:46.044,210976,),0,0,1
9:46.200,211032,(,0,0,2
9:46.278,211060,t,0,0,1
9:46.358,211089,),0,0,2
9:46.761,211234,(,0,0,1
9:46.797,211247,N,0,0,0
9:46.822,211256,),0,0,1
9:46.967,211308,(,0,0,2
9:47.050,211338,t,0,0,1
9:47.122,211364,),0,0,2
9:47.539,211514,(,0,0,1
9:47.575,211527,N,0,0,0
9:47.603,211537,),0,0,1
9:47.750,211590,(,0,0,2
9:47.828,211618,t,0,0,1
9:47.906,211646,),0,0,2
9:48.278,211780,(,0,0,1
9:48.317,211794,N,0,0,0
9:48.356,211808,),0,0,1
9:48.497,211859,(,0,0,2
9:48.575,211887,t,0,0,1
9:48.689,211928,),0,0,2
9:49.131,212087,(,0,0,1
9:49.167,212100,N,0,0,0
9:49.194,212110,),0,0,1
9:49.350,212166,(,0,0,2
9:49.428,212194,t,0,0,1
9:49.506,212222,),0,0,2
9:49.744,212308,(,0,0,0
9:49.819,212335,p,0,0,0
9:49.875,212355,),0,0,0
9:49.911,212368,(,0,0,1
9:49.939,212378,N,0,0,0
9:49.967,212388,),0,0,1
9:50.122,212444,(,0,0,2
9:50.197,212471,t,0,0,1
9:50.275,212499,),0,0,2
9:50.547,212597,(,0,0,1
9:50.586,212611,N,0,0,0
9:50.614,212621,),0,0,1
9:50.711,212656,(,0,0,2
9:50.831,212699,t,0,0,1
9:50.925,212733,),0,0,2
9:51.478,212932,(,0,0,1
9:51.517,212946,N,0,0,0
9:51.544,212956,),0,0,1
9:51.703,213013,(,0,0,2
9:51.794,213046,t,0,0,1
9:51.892,213081,),0,0,2
9:52.306,213230,(,0,0,1
9:52.342,213243,N,0,0,0
9:52.369,213253,),0,0,1
9:52.489,213296,(,0,0,2
9:52.600,213336,t,0,0,1
9:52.686,213367,),0,0,2
9:53.103,213517,(,0,0,1
9:53.139,213530,N,0,0,0
9:53.167,213540,),0,0,1
9:53.258,213573,(,0,0,2
9:53.408,213627,t,0,0,1
9:53.486,213655,),0,0,2
9:53.806,213770,(,0,0,1
9:53.839,213782,N,0,0,0
9:53.867,213792,),0,0,1
9:54.028,213850,(,0,0,2
9:54.103,213877,t,0,0,1
9:54.186,213907,),0,0,2
9:54.522,214028,(,0,0,1
9:54.558,214041,N,0,0,0
9:54.586,214051,),0,0,1
9:54.731,214103,(,0,0,2
9:54.817,214134,t,0,0,1
9:54.917,214170,),0,0,2
9:55.181,214265,(,0,0,0
9:55.244,214288,p,0,0,0
9:55.308,214311,),0,0,0
9:55.375,214335,(,0,0,1
9:55.406,214346,N,0,0,0
9:55.433,214356,),0,0,1
9:55.572,214406,(,0,0,2
9:55.669,214441,t,0,0,1
9:55.756,214472,),0,0,2
9:56.317,214674,(,0,0,1
9:56.344,214684,N,0,0,0
9:56.372,214694,),0,0,1
9:56.533,214752,(,0,0,2
9:56.614,214781,t,0,0,1
9:56.703,214813,),0,0,2
9:57.064,214943,(,0,0,1
9:57.100,214956,N,0,0,0
9:57.125,214965,),0,0,1
9:57.272,215018,(,0,0,2
9:57.353,215047,t,0,0,1
9:57.464,215087,),0,0,2
9:57.872,215234,(,0,0,1
9:57.908,215247,N,0,0,0
9:57.942,215259,),0,0,1
9:58.103,215317,(,0,0,2
9:58.183,215346,t,0,0,1
9:58.269,215377,),0,0,2
9:58.689,215528,(,0,0,1
9:58.725,215541,N,0,0,0
9:58.756,215552,),0,0,1
9:58.908,215607,(,0,0,2
9:58.983,215634,t,0,0,1
9:59.061,215662,),0,0,2
9:59.414,215789,(,0,0,1
9:59.453,215803,N,0,0,0
9:59.481,215813,),0,0,1
9:59.639,215870,(,0,0,2
9:59.714,215897,t,0,0,1
9:59.822,215936,),0,0,2
10:00.003,216001,(,0,0,1
10:00.042,216015,N,0,0,0
10:00.069,216025,),0,0,1
10:00.222,216080,(,0,0,2
10:00.303,216109,t,0,0,1
10:00.408,216147,),0,0,2
10:00.469,216169,(,0,0,0
10:00.531,216191,p,0,0,0
10:00.600,216216,),0,0,0
10:00.664,216239,(,0,0,1
10:00.703,216253,N,0,0,0
10:00.731,216263,),0,0,1
10:00.864,216311,(,0,0,2
10:00.967,216348,t,0,0,1
10:01.061,216382,),0,0,2
10:01.417,216510,(,0,0,1
10:01.450,216522,N,0,0,0
10:01.481,216533,),0,0,1
10:01.639,216590,(,0,0,2
10:01.717,216618,t,0,0,1
10:01.794,216646,),0,0,2
10:02.197,216791,(,0,0,1
10:02.233,216804,N,0,0,0
10:02.264,216815,),0,0,1
10:02.425,216873,(,0,0,2
10:02.506,216902,t,0,0,1
10:02.589,216932,),0,0,2
10:02.856,217028,(,0,0,1
10:02.892,217041,N,0,0,0
10:02.922,217052,),0,0,1
10:03.033,217092,(,0,0,2
10:03.139,217130,t,0,0,1
10:03.219,217159,),0,0,2
10:03.336,217201,(,0,0,0
10:03.364,217211,p,0,0,0
10:03.386,217219,),0,0,0
10:03.478,217252,(,0,0,1
10:03.511,217264,N,0,0,0
10:03.558,217281,),0,0,1
10:03.619,217303,(,0,0,2
10:03.761,217354,t,0,0,1
10:03.836,217381,),0,0,2
10:04.003,217441,(,0,0,0
10:04.078,217468,p,0,0,0
10:04.128,217486,),0,0,0
10:04.197,217511,(,0,0,1
10:04.225,217521,N,0,0,0
10:04.253,217531,),0,0,1
10:04.375,217575,(,0,0,2
10:04.478,217612,t,0,0,1
10:04.567,217644,),0,0,2
10:04.953,217783,(,0,0,1
10:04.992,217797,N,0,0,0
10:05.019,217807,),0,0,1
10:05.175,217863,(,0,0,2
10:05.264,217895,t,0,0,1
10:05.367,217932,),0,0,2
10:05.631,218027,(,0,0,1
10:05.661,218038,N,0,0,0
10:05.706,218054,),0,0,1
10:05.781,218081,(,0,0,2
10:05.900,218124,t,0,0,1
10:05.978,218152,),0,0,2
10:06.783,218442,(,0,0,1
10:06.814,218453,N,0,0,0
10:06.839,218462,),0,0,1
10:06.931,218495,(,0,0,2
10:07.075,218547,t,0,0,1
10:07.167,218580,),0,0,2
10:07.647,218753,(,0,0,1
10:07.686,218767,N,0,0,0
10:07.714,218777,),0,0,1
10:07.875,218835,(,0,0,2
10:07.958,218865,t,0,0,1
10:08.058,218901,),0,0,2
10:08.644,219112,(,0,0,1
10:08.683,219126,N,0,0,0
10:08.714,219137,),0,0,1
10:08.883,219198,(,0,0,2
10:08.950,219222,t,0,0,1
10:09.047,219257,),0,0,2
10:09.653,219475,(,0,0,1
10:09.689,219488,N,0,0,0
10:09.731,219503,),0,0,1
10:09.889,219560,(,0,0,2
10:09.950,219582,t,0,0,1
10:10.044,219616,),0,0,2
10:10.147,219653,(,0,0,1
10:10.231,219683,N,0,0,0
10:10.292,219705,),0,0,1
10:10.419,219751,(,0,0,2
10:10.481,219773,t,0,0,1
10:10.628,219826,),0,0,2
10:11.211,220036,(,0,0,1
10:11.242,220047,N,0,0,0
10:11.269,220057,),0,0,1
10:11.447,220121,(,0,0,2
10:11.519,220147,t,0,0,1
10:11.608,220179,),0,0,2
10:11.769,220237,(,0,0,1
10:11.803,220249,N,0,0,0
10:11.831,220259,),0,0,1
10:12.000,220320,(,0,0,2
10:12.069,220345,t,0,0,4
10:12.233,220404,t,0,0,4
10:12.286,220423,),0,0,2
10:12.519,220507,(,0,0,1
10:12.550,220518,N,0,0,0
10:12.578,220528,),0,0,1
10:12.739,220586,(,0,0,2
10:12.814,220613,t,0,0,1
10:12.908,220647,),0,0,2
10:13.333,220800,(,0,0,1
10:13.372,220814,N,0,0,0
10:13.397,220823,),0,0,1
10:13.525,220869,(,0,0,2
10:13.614,220901,t,0,0,1
10:13.711,220936,),0,0,2
10:14.025,221049,(,0,0,1
10:14.053,221059,N,0,0,0
10:14.078,221068,),0,0,1
10:14.211,221116,(,0,0,2
10:14.314,221153,t,0,0,1
10:14.392,221181,),0,0,2
10:14.633,221268,(,0,0,1
10:14.647,221273,N,0,0,0
10:14.683,221286,),0,0,1
10:14.736,221305,(,0,0,2
10:14.861,221350,t,0,0,1
10:14.981,221393,),0,0,2
10:15.325,221517,(,0,0,1
10:15.361,221530,N,0,0,0
10:15.392,221541,),0,0,1
10:15.531,221591,(,0,0,2
10:15.611,221620,t,0,0,4
10:15.706,221654,t,0,0,4
10:15.747,221669,),0,0,2
10:15.867,221712,(,0,0,0
10:15.919,221731,p,0,0,0
10:15.953,221743,),0,0,0
10:16.094,221794,(,0,0,1
10:16.125,221805,N,0,0,0
10:16.153,221815,),0,0,1
10:16.317,221874,(,0,0,2
10:16.389,221900,t,0,0,1
10:16.469,221929,),0,0,2
10:16.667,222000,(,0,0,0
10:16.711,222016,p,0,0,0
10:16.753,222031,),0,0,0
10:16.806,222050,(,0,0,1
10:16.836,222061,N,0,0,0
10:16.864,222071,),0,0,1
10:16.961,222106,(,0,0,2
10:17.097,222155,t,0,0,1
10:17.203,222193,),0,0,2
10:17.403,222265,(,0,0,0
10:17.436,222277,p,0,0,0
10:17.481,222293,),0,0,0
10:17.586,222331,(,0,0,1
10:17.614,222341,N,0,0,0
10:17.656,222356,),0,0,1
10:17.800,222408,(,0,0,2
10:17.864,222431,t,0,0,4
10:18.025,222489,t,0,0,4
10:18.075,222507,),0,0,2
10:18.089,222512,(,0,0,0
10:18.197,222551,p,0,0,0
10:18.239,222566,),0,0,0
10:18.261,222574,(,0,0,1
10:18.300,222588,N,0,0,0
10:18.342,222603,),0,0,1
10:18.486,222655,(,0,0,2
10:18.567,222684,t,0,0,4
10:18.675,222723,t,0,0,4
10:18.717,222738,),0,0,2
10:18.736,222745,(,0,0,0
10:18.819,222775,p,0,0,0
10:18.881,222797,),0,0,0
10:18.994,222838,(,0,0,1
10:19.025,222849,N,0,0,0
10:19.069,222865,),0,0,1
10:19.225,222921,(,0,0,2
10:19.275,222939,t,0,0,1
10:19.381,222977,),0,0,2
10:19.614,223061,(,0,0,1
10:19.653,223075,N,0,0,0
10:19.681,223085,),0,0,1
10:19.767,223116,(,0,0,2
10:19.908,223167,t,0,0,4
10:20.061,223222,t,0,0,4
10:20.125,223245,),0,0,2
10:20.422,223352,(,0,0,1
10:20.453,223363,N,0,0,0
10:20.481,223373,),0,0,1
10:20.644,223432,(,0,0,2
10:20.717,223458,t,0,0,1
10:20.792,223485,),0,0,2
10:20.886,223519,(,0,0,1
10:20.972,223550,N,0,0,0
10:21.039,223574,),0,0,1
10:21.067,223584,(,0,0,2
10:21.217,223638,t,0,0,1
10:21.347,223685,),0,0,2
10:21.514,223745,(,0,0,0
10:21.522,223748,p,0,0,0
10:21.558,223761,),0,0,0
10:21.792,223845,(,0,0,1
10:21.819,223855,N,0,0,0
10:21.847,223865,),0,0,1
10:22.017,223926,(,0,0,2
10:22.086,223951,t,0,0,1
10:22.178,223984,),0,0,2
10:22.500,224100,(,0,0,0
10:22.583,224130,p,0,0,0
10:22.625,224145,),0,0,0
10:22.667,224160,(,0,0,1
10:22.697,224171,N,0,0,0
10:22.722,224180,),0,0,1
10:22.806,224210,(,0,0,2
10:22.967,224268,t,0,0,4
10:23.103,224317,t,0,0,4
10:23.150,224334,),0,0,2
10:23.153,224335,(,0,0,0
10:23.178,224344,p,0,0,0
10:23.322,224396,),0,0,0
10:23.353,224407,(,0,0,1
10:23.356,224408,N,0,0,0
10:23.392,224421,),0,0,1
10:23.503,224461,(,0,0,2
10:23.581,224489,t,0,0,1
10:23.694,224530,),0,0,2
10:24.000,224640,(,0,0,0
10:24.058,224661,p,0,0,0
10:24.122,224684,),0,0,0
10:24.164,224699,(,0,0,1
10:24.189,224708,N,0,0,0
10:24.233,224724,),0,0,1
10:24.358,224769,(,0,0,2
10:24.444,224800,t,0,0,1
10:24.522,224828,),0,0,2
10:24.900,224964,(,0,0,1
10:24.936,224977,N,0,0,0
10:24.981,224993,),0,0,1
10:25.144,225052,(,0,0,2
10:25.206,225074,t,0,0,1
10:25.300,225108,),0,0,2
10:25.558,225201,(,0,0,0
10:25.569,225205,p,0,0,0
10:25.608,225219,),0,0,0
10:25.731,225263,(,0,0,1
10:25.761,225274,N,0,0,0
10:25.789,225284,),0,0,1
10:25.947,225341,(,0,0,2
10:26.019,225367,t,0,0,1
10:26.100,225396,),0,0,2
10:26.306,225470,(,0,0,1
10:26.336,225481,N,0,0,0
10:26.381,225497,),0,0,1
10:26.533,225552,(,0,0,2
10:26.594,225574,t,0,0,1
10:26.694,225610,),0,0,2
10:27.131,225767,(,0,0,1
10:27.158,225777,N,0,0,0
10:27.186,225787,),0,0,1
10:27.367,225852,(,0,0,2
10:27.419,225871,t,0,0,1
10:27.525,225909,),0,0,2
10:27.717,225978,(,0,0,0
10:27.764,225995,p,0,0,0
10:27.806,226010,),0,0,0
10:27.928,226054,(,0,0,1
10:27.956,226064,N,0,0,0
10:27.983,226074,),0,0,1
10:28.142,226131,(,0,0,2
10:28.225,226161,t,0,0,1
10:28.297,226187,),0,0,2
10:28.542,226275,(,0,0,1
10:28.572,226286,N,0,0,0
10:28.600,226296,),0,0,1
10:28.739,226346,(,0,0,2
10:28.828,226378,t,0,0,1
10:28.903,226405,),0,0,2
10:29.167,226500,(,0,0,0
10:29.214,226517,p,0,0,0
10:29.247,226529,),0,0,0
10:29.367,226572,(,0,0,1
10:29.397,226583,N,0,0,0
10:29.425,226593,),0,0,1
10:29.586,226651,(,0,0,2
10:29.664,226679,t,0,0,1
10:29.747,226709,),0,0,2
10:30.011,226804,(,0,0,1
10:30.039,226814,N,0,0,0
10:30.081,226829,),0,0,1
10:30.217,226878,(,0,0,2
10:30.294,226906,t,0,0,1
10:30.372,226934,),0,0,2
10:30.625,227025,(,0,0,0
10:30.636,227029,p,0,0,0
10:30.697,227051,),0,0,0
10:30.742,227067,(,0,0,1
10:30.772,227078,N,0,0,0
10:30.814,227093,),0,0,1
10:30.967,227148,(,0,0,2
10:31.028,227170,t,0,0,1
10:31.117,227202,),0,0,2
10:31.364,227291,(,0,0,0
10:31.422,227312,p,0,0,0
10:31.500,227340,),0,0,0
10:31.561,227362,(,0,0,1
10:31.589,227372,N,0,0,0
10:31.617,227382,),0,0,1
10:31.781,227441,(,0,0,2
10:31.856,227468,t,0,0,1
10:31.939,227498,),0,0,2
10:32.339,227642,(,0,0,1
10:32.375,227655,N,0,0,0
10:32.403,227665,),0,0,1
10:32.522,227708,(,0,0,2
10:32.639,227750,t,0,0,1
10:32.711,227776,),0,0,2
10:33.203,227953,(,0,0,1
10:33.233,227964,N,0,0,0
10:33.278,227980,),0,0,1
10:33.436,228037,(,0,0,2
10:33.503,228061,t,0,0,1
10:33.606,228098,),0,0,2
10:33.733,228144,(,0,0,0
10:33.772,228158,p,0,0,0
10:33.858,228189,),0,0,0
10:33.942,228219,(,0,0,1
10:33.972,228230,N,0,0,0
10:34.014,228245,),0,0,1
10:34.144,228292,(,0,0,2
10:34.231,228323,t,0,0,1
10:34.311,228352,),0,0,2
10:34.456,228404,(,0,0,0
10:34.464,228407,p,0,0,0
10:34.517,228426,),0,0,0
10:34.558,228441,(,0,0,1
10:34.586,228451,N,0,0,0
10:34.614,228461,),0,0,1
10:34.719,228499,(,0,0,2
10:34.839,228542,t,0,0,4
10:35.008,228603,t,0,0,4
10:35.044,228616,),0,0,2
10:35.314,228713,(,0,0,1
10:35.350,228726,N,0,0,0
10:35.381,228737,),0,0,1
10:35.522,228788,(,0,0,2
10:35.606,228818,t,0,0,1
10:35.694,228850,),0,0,2
10:35.728,228862,(,0,0,0
10:35.811,228892,p,0,0,0
10:35.858,228909,),0,0,0
10:36.064,228983,(,0,0,1
10:36.089,228992,N,0,0,0
10:36.117,229002,),0,0,1
10:36.253,229051,(,0,0,2
10:36.347,229085,t,0,0,1
10:36.425,229113,),0,0,2
10:36.817,229254,(,0,0,1
10:36.853,229267,N,0,0,0
10:36.886,229279,),0,0,1
10:37.044,229336,(,0,0,2
10:37.108,229359,t,0,0,1
10:37.186,229387,),0,0,2
10:37.306,229430,(,0,0,1
10:37.392,229461,N,0,0,0
10:37.456,229484,),0,0,1
10:37.525,229509,(,0,0,2
10:37.633,229548,t,0,0,1
10:37.756,229592,),0,0,2
10:37.919,229651,(,0,0,0
10:38.053,229699,p,0,0,0
10:38.089,229712,),0,0,0
10:38.133,229728,(,0,0,1
10:38.161,229738,N,0,0,0
10:38.189,229748,),0,0,1
10:38.300,229788,(,0,0,2
10:38.422,229832,t,0,0,1
10:38.514,229865,),0,0,2
10:38.853,229987,(,0,0,1
10:38.892,230001,N,0,0,0
10:38.917,230010,),0,0,1
10:39.078,230068,(,0,0,2
10:39.150,230094,t,0,0,1
10:39.228,230122,),0,0,2
10:39.269,230137,(,0,0,0
10:39.300,230148,p,0,0,0
10:39.361,230170,),0,0,0
10:39.519,230227,(,0,0,1
10:39.556,230240,N,0,0,0
10:39.583,230250,),0,0,1
10:39.703,230293,(,0,0,2
10:39.806,230330,t,0,0,1
10:39.881,230357,),0,0,2
10:40.292,230505,(,0,0,1
10:40.328,230518,N,0,0,0
10:40.358,230529,),0,0,1
10:40.481,230573,(,0,0,2
10:40.581,230609,t,0,0,1
10:40.667,230640,),0,0,2
10:40.864,230711,(,0,0,1
10:40.903,230725,N,0,0,0
10:40.933,230736,),0,0,1
10:41.094,230794,(,0,0,2
10:41.153,230815,t,0,0,1
10:41.247,230849,),0,0,2
10:41.675,231003,(,0,0,0
10:41.706,231014,p,0,0,0
10:41.739,231026,),0,0,0
10:41.839,231062,(,0,0,1
10:41.867,231072,N,0,0,0
10:41.911,231088,),0,0,1
10:42.039,231134,(,0,0,2
10:42.125,231165,t,0,0,1
10:42.203,231193,),0,0,2
10:42.269,231217,(,0,0,0
10:42.342,231243,p,0,0,0
10:42.400,231264,),0,0,0
10:42.428,231274,(,0,0,1
10:42.456,231284,N,0,0,0
10:42.486,231295,),0,0,1
10:42.608,231339,(,0,0,2
10:42.703,231373,t,0,0,1
10:42.775,231399,),0,0,2
10:43.411,231628,(,0,0,1
10:43.450,231642,N,0,0,0
10:43.481,231653,),0,0,1
10:43.653,231715,(,0,0,2
10:43.719,231739,t,0,0,1
10:43.808,231771,),0,0,2
10:44.422,231992,(,0,0,1
10:44.453,232003,N,0,0,0
10:44.494,232018,),0,0,1
10:44.631,232067,(,0,0,2
10:44.714,232097,t,0,0,1
10:44.789,232124,),0,0,2
10:44.792,232125,(,0,0,0
10:44.836,232141,p,0,0,0
10:44.956,232184,),0,0,0
10:45.036,232213,(,0,0,1
10:45.064,232223,N,0,0,0
10:45.092,232233,),0,0,1
10:45.225,232281,(,0,0,2
10:45.319,232315,t,0,0,1
10:45.417,232350,),0,0,2
10:45.700,232452,(,0,0,1
10:45.731,232463,N,0,0,0
10:45.761,232474,),0,0,1
10:45.883,232518,(,0,0,2
10:45.989,232556,t,0,0,1
10:46.086,232591,),0,0,2
10:46.472,232730,(,0,0,1
10:46.500,232740,N,0,0,0
10:46.544,232756,),0,0,1
10:46.681,232805,(,0,0,2
10:46.750,232830,t,0,0,1
10:46.828,232858,),0,0,2
10:47.294,233026,(,0,0,1
10:47.322,233036,N,0,0,0
10:47.361,233050,),0,0,1
10:47.489,233096,(,0,0,2
10:47.569,233125,t,0,0,1
10:47.656,233156,),0,0,2
10:48.278,233380,(,0,0,1
10:48.306,233390,N,0,0,0
10:48.350,233406,),0,0,1
10:48.494,233458,(,0,0,2
10:48.578,233488,t,0,0,1
10:48.658,233517,),0,0,2
10:49.150,233694,(,0,0,0
10:49.208,233715,p,0,0,0
10:49.281,233741,),0,0,0
10:49.331,233759,(,0,0,1
10:49.361,233770,N,0,0,0
10:49.389,233780,),0,0,1
10:49.550,233838,(,0,0,2
10:49.636,233869,t,0,0,1
10:49.725,233901,),0,0,2
10:50.097,234035,(,0,0,1
10:50.128,234046,N,0,0,0
10:50.169,234061,),0,0,1
10:50.297,234107,(,0,0,2
10:50.397,234143,t,0,0,1
10:50.486,234175,),0,0,2
10:50.536,234193,(,0,0,0
10:50.544,234196,p,0,0,0
10:50.586,234211,),0,0,0
10:50.700,234252,(,0,0,1
10:50.731,234263,N,0,0,0
10:50.758,234273,),0,0,1
10:50.917,234330,(,0,0,2
10:50.978,234352,t,0,0,1
10:51.050,234378,),0,0,2
10:51.536,234553,(,0,0,1
10:51.564,234563,N,0,0,0
10:51.592,234573,),0,0,1
10:51.747,234629,(,0,0,2
10:51.825,234657,t,0,0,1
10:51.906,234686,),0,0,2
10:52.514,234905,(,0,0,1
10:52.553,234919,N,0,0,0
10:52.581,234929,),0,0,1
10:52.731,234983,(,0,0,2
10:52.831,235019,t,0,0,1
10:52.906,235046,),0,0,2
10:52.908,235047,(,0,0,0
10:52.961,235066,p,0,0,0
10:53.086,235111,),0,0,0
10:53.128,235126,(,0,0,1
10:53.158,235137,N,0,0,0
10:53.203,235153,),0,0,1
10:53.369,235213,(,0,0,2
10:53.422,235232,t,0,0,1
10:53.517,235266,),0,0,2
10:53.642,235311,(,0,0,0
10:53.678,235324,p,0,0,0
10:53.756,235352,),0,0,0
10:53.914,235409,(,0,0,1
10:53.950,235422,N,0,0,0
10:53.994,235438,),0,0,1
10:54.128,235486,(,0,0,2
10:54.217,235518,t,0,0,1
10:54.297,235547,),0,0,2
10:54.800,235728,(,0,0,0
10:54.833,235740,p,0,0,0
10:54.911,235768,),0,0,0
10:54.986,235795,(,0,0,1
10:55.014,235805,N,0,0,0
10:55.042,235815,),0,0,1
10:55.169,235861,(,0,0,2
10:55.269,235897,t,0,0,1
10:55.361,235930,),0,0,2
10:55.817,236094,(,0,0,0
10:55.906,236126,p,0,0,0
10:55.972,236150,),0,0,0
10:56.014,236165,(,0,0,1
10:56.039,236174,N,0,0,0
10:56.067,236184,),0,0,1
10:56.253,236251,(,0,0,2
10:56.308,236271,t,0,0,1
10:56.419,236311,),0,0,2
10:56.778,236440,(,0,0,1
10:56.808,236451,N,0,0,0
10:56.850,236466,),0,0,1
10:56.997,236519,(,0,0,2
10:57.069,236545,t,0,0,1
10:57.161,236578,),0,0,2
10:57.625,236745,(,0,0,1
10:57.653,236755,N,0,0,0
10:57.697,236771,),0,0,1
10:57.847,236825,(,0,0,2
10:57.908,236847,t,0,0,1
10:58.006,236882,),0,0,2
10:58.350,237006,(,0,0,1
10:58.389,237020,N,0,0,0
10:58.417,237030,),0,0,1
10:58.578,237088,(,0,0,2
10:58.642,237111,t,0,0,1
10:58.722,237140,),0,0,2
10:59.000,237240,(,0,0,1
10:59.028,237250,N,0,0,0
10:59.056,237260,),0,0,1
10:59.200,237312,(,0,0,2
10:59.281,237341,t,0,0,1
10:59.361,237370,),0,0,2
10:59.578,237448,(,0,0,0
10:59.597,237455,p,0,0,0
10:59.653,237475,),0,0,0
10:59.686,237487,(,0,0,1
10:59.717,237498,N,0,0,0
10:59.761,237514,),0,0,1
10:59.922,237572,(,0,0,2
10:59.989,237596,t,0,0,1
11:00.089,237632,),0,0,2
11:00.261,237694,(,0,0,0
11:00.325,237717,p,0,0,0
11:00.389,237740,),0,0,0
11:00.422,237752,(,0,0,1
11:00.450,237762,N,0,0,0
11:00.494,237778,),0,0,1
11:00.597,237815,(,0,0,2
11:00.700,237852,t,0,0,4
11:00.783,237882,t,0,0,4
11:00.817,237894,),0,0,2
11:00.842,237903,(,0,0,0
11:00.936,237937,p,0,0,0
11:00.975,237951,),0,0,0
11:01.044,237976,(,0,0,1
11:01.083,237990,N,0,0,0
11:01.111,238000,),0,0,1
11:01.253,238051,(,0,0,2
11:01.328,238078,t,0,0,1
11:01.403,238105,),0,0,2
11:01.447,238121,(,0,0,0
11:01.503,238141,p,0,0,0
11:01.553,238159,),0,0,0
11:01.769,238237,(,0,0,1
11:01.800,238248,N,0,0,0
11:01.828,238258,),0,0,1
11:01.994,238318,(,0,0,2
11:02.061,238342,t,0,0,1
11:02.153,238375,),0,0,2
11:02.519,238507,(,0,0,0
11:02.572,238526,p,0,0,0
11:02.617,238542,),0,0,0
11:02.658,238557,(,0,0,1
11:02.694,238570,N,0,0,0
11:02.722,238580,),0,0,1
11:02.833,238620,(,0,0,2
11:02.950,238662,t,0,0,1
11:03.053,238699,),0,0,2
11:03.439,238838,(,0,0,1
11:03.475,238851,N,0,0,0
11:03.506,238862,),0,0,1
11:03.678,238924,(,0,0,2
11:03.747,238949,t,0,0,1
11:03.833,238980,),0,0,2
11:04.208,239115,(,0,0,1
11:04.244,239128,N,0,0,0
11:04.275,239139,),0,0,1
11:04.406,239186,(,0,0,2
11:04.511,239224,t,0,0,1
11:04.586,239251,),0,0,2
11:05.214,239477,(,0,0,1
11:05.253,239491,N,0,0,0
11:05.281,239501,),0,0,1
11:05.414,239549,(,0,0,2
11:05.514,239585,t,0,0,4
11:05.758,239673,t,0,0,4
11:05.864,239711,),0,0,2
11:06.822,240056,(,0,0,1
11:06.858,240069,N,0,0,0
11:06.889,240080,),0,0,1
11:07.081,240149,(,0,0,2
11:07.133,240168,t,0,0,1
11:07.219,240199,),0,0,2
11:07.714,240377,(,0,0,1
11:07.753,240391,N,0,0,0
11:07.781,240401,),0,0,1
11:07.903,240445,(,0,0,2
11:08.022,240488,t,0,0,4
11:08.256,240572,t,0,0,4
11:08.331,240599,),0,0,2
11:08.583,240690,(,0,0,1
11:08.622,240704,N,0,0,0
11:08.667,240720,),0,0,1
11:08.800,240768,(,0,0,2
11:08.886,240799,t,0,0,1
11:08.961,240826,),0,0,2
11:09.358,240969,(,0,0,1
11:09.389,240980,N,0,0,0
11:09.431,240995,),0,0,1
11:09.575,241047,(,0,0,2
11:09.653,241075,t,0,0,4
11:09.872,241154,t,0,0,4
11:09.944,241180,),0,0,2
11:10.083,241230,(,0,0,0
11:10.094,241234,p,0,0,0
11:10.136,241249,),0,0,0
11:10.231,241283,(,0,0,1
11:10.264,241295,N,0,0,0
11:10.306,241310,),0,0,1
11:10.478,241372,(,0,0,2
11:10.539,241394,t,0,0,1
11:10.636,241429,),0,0,2
11:10.797,241487,(,0,0,0
11:10.806,241490,p,0,0,0
11:10.814,241493,),0,0,0
11:10.939,241538,(,0,0,1
11:10.978,241552,N,0,0,0
11:11.006,241562,),0,0,1
11:11.172,241622,(,0,0,2
11:11.244,241648,t,0,0,1
11:11.333,241680,),0,0,2
11:13.208,242355,(,0,0,0
11:13.247,242369,p,0,0,0
11:13.292,242385,),0,0,0
11:13.450,242442,(,0,0,1
11:13.478,242452,N,0,0,0
11:13.506,242462,),0,0,1
11:13.678,242524,(,0,0,2
11:13.742,242547,t,0,0,1
11:13.839,242582,),0,0,2
11:14.053,242659,(,0,0,1
11:14.092,242673,N,0,0,0
11:14.133,242688,),0,0,1
11:14.256,242732,(,0,0,2
11:14.347,242765,t,0,0,1
11:14.419,242791,),0,0,2
11:14.825,242937,(,0,0,1
11:14.861,242950,N,0,0,0
11:14.889,242960,),0,0,1
11:15.036,243013,(,0,0,2
11:15.117,243042,t,0,0,1
11:15.192,243069,),0,0,2
11:15.614,243221,(,0,0,1
11:15.644,243232,N,0,0,0
11:15.672,243242,),0,0,1
11:15.817,243294,(,0,0,2
11:15.903,243325,t,0,0,1
11:15.981,243353,),0,0,2
11:16.356,243488,(,0,0,1
11:16.386,243499,N,0,0,0
11:16.414,243509,),0,0,1
11:16.575,243567,(,0,0,2
11:16.647,243593,t,0,0,1
11:16.722,243620,),0,0,2
11:17.044,243736,(,0,0,0
11:17.114,243761,p,0,0,0
11:17.172,243782,),0,0,0
11:17.283,243822,(,0,0,1
11:17.311,243832,N,0,0,0
11:17.339,243842,),0,0,1
11:17.492,243897,(,0,0,2
11:17.575,243927,t,0,0,1
11:17.653,243955,),0,0,2
11:18.056,244100,(,0,0,1
11:18.092,244113,N,0,0,0
11:18.136,244129,),0,0,1
11:18.247,244169,(,0,0,2
11:18.356,244208,t,0,0,1
11:18.428,244234,),0,0,2
11:18.711,244336,(,0,0,0
11:18.775,244359,p,0,0,0
11:18.847,244385,),0,0,0
11:18.889,244400,(,0,0,1
11:18.925,244413,N,0,0,0
11:18.972,244430,),0,0,1
11:19.122,244484,(,0,0,2
11:19.189,244508,t,0,0,1
11:19.278,244540,),0,0,2
11:19.594,244654,(,0,0,1
11:19.628,244666,N,0,0,0
11:19.656,244676,),0,0,1
11:19.808,244731,(,0,0,2
11:19.883,244758,t,0,0,1
11:19.969,244789,),0,0,2
11:20.094,244834,(,0,0,0
11:20.144,244852,p,0,0,0
11:20.181,244865,),0,0,0
11:20.297,244907,(,0,0,1
11:20.336,244921,N,0,0,0
11:20.364,244931,),0,0,1
11:20.486,244975,(,0,0,2
11:20.594,245014,t,0,0,1
11:20.678,245044,),0,0,2
11:20.850,245106,(,0,0,0
11:20.894,245122,p,0,0,0
11:20.939,245138,),0,0,0
11:20.986,245155,(,0,0,1
11:21.017,245166,N,0,0,0
11:21.044,245176,),0,0,1
11:21.122,245204,(,0,0,2
11:21.264,245255,t,0,0,1
11:21.356,245288,),0,0,2
11:21.678,245404,(,0,0,0
11:21.750,245430,p,0,0,0
11:21.842,245463,),0,0,0
11:21.922,245492,(,0,0,1
11:21.953,245503,N,0,0,0
11:21.978,245512,),0,0,1
11:22.158,245577,(,0,0,2
11:22.211,245596,t,0,0,4
11:22.350,245646,t,0,0,4
11:22.428,245674,),0,0,2
11:22.806,245810,(,0,0,1
11:22.833,245820,N,0,0,0
11:22.861,245830,),0,0,1
11:23.017,245886,(,0,0,2
11:23.097,245915,t,0,0,1
11:23.181,245945,),0,0,2
11:23.775,246159,(,0,0,1
11:23.806,246170,N,0,0,0
11:23.833,246180,),0,0,1
11:23.972,246230,(,0,0,2
11:24.086,246271,t,0,0,1
11:24.186,246307,),0,0,2
11:24.519,246427,(,0,0,1
11:24.553,246439,N,0,0,0
11:24.581,246449,),0,0,1
11:24.769,246517,(,0,0,2
11:24.825,246537,t,0,0,1
11:24.919,246571,),0,0,2
11:25.192,246669,(,0,0,0
11:25.225,246681,p,0,0,0
11:25.267,246696,),0,0,0
11:25.389,246740,(,0,0,1
11:25.425,246753,N,0,0,0
11:25.453,246763,),0,0,1
11:25.617,246822,(,0,0,2
11:25.694,246850,t,0,0,1
11:25.775,246879,),0,0,2
11:26.492,247137,(,0,0,1
11:26.528,247150,N,0,0,0
11:26.556,247160,),0,0,1
11:26.714,247217,(,0,0,2
11:26.794,247246,t,0,0,1
11:26.881,247277,),0,0,2
11:27.011,247324,(,0,0,0
11:27.119,247363,p,0,0,0
11:27.164,247379,),0,0,0
11:27.189,247388,(,0,0,1
11:27.228,247402,N,0,0,0
11:27.256,247412,),0,0,1
11:27.397,247463,(,0,0,2
11:27.500,247500,t,0,0,1
11:27.581,247529,),0,0,2
11:27.797,247607,(,0,0,1
11:27.836,247621,N,0,0,0
11:27.878,247636,),0,0,1
11:27.942,247659,(,0,0,2
11:28.086,247711,t,0,0,1
11:28.186,247747,),0,0,2
11:32.689,249368,(,0,0,1
11:32.717,249378,N,0,0,0
11:32.744,249388,),0,0,1
11:32.878,249436,(,0,0,2
11:32.981,249473,t,0,0,1
11:33.092,249513,),0,0,2
11:33.389,249620,(,0,0,1
11:33.417,249630,N,0,0,0
11:33.447,249641,),0,0,1
11:33.597,249695,(,0,0,2
11:33.683,249726,t,0,0,1
11:33.761,249754,),0,0,2
11:34.142,249891,(,0,0,1
11:34.178,249904,N,0,0,0
11:34.206,249914,),0,0,1
11:34.381,249977,(,0,0,2
11:34.453,250003,t,0,0,1
11:34.533,250032,),0,0,2
11:34.819,250135,(,0,0,0
11:34.889,250160,p,0,0,0
11:34.950,250182,),0,0,0
11:35.092,250233,(,0,0,1
11:35.119,250243,N,0,0,0
11:35.161,250258,),0,0,1
11:35.317,250314,(,0,0,2
11:35.392,250341,t,0,0,4
11:35.617,250422,t,0,0,4
11:35.719,250459,),0,0,2
11:36.250,250650,(,0,0,0
11:36.281,250661,p,0,0,0
11:36.325,250677,),0,0,0
11:36.536,250753,(,0,0,1
11:36.578,250768,N,0,0,0
11:36.606,250778,),0,0,1
11:36.789,250844,(,0,0,2
11:36.867,250872,t,0,0,1
11:36.961,250906,),0,0,2
11:37.206,250994,(,0,0,0
11:37.217,250998,p,0,0,0
11:37.253,251011,),0,0,0
11:37.344,251044,(,0,0,1
11:37.375,251055,N,0,0,0
11:37.417,251070,),0,0,1
11:37.578,251128,(,0,0,2
11:37.647,251153,t,0,0,1
11:37.725,251181,),0,0,2
11:38.100,251316,(,0,0,1
11:38.131,251327,N,0,0,0
11:38.172,251342,),0,0,1
11:38.319,251395,(,0,0,2
11:38.411,251428,t,0,0,1
11:38.497,251459,),0,0,2
11:38.772,251558,(,0,0,0
11:38.853,251587,p,0,0,0
11:38.886,251599,),0,0,0
11:38.981,251633,(,0,0,1
11:39.011,251644,N,0,0,0
11:39.056,251660,),0,0,1
11:39.208,251715,(,0,0,2
11:39.278,251740,t,0,0,1
11:39.375,251775,),0,0,2
11:39.669,251881,(,0,0,1
11:39.708,251895,N,0,0,0
11:39.736,251905,),0,0,1
11:39.869,251953,(,0,0,2
11:39.964,251987,t,0,0,1
11:40.044,252016,),0,0,2
11:40.186,252067,(,0,0,0
11:40.194,252070,p,0,0,0
11:40.275,252099,),0,0,0
