Elapsedtime,sample,Type,Sub,Chan,Num
0:00.728,262,(,0,0,0
0:00.767,276,p,0,0,0
0:00.811,292,),0,0,0
0:00.831,299,(,0,0,1
0:00.867,312,N,0,0,0
0:00.908,327,),0,0,1
0:01.100,396,(,0,0,2
0:01.156,416,t,0,0,5
0:01.253,451,t,0,0,5
0:01.317,474,),0,0,2
0:01.561,562,(,0,0,0
0:01.597,575,p,0,0,0
0:01.644,592,),0,0,0
0:01.658,597,(,0,0,1
0:01.700,612,N,0,0,0
0:01.742,627,),0,0,1
0:01.956,704,(,0,0,2
0:02.003,721,t,0,0,5
0:02.092,753,t,0,0,5
0:02.175,783,),0,0,2
0:02.403,865,(,0,0,0
0:02.442,879,p,0,0,0
0:02.486,895,),0,0,0
0:02.500,900,(,0,0,1
0:02.542,915,N,0,0,0
0:02.583,930,),0,0,1
0:02.789,1004,(,0,0,2
0:02.833,1020,t,0,0,5
0:02.925,1053,t,0,0,5
0:03.003,1081,),0,0,2
0:03.236,1165,(,0,0,0
0:03.275,1179,p,0,0,0
0:03.314,1193,),0,0,0
0:03.328,1198,(,0,0,1
0:03.369,1213,N,0,0,0
0:03.411,1228,),0,0,1
0:03.486,1255,(,0,0,2
0:03.664,1319,t,0,0,5
0:03.756,1352,t,0,0,5
0:03.836,1381,),0,0,2
0:04.078,1468,(,0,0,0
0:04.114,1481,p,0,0,0
0:04.153,1495,),0,0,0
0:04.167,1500,(,0,0,1
0:04.214,1517,N,0,0,0
0:04.258,1533,),0,0,1
0:04.461,1606,(,0,0,2
0:04.514,1625,t,0,0,5
0:04.603,1657,t,0,0,5
0:04.667,1680,),0,0,2
0:04.903,1765,(,0,0,0
0:04.939,1778,p,0,0,0
0:04.986,1795,),0,0,0
0:05.000,1800,(,0,0,1
0:05.044,1816,N,0,0,0
0:05.086,1831,),0,0,1
0:05.300,1908,(,0,0,2
0:05.347,1925,t,0,0,5
0:05.428,1954,t,0,0,5
0:05.517,1986,),0,0,2
0:05.739,2066,(,0,0,0
0:05.778,2080,p,0,0,0
0:05.825,2097,),0,0,0
0:05.839,2102,(,0,0,1
0:05.889,2120,N,0,0,0
0:05.933,2136,),0,0,1
0:06.153,2215,(,0,0,2
0:06.192,2229,t,0,0,5
0:06.283,2262,t,0,0,5
0:06.361,2290,),0,0,2
0:06.592,2373,(,0,0,0
0:06.628,2386,p,0,0,0
0:06.672,2402,),0,0,0
0:06.692,2409,(,0,0,1
0:06.733,2424,N,0,0,0
0:06.775,2439,),0,0,1
0:06.972,2510,(,0,0,2
0:07.019,2527,t,0,0,5
0:07.108,2559,t,0,0,5
0:07.200,2592,),0,0,2
0:07.419,2671,(,0,0,0
0:07.456,2684,p,0,0,0
0:07.503,2701,),0,0,0
0:07.522,2708,(,0,0,1
0:07.561,2722,N,0,0,0
0:07.600,2736,),0,0,1
0:07.797,2807,(,0,0,2
0:07.847,2825,t,0,0,5
0:07.944,2860,t,0,0,5
0:08.008,2883,),0,0,2
0:08.264,2975,(,0,0,0
0:08.306,2990,p,0,0,0
0:08.347,3005,),0,0,0
0:08.364,3011,(,0,0,1
0:08.406,3026,N,0,0,0
0:08.447,3041,),0,0,1
0:08.661,3118,(,0,0,2
0:08.711,3136,t,0,0,5
0:08.794,3166,t,0,0,5
0:08.869,3193,),0,0,2
0:09.106,3278,(,0,0,0
0:09.147,3293,p,0,0,0
0:09.192,3309,),0,0,0
0:09.206,3314,(,0,0,1
0:09.250,3330,N,0,0,0
0:09.289,3344,),0,0,1
0:09.503,3421,(,0,0,2
0:09.544,3436,t,0,0,5
0:09.625,3465,t,0,0,5
0:09.708,3495,),0,0,2
0:09.928,3574,(,0,0,0
0:09.964,3587,p,0,0,0
0:10.006,3602,),0,0,0
0:10.022,3608,(,0,0,1
0:10.061,3622,N,0,0,0
0:10.106,3638,),0,0,1
0:10.317,3714,(,0,0,2
0:10.358,3729,t,0,0,5
0:10.439,3758,t,0,0,5
0:10.517,3786,),0,0,2
0:10.764,3875,(,0,0,0
0:10.800,3888,p,0,0,0
0:10.839,3902,),0,0,0
0:10.861,3910,(,0,0,1
0:10.900,3924,N,0,0,0
0:10.942,3939,),0,0,1
0:11.142,4011,(,0,0,2
0:11.200,4032,t,0,0,5
0:11.278,4060,t,0,0,5
0:11.347,4085,),0,0,2
0:11.600,4176,(,0,0,0
0:11.636,4189,p,0,0,0
0:11.672,4202,),0,0,0
0:11.694,4210,(,0,0,1
0:11.733,4224,N,0,0,0
0:11.775,4239,),0,0,1
0:11.994,4318,(,0,0,2
0:12.036,4333,t,0,0,5
0:12.114,4361,t,0,0,5
0:12.194,4390,),0,0,2
0:12.439,4478,(,0,0,0
0:12.475,4491,p,0,0,0
0:12.519,4507,),0,0,0
0:12.542,4515,(,0,0,1
0:12.583,4530,N,0,0,0
0:12.628,4546,),0,0,1
0:12.839,4622,(,0,0,2
0:12.886,4639,t,0,0,5
0:12.961,4666,t,0,0,5
0:13.036,4693,),0,0,2
0:13.283,4782,(,0,0,0
0:13.317,4794,p,0,0,0
0:13.361,4810,),0,0,0
0:13.375,4815,(,0,0,1
0:13.419,4831,N,0,0,0
0:13.464,4847,),0,0,1
0:13.678,4924,(,0,0,2
0:13.717,4938,t,0,0,5
0:13.800,4968,t,0,0,5
0:13.875,4995,),0,0,2
0:14.092,5073,(,0,0,0
0:14.131,5087,p,0,0,0
0:14.178,5104,),0,0,0
0:14.197,5111,(,0,0,1
0:14.242,5127,N,0,0,0
0:14.283,5142,),0,0,1
0:14.489,5216,(,0,0,2
0:14.533,5232,t,0,0,5
0:14.619,5263,t,0,0,5
0:14.700,5292,),0,0,2
0:14.947,5381,(,0,0,0
0:14.986,5395,p,0,0,0
0:15.033,5412,),0,0,0
0:15.047,5417,(,0,0,1
0:15.094,5434,N,0,0,0
0:15.136,5449,),0,0,1
0:15.344,5524,(,0,0,2
0:15.397,5543,t,0,0,5
0:15.483,5574,t,0,0,5
0:15.558,5601,),0,0,2
0:15.803,5689,(,0,0,0
0:15.842,5703,p,0,0,0
0:15.886,5719,),0,0,0
0:15.903,5725,(,0,0,1
0:15.947,5741,N,0,0,0
0:15.986,5755,),0,0,1
0:16.197,5831,(,0,0,2
0:16.242,5847,t,0,0,5
0:16.325,5877,t,0,0,5
0:16.389,5900,),0,0,2
0:16.625,5985,(,0,0,0
0:16.664,5999,p,0,0,0
0:16.700,6012,),0,0,0
0:16.717,6018,(,0,0,1
0:16.761,6034,N,0,0,0
0:16.806,6050,),0,0,1
0:17.017,6126,(,0,0,2
0:17.058,6141,t,0,0,5
0:17.139,6170,t,0,0,5
0:17.211,6196,),0,0,2
0:17.469,6289,(,0,0,0
0:17.506,6302,p,0,0,0
0:17.544,6316,),0,0,0
0:17.564,6323,(,0,0,1
0:17.608,6339,N,0,0,0
0:17.653,6355,),0,0,1
0:17.864,6431,(,0,0,2
0:17.906,6446,t,0,0,5
0:17.981,6473,t,0,0,5
0:18.053,6499,),0,0,2
0:18.297,6587,(,0,0,0
0:18.336,6601,p,0,0,0
0:18.375,6615,),0,0,0
0:18.394,6622,(,0,0,1
0:18.439,6638,N,0,0,0
0:18.483,6654,),0,0,1
0:18.689,6728,(,0,0,2
0:18.733,6744,t,0,0,5
0:18.822,6776,t,0,0,5
0:18.903,6805,),0,0,2
0:19.142,6891,(,0,0,0
0:19.181,6905,p,0,0,0
0:19.222,6920,),0,0,0
0:19.239,6926,(,0,0,1
0:19.283,6942,N,0,0,0
0:19.325,6957,),0,0,1
0:19.508,7023,(,0,0,2
0:19.575,7047,t,0,0,5
0:19.658,7077,t,0,0,5
0:19.736,7105,),0,0,2
0:19.978,7192,(,0,0,0
0:20.017,7206,p,0,0,0
0:20.058,7221,),0,0,0
0:20.075,7227,(,0,0,1
0:20.122,7244,N,0,0,0
0:20.164,7259,),0,0,1
0:20.369,7333,(,0,0,2
0:20.408,7347,t,0,0,5
0:20.489,7376,t,0,0,5
0:20.556,7400,),0,0,2
0:20.794,7486,(,0,0,0
0:20.828,7498,p,0,0,0
0:20.869,7513,),0,0,0
0:20.889,7520,(,0,0,1
0:20.931,7535,N,0,0,0
0:20.975,7551,),0,0,1
0:21.181,7625,(,0,0,2
0:21.225,7641,t,0,0,5
0:21.319,7675,t,0,0,5
0:21.389,7700,),0,0,2
0:21.633,7788,(,0,0,0
0:21.672,7802,p,0,0,0
0:21.717,7818,),0,0,0
0:21.733,7824,(,0,0,1
0:21.778,7840,N,0,0,0
0:21.822,7856,),0,0,1
0:22.028,7930,(,0,0,2
0:22.072,7946,t,0,0,5
0:22.161,7978,t,0,0,5
0:22.225,8001,),0,0,2
0:22.475,8091,(,0,0,0
0:22.514,8105,p,0,0,0
0:22.558,8121,),0,0,0
0:22.575,8127,(,0,0,1
0:22.619,8143,N,0,0,0
0:22.658,8157,),0,0,1
0:22.864,8231,(,0,0,2
0:22.911,8248,t,0,0,5
0:22.992,8277,t,0,0,5
0:23.061,8302,),0,0,2
0:23.300,8388,(,0,0,0
0:23.339,8402,p,0,0,0
0:23.383,8418,),0,0,0
0:23.403,8425,(,0,0,1
0:23.444,8440,N,0,0,0
0:23.486,8455,),0,0,1
0:23.692,8529,(,0,0,2
0:23.731,8543,t,0,0,5
0:23.817,8574,t,0,0,5
0:23.894,8602,),0,0,2
0:24.131,8687,(,0,0,0
0:24.172,8702,p,0,0,0
0:24.214,8717,),0,0,0
0:24.233,8724,(,0,0,1
0:24.275,8739,N,0,0,0
0:24.319,8755,),0,0,1
0:24.519,8827,(,0,0,2
0:24.558,8841,t,0,0,5
0:24.639,8870,t,0,0,5
0:24.719,8899,),0,0,2
0:24.958,8985,(,0,0,0
0:25.000,9000,p,0,0,0
0:25.044,9016,),0,0,0
0:25.061,9022,(,0,0,1
0:25.106,9038,N,0,0,0
0:25.147,9053,),0,0,1
0:25.350,9126,(,0,0,2
0:25.400,9144,t,0,0,5
0:25.483,9174,t,0,0,5
0:25.567,9204,),0,0,2
0:25.808,9291,(,0,0,0
0:25.847,9305,p,0,0,0
0:25.889,9320,),0,0,0
0:25.906,9326,(,0,0,1
0:25.950,9342,N,0,0,0
0:25.992,9357,),0,0,1
0:26.072,9386,(,0,0,2
0:26.233,9444,t,0,0,5
0:26.319,9475,t,0,0,5
0:26.392,9501,),0,0,2
0:26.636,9589,(,0,0,0
0:26.672,9602,p,0,0,0
0:26.711,9616,),0,0,0
0:26.731,9623,(,0,0,1
0:26.769,9637,N,0,0,0
0:26.811,9652,),0,0,1
0:27.006,9722,(,0,0,2
0:27.061,9742,t,0,0,5
0:27.144,9772,t,0,0,5
0:27.214,9797,),0,0,2
0:27.456,9884,(,0,0,0
0:27.489,9896,p,0,0,0
0:27.536,9913,),0,0,0
0:27.547,9917,(,0,0,1
0:27.592,9933,N,0,0,0
0:27.636,9949,),0,0,1
0:27.853,10027,(,0,0,2
0:27.894,10042,t,0,0,5
0:27.978,10072,t,0,0,5
0:28.067,10104,),0,0,2
0:28.297,10187,(,0,0,0
0:28.333,10200,p,0,0,0
0:28.378,10216,),0,0,0
0:28.397,10223,(,0,0,1
0:28.439,10238,N,0,0,0
0:28.481,10253,),0,0,1
0:28.692,10329,(,0,0,2
0:28.731,10343,t,0,0,5
0:28.806,10370,t,0,0,5
0:28.886,10399,),0,0,2
0:29.128,10486,(,0,0,0
0:29.167,10500,p,0,0,0
0:29.208,10515,),0,0,0
0:29.228,10522,(,0,0,1
0:29.269,10537,N,0,0,0
0:29.311,10552,),0,0,1
0:29.511,10624,(,0,0,2
0:29.564,10643,t,0,0,5
0:29.647,10673,t,0,0,5
0:29.711,10696,),0,0,2
0:29.950,10782,(,0,0,0
0:29.989,10796,p,0,0,0
0:30.031,10811,),0,0,0
0:30.044,10816,(,0,0,1
0:30.094,10834,N,0,0,0
0:30.133,10848,),0,0,1
0:30.328,10918,(,0,0,2
0:30.381,10937,t,0,0,5
0:30.472,10970,t,0,0,5
0:30.531,10991,),0,0,2
0:30.803,11089,(,0,0,0
0:30.836,11101,p,0,0,0
0:30.883,11118,),0,0,0
0:30.900,11124,(,0,0,1
0:30.942,11139,N,0,0,0
0:30.983,11154,),0,0,1
0:31.178,11224,(,0,0,2
0:31.222,11240,t,0,0,5
0:31.306,11270,t,0,0,5
0:31.372,11294,),0,0,2
0:31.628,11386,(,0,0,0
0:31.664,11399,p,0,0,0
0:31.711,11416,),0,0,0
0:31.731,11423,(,0,0,1
0:31.769,11437,N,0,0,0
0:31.811,11452,),0,0,1
0:32.019,11527,(,0,0,2
0:32.061,11542,t,0,0,5
0:32.150,11574,t,0,0,5
0:32.228,11602,),0,0,2
0:32.475,11691,(,0,0,0
0:32.517,11706,p,0,0,0
0:32.561,11722,),0,0,0
0:32.578,11728,(,0,0,1
0:32.619,11743,N,0,0,0
0:32.661,11758,),0,0,1
0:32.858,11829,(,0,0,2
0:32.897,11843,t,0,0,5
0:32.978,11872,t,0,0,5
0:33.056,11900,),0,0,2
0:33.308,11991,(,0,0,0
0:33.344,12004,p,0,0,0
0:33.383,12018,),0,0,0
0:33.403,12025,(,0,0,1
0:33.444,12040,N,0,0,0
0:33.483,12054,),0,0,1
0:33.678,12124,(,0,0,2
0:33.728,12142,t,0,0,5
0:33.808,12171,t,0,0,5
0:33.872,12194,),0,0,2
0:34.128,12286,(,0,0,0
0:34.164,12299,p,0,0,0
0:34.206,12314,),0,0,0
0:34.222,12320,(,0,0,1
0:34.264,12335,N,0,0,0
0:34.303,12349,),0,0,1
0:34.517,12426,(,0,0,2
0:34.564,12443,t,0,0,5
0:34.650,12474,t,0,0,5
0:34.722,12500,),0,0,2
0:34.981,12593,(,0,0,0
0:35.019,12607,p,0,0,0
0:35.061,12622,),0,0,0
0:35.078,12628,(,0,0,1
0:35.122,12644,N,0,0,0
0:35.164,12659,),0,0,1
0:35.375,12735,(,0,0,2
0:35.419,12751,t,0,0,5
0:35.500,12780,t,0,0,5
0:35.578,12808,),0,0,2
0:35.825,12897,(,0,0,0
0:35.861,12910,p,0,0,0
0:35.906,12926,),0,0,0
0:35.919,12931,(,0,0,1
0:35.967,12948,N,0,0,0
0:36.008,12963,),0,0,1
0:36.222,13040,(,0,0,2
0:36.258,13053,t,0,0,5
0:36.336,13081,t,0,0,5
0:36.414,13109,),0,0,2
0:36.647,13193,(,0,0,0
0:36.683,13206,p,0,0,0
0:36.728,13222,),0,0,0
0:36.744,13228,(,0,0,1
0:36.786,13243,N,0,0,0
0:36.828,13258,),0,0,1
0:37.031,13331,(,0,0,2
0:37.075,13347,t,0,0,5
0:37.164,13379,t,0,0,5
0:37.242,13407,),0,0,2
0:37.500,13500,(,0,0,0
0:37.533,13512,p,0,0,0
0:37.578,13528,),0,0,0
0:37.594,13534,(,0,0,1
0:37.639,13550,N,0,0,0
0:37.678,13564,),0,0,1
0:37.872,13634,(,0,0,2
0:37.919,13651,t,0,0,5
0:38.003,13681,t,0,0,5
0:38.081,13709,),0,0,2
0:38.325,13797,(,0,0,0
0:38.358,13809,p,0,0,0
0:38.406,13826,),0,0,0
0:38.419,13831,(,0,0,1
0:38.464,13847,N,0,0,0
0:38.503,13861,),0,0,1
0:38.722,13940,(,0,0,2
0:38.764,13955,t,0,0,5
0:38.844,13984,t,0,0,5
0:38.939,14018,),0,0,2
0:39.178,14104,(,0,0,0
0:39.214,14117,p,0,0,0
0:39.261,14134,),0,0,0
0:39.275,14139,(,0,0,1
0:39.319,14155,N,0,0,0
0:39.361,14170,),0,0,1
0:39.572,14246,(,0,0,2
0:39.608,14259,t,0,0,5
0:39.697,14291,t,0,0,5
0:39.772,14318,),0,0,2
0:40.011,14404,(,0,0,0
0:40.044,14416,p,0,0,0
0:40.089,14432,),0,0,0
0:40.106,14438,(,0,0,1
0:40.147,14453,N,0,0,0
0:40.189,14468,),0,0,1
0:40.378,14536,(,0,0,2
0:40.433,14556,t,0,0,5
0:40.517,14586,t,0,0,5
0:40.583,14610,),0,0,2
0:40.839,14702,(,0,0,0
0:40.878,14716,p,0,0,0
0:40.919,14731,),0,0,0
0:40.939,14738,(,0,0,1
0:40.983,14754,N,0,0,0
0:41.025,14769,),0,0,1
0:41.242,14847,(,0,0,2
0:41.286,14863,t,0,0,5
0:41.378,14896,t,0,0,5
0:41.453,14923,),0,0,2
0:41.706,15014,(,0,0,0
0:41.742,15027,p,0,0,0
0:41.789,15044,),0,0,0
0:41.806,15050,(,0,0,1
0:41.847,15065,N,0,0,0
0:41.892,15081,),0,0,1
0:42.097,15155,(,0,0,2
0:42.136,15169,t,0,0,5
0:42.219,15199,t,0,0,5
0:42.289,15224,),0,0,2
0:42.544,15316,(,0,0,0
0:42.581,15329,p,0,0,0
0:42.622,15344,),0,0,0
0:42.639,15350,(,0,0,1
0:42.683,15366,N,0,0,0
0:42.725,15381,),0,0,1
0:42.931,15455,(,0,0,2
0:42.969,15469,t,0,0,5
0:43.042,15495,t,0,0,5
0:43.128,15526,),0,0,2
0:43.356,15608,(,0,0,0
0:43.392,15621,p,0,0,0
0:43.436,15637,),0,0,0
0:43.450,15642,(,0,0,1
0:43.497,15659,N,0,0,0
0:43.539,15674,),0,0,1
0:43.742,15747,(,0,0,2
0:43.786,15763,t,0,0,5
0:43.878,15796,t,0,0,5
0:43.953,15823,),0,0,2
0:44.203,15913,(,0,0,0
0:44.233,15924,p,0,0,0
0:44.281,15941,),0,0,0
0:44.297,15947,(,0,0,1
0:44.339,15962,N,0,0,0
0:44.378,15976,),0,0,1
0:44.578,16048,(,0,0,2
0:44.622,16064,t,0,0,5
0:44.714,16097,t,0,0,5
0:44.778,16120,),0,0,2
0:45.028,16210,(,0,0,0
0:45.061,16222,p,0,0,0
0:45.106,16238,),0,0,0
0:45.119,16243,(,0,0,1
0:45.161,16258,N,0,0,0
0:45.203,16273,),0,0,1
0:45.414,16349,(,0,0,2
0:45.456,16364,t,0,0,5
0:45.539,16394,t,0,0,5
0:45.614,16421,),0,0,2
0:45.936,16537,(,0,0,1
0:45.975,16551,N,0,0,0
0:46.019,16567,),0,0,1
0:46.225,16641,(,0,0,2
0:46.264,16655,t,0,0,5
0:46.344,16684,t,0,0,5
0:46.431,16715,),0,0,2
0:46.750,16830,(,0,0,1
0:46.794,16846,N,0,0,0
0:46.833,16860,),0,0,1
0:47.028,16930,(,0,0,2
0:47.081,16949,t,0,0,5
0:47.164,16979,t,0,0,5
0:47.219,16999,),0,0,2
0:47.572,17126,(,0,0,1
0:47.611,17140,N,0,0,0
0:47.650,17154,),0,0,1
0:47.867,17232,(,0,0,2
0:47.914,17249,t,0,0,5
0:48.003,17281,t,0,0,5
0:48.083,17310,),0,0,2
0:48.408,17427,(,0,0,1
0:48.450,17442,N,0,0,0
0:48.492,17457,),0,0,1
0:48.706,17534,(,0,0,2
0:48.744,17548,t,0,0,5
0:48.819,17575,t,0,0,5
0:48.903,17605,),0,0,2
0:49.242,17727,(,0,0,1
0:49.283,17742,N,0,0,0
0:49.325,17757,),0,0,1
0:49.528,17830,(,0,0,2
0:49.569,17845,t,0,0,0
0:49.619,17863,),0,0,2
0:49.639,17870,(,0,0,0
0:49.686,17887,p,0,0,0
0:49.747,17909,),0,0,0
0:49.792,17925,(,0,0,1
0:49.822,17936,N,0,0,0
0:49.861,17950,),0,0,1
0:49.917,17970,(,0,0,2
0:50.081,18029,t,0,0,0
0:50.147,18053,),0,0,2
0:50.756,18272,(,0,0,1
0:50.797,18287,N,0,0,0
0:50.839,18302,),0,0,1
0:51.056,18380,(,0,0,2
0:51.103,18397,t,0,0,0
0:51.172,18422,),0,0,2
0:51.617,18582,(,0,0,1
0:51.658,18597,N,0,0,0
0:51.697,18611,),0,0,1
0:51.919,18691,(,0,0,2
0:51.964,18707,t,0,0,0
0:52.036,18733,),0,0,2
0:52.478,18892,(,0,0,1
0:52.519,18907,N,0,0,0
0:52.564,18923,),0,0,1
0:52.772,18998,(,0,0,2
0:52.814,19013,t,0,0,5
0:52.892,19041,t,0,0,5
0:52.967,19068,),0,0,2
0:53.250,19170,(,0,0,0
0:53.281,19181,p,0,0,0
0:53.317,19194,),0,0,0
0:53.336,19201,(,0,0,1
0:53.375,19215,N,0,0,0
0:53.417,19230,),0,0,1
0:53.636,19309,(,0,0,2
0:53.672,19322,t,0,0,5
0:53.742,19347,t,0,0,5
0:53.814,19373,),0,0,2
0:54.183,19506,(,0,0,1
0:54.228,19522,N,0,0,0
0:54.269,19537,),0,0,1
0:54.486,19615,(,0,0,2
0:54.528,19630,t,0,0,5
0:54.614,19661,t,0,0,5
0:54.689,19688,),0,0,2
0:55.067,19824,(,0,0,1
0:55.108,19839,N,0,0,0
0:55.147,19853,),0,0,1
0:55.358,19929,(,0,0,2
0:55.403,19945,t,0,0,5
0:55.483,19974,t,0,0,5
0:55.556,20000,),0,0,2
0:55.825,20097,(,0,0,0
0:55.864,20111,p,0,0,0
0:55.906,20126,),0,0,0
0:55.919,20131,(,0,0,1
0:55.961,20146,N,0,0,0
0:56.003,20161,),0,0,1
0:56.214,20237,(,0,0,2
0:56.256,20252,t,0,0,5
0:56.339,20282,t,0,0,5
0:56.411,20308,),0,0,2
0:56.647,20393,(,0,0,0
0:56.683,20406,p,0,0,0
0:56.725,20421,),0,0,0
0:56.744,20428,(,0,0,1
0:56.781,20441,N,0,0,0
0:56.825,20457,),0,0,1
0:57.050,20538,(,0,0,2
0:57.086,20551,t,0,0,5
0:57.167,20580,t,0,0,5
0:57.239,20606,),0,0,2
0:57.472,20690,(,0,0,0
0:57.508,20703,p,0,0,0
0:57.550,20718,),0,0,0
0:57.567,20724,(,0,0,1
0:57.608,20739,N,0,0,0
0:57.650,20754,),0,0,1
0:57.867,20832,(,0,0,2
0:57.914,20849,t,0,0,5
0:57.997,20879,t,0,0,5
0:58.067,20904,),0,0,2
0:58.317,20994,(,0,0,0
0:58.358,21009,p,0,0,0
0:58.400,21024,),0,0,0
0:58.419,21031,(,0,0,1
0:58.464,21047,N,0,0,0
0:58.506,21062,),0,0,1
0:58.728,21142,(,0,0,2
0:58.772,21158,t,0,0,0
0:58.842,21183,),0,0,2
0:59.161,21298,(,0,0,0
0:59.197,21311,p,0,0,0
0:59.242,21327,),0,0,0
0:59.256,21332,(,0,0,1
0:59.303,21349,N,0,0,0
0:59.344,21364,),0,0,1
0:59.550,21438,(,0,0,2
0:59.597,21455,t,0,0,5
0:59.672,21482,t,0,0,5
0:59.750,21510,),0,0,2
0:59.983,21594,(,0,0,0
1:00.017,21606,p,0,0,0
1:00.058,21621,),0,0,0
1:00.078,21628,(,0,0,1
1:00.119,21643,N,0,0,0
1:00.164,21659,),0,0,1
1:00.383,21738,(,0,0,2
1:00.417,21750,t,0,0,5
1:00.489,21776,t,0,0,5
1:00.569,21805,),0,0,2
1:00.814,21893,(,0,0,0
1:00.850,21906,p,0,0,0
1:00.897,21923,),0,0,0
1:00.914,21929,(,0,0,1
1:00.958,21945,N,0,0,0
1:01.000,21960,),0,0,1
1:01.219,22039,(,0,0,2
1:01.267,22056,t,0,0,5
1:01.353,22087,t,0,0,5
1:01.422,22112,),0,0,2
1:01.658,22197,(,0,0,0
1:01.700,22212,p,0,0,0
1:01.742,22227,),0,0,0
1:01.756,22232,(,0,0,1
1:01.800,22248,N,0,0,0
1:01.839,22262,),0,0,1
1:02.050,22338,(,0,0,2
1:02.094,22354,t,0,0,5
1:02.178,22384,t,0,0,5
1:02.236,22405,),0,0,2
1:02.483,22494,(,0,0,0
1:02.519,22507,p,0,0,0
1:02.558,22521,),0,0,0
1:02.578,22528,(,0,0,1
1:02.619,22543,N,0,0,0
1:02.661,22558,),0,0,1
1:02.881,22637,(,0,0,2
1:02.919,22651,t,0,0,5
1:02.994,22678,t,0,0,5
1:03.067,22704,),0,0,2
1:03.308,22791,(,0,0,0
1:03.344,22804,p,0,0,0
1:03.392,22821,),0,0,0
1:03.414,22829,(,0,0,1
1:03.450,22842,N,0,0,0
1:03.492,22857,),0,0,1
1:03.714,22937,(,0,0,2
1:03.756,22952,t,0,0,5
1:03.833,22980,t,0,0,5
1:03.900,23004,),0,0,2
1:04.153,23095,(,0,0,0
1:04.189,23108,p,0,0,0
1:04.236,23125,),0,0,0
1:04.253,23131,(,0,0,1
1:04.294,23146,N,0,0,0
1:04.339,23162,),0,0,1
1:04.556,23240,(,0,0,2
1:04.597,23255,t,0,0,5
1:04.667,23280,t,0,0,5
1:04.739,23306,),0,0,2
1:05.008,23403,(,0,0,0
1:05.044,23416,p,0,0,0
1:05.089,23432,),0,0,0
1:05.103,23437,(,0,0,1
1:05.150,23454,N,0,0,0
1:05.192,23469,),0,0,1
1:05.411,23548,(,0,0,2
1:05.453,23563,t,0,0,5
1:05.525,23589,t,0,0,5
1:05.597,23615,),0,0,2
1:05.856,23708,(,0,0,0
1:05.894,23722,p,0,0,0
1:05.939,23738,),0,0,0
1:05.956,23744,(,0,0,1
1:05.997,23759,N,0,0,0
1:06.039,23774,),0,0,1
1:06.250,23850,(,0,0,2
1:06.289,23864,t,0,0,5
1:06.361,23890,t,0,0,5
1:06.442,23919,),0,0,2
1:06.692,24009,(,0,0,0
1:06.728,24022,p,0,0,0
1:06.769,24037,),0,0,0
1:06.786,24043,(,0,0,1
1:06.831,24059,N,0,0,0
1:06.875,24075,),0,0,1
1:07.092,24153,(,0,0,2
1:07.131,24167,t,0,0,5
1:07.211,24196,t,0,0,5
1:07.292,24225,),0,0,2
1:07.553,24319,(,0,0,0
1:07.592,24333,p,0,0,0
1:07.639,24350,),0,0,0
1:07.656,24356,(,0,0,1
1:07.700,24372,N,0,0,0
1:07.742,24387,),0,0,1
1:07.964,24467,(,0,0,2
1:08.006,24482,t,0,0,5
1:08.086,24511,t,0,0,5
1:08.153,24535,),0,0,2
1:08.406,24626,(,0,0,0
1:08.442,24639,p,0,0,0
1:08.489,24656,),0,0,0
1:08.506,24662,(,0,0,1
1:08.547,24677,N,0,0,0
1:08.592,24693,),0,0,1
1:08.794,24766,(,0,0,2
1:08.839,24782,t,0,0,5
1:08.919,24811,t,0,0,5
1:08.975,24831,),0,0,2
1:09.242,24927,(,0,0,0
1:09.278,24940,p,0,0,0
1:09.325,24957,),0,0,0
1:09.344,24964,(,0,0,1
1:09.381,24977,N,0,0,0
1:09.422,24992,),0,0,1
1:09.628,25066,(,0,0,2
1:09.669,25081,t,0,0,0
1:09.736,25105,),0,0,2
1:10.092,25233,(,0,0,0
1:10.133,25248,p,0,0,0
1:10.172,25262,),0,0,0
1:10.189,25268,(,0,0,1
1:10.228,25282,N,0,0,0
1:10.269,25297,),0,0,1
1:10.486,25375,(,0,0,2
1:10.525,25389,t,0,0,5
1:10.603,25417,t,0,0,5
1:10.678,25444,),0,0,2
1:10.942,25539,(,0,0,0
1:10.975,25551,p,0,0,0
1:11.019,25567,),0,0,0
1:11.033,25572,(,0,0,1
1:11.075,25587,N,0,0,0
1:11.117,25602,),0,0,1
1:11.333,25680,(,0,0,2
1:11.375,25695,t,0,0,5
1:11.453,25723,t,0,0,5
1:11.542,25755,),0,0,2
1:11.789,25844,(,0,0,0
1:11.825,25857,p,0,0,0
1:11.869,25873,),0,0,0
1:11.886,25879,(,0,0,1
1:11.928,25894,N,0,0,0
1:11.969,25909,),0,0,1
1:12.178,25984,(,0,0,2
1:12.222,26000,t,0,0,0
1:12.286,26023,),0,0,2
1:12.639,26150,(,0,0,0
1:12.675,26163,p,0,0,0
1:12.717,26178,),0,0,0
1:12.731,26183,(,0,0,1
1:12.775,26199,N,0,0,0
1:12.817,26214,),0,0,1
1:13.025,26289,(,0,0,2
1:13.069,26305,t,0,0,5
1:13.158,26337,t,0,0,5
1:13.219,26359,),0,0,2
1:13.478,26452,(,0,0,0
1:13.517,26466,p,0,0,0
1:13.564,26483,),0,0,0
1:13.586,26491,(,0,0,1
1:13.625,26505,N,0,0,0
1:13.667,26520,),0,0,1
1:13.881,26597,(,0,0,2
1:13.919,26611,t,0,0,5
1:14.006,26642,t,0,0,5
1:14.072,26666,),0,0,2
1:14.339,26762,(,0,0,0
1:14.375,26775,p,0,0,0
1:14.419,26791,),0,0,0
1:14.439,26798,(,0,0,1
1:14.478,26812,N,0,0,0
1:14.522,26828,),0,0,1
1:14.736,26905,(,0,0,2
1:14.778,26920,t,0,0,5
1:14.858,26949,t,0,0,5
1:14.944,26980,),0,0,2
1:15.197,27071,(,0,0,0
1:15.233,27084,p,0,0,0
1:15.275,27099,),0,0,0
1:15.289,27104,(,0,0,1
1:15.331,27119,N,0,0,0
1:15.372,27134,),0,0,1
1:15.586,27211,(,0,0,2
1:15.628,27226,t,0,0,5
1:15.711,27256,t,0,0,5
1:15.789,27284,),0,0,2
1:16.039,27374,(,0,0,0
1:16.075,27387,p,0,0,0
1:16.117,27402,),0,0,0
1:16.133,27408,(,0,0,1
1:16.178,27424,N,0,0,0
1:16.217,27438,),0,0,1
1:16.431,27515,(,0,0,2
1:16.475,27531,t,0,0,0
1:16.544,27556,),0,0,2
1:16.881,27677,(,0,0,0
1:16.917,27690,p,0,0,0
1:16.958,27705,),0,0,0
1:16.975,27711,(,0,0,1
1:17.019,27727,N,0,0,0
1:17.064,27743,),0,0,1
1:17.289,27824,(,0,0,2
1:17.328,27838,t,0,0,5
1:17.414,27869,t,0,0,5
1:17.483,27894,),0,0,2
1:17.736,27985,(,0,0,0
1:17.775,27999,p,0,0,0
1:17.819,28015,),0,0,0
1:17.833,28020,(,0,0,1
1:17.883,28038,N,0,0,0
1:17.925,28053,),0,0,1
1:18.150,28134,(,0,0,2
1:18.189,28148,t,0,0,5
1:18.267,28176,t,0,0,5
1:18.344,28204,),0,0,2
1:18.589,28292,(,0,0,0
1:18.625,28305,p,0,0,0
1:18.669,28321,),0,0,0
1:18.689,28328,(,0,0,1
1:18.728,28342,N,0,0,0
1:18.769,28357,),0,0,1
1:18.986,28435,(,0,0,2
1:19.022,28448,t,0,0,5
1:19.094,28474,t,0,0,5
1:19.175,28503,),0,0,2
1:19.419,28591,(,0,0,0
1:19.456,28604,p,0,0,0
1:19.497,28619,),0,0,0
1:19.514,28625,(,0,0,1
1:19.556,28640,N,0,0,0
1:19.597,28655,),0,0,1
1:19.808,28731,(,0,0,2
1:19.853,28747,t,0,0,0
1:19.919,28771,),0,0,2
1:20.272,28898,(,0,0,0
1:20.311,28912,p,0,0,0
1:20.353,28927,),0,0,0
1:20.367,28932,(,0,0,1
1:20.414,28949,N,0,0,0
1:20.456,28964,),0,0,1
1:20.678,29044,(,0,0,2
1:20.722,29060,t,0,0,5
1:20.803,29089,t,0,0,5
1:20.875,29115,),0,0,2
1:21.122,29204,(,0,0,0
1:21.156,29216,p,0,0,0
1:21.200,29232,),0,0,0
1:21.219,29239,(,0,0,1
1:21.261,29254,N,0,0,0
1:21.303,29269,),0,0,1
1:21.522,29348,(,0,0,2
1:21.561,29362,t,0,0,5
1:21.639,29390,t,0,0,5
1:21.706,29414,),0,0,2
1:21.944,29500,(,0,0,0
1:21.981,29513,p,0,0,0
1:22.019,29527,),0,0,0
1:22.033,29532,(,0,0,1
1:22.078,29548,N,0,0,0
1:22.119,29563,),0,0,1
1:22.336,29641,(,0,0,2
1:22.378,29656,t,0,0,5
1:22.453,29683,t,0,0,5
1:22.533,29712,),0,0,2
1:22.767,29796,(,0,0,0
1:22.806,29810,p,0,0,0
1:22.850,29826,),0,0,0
1:22.864,29831,(,0,0,1
1:22.911,29848,N,0,0,0
1:22.953,29863,),0,0,1
1:23.158,29937,(,0,0,2
1:23.200,29952,t,0,0,0
1:23.264,29975,),0,0,2
1:23.589,30092,(,0,0,0
1:23.625,30105,p,0,0,0
1:23.669,30121,),0,0,0
1:23.689,30128,(,0,0,1
1:23.731,30143,N,0,0,0
1:23.772,30158,),0,0,1
1:23.983,30234,(,0,0,2
1:24.028,30250,t,0,0,0
1:24.092,30273,),0,0,2
1:24.425,30393,(,0,0,0
1:24.464,30407,p,0,0,0
1:24.511,30424,),0,0,0
1:24.528,30430,(,0,0,1
1:24.569,30445,N,0,0,0
1:24.611,30460,),0,0,1
1:24.822,30536,(,0,0,2
1:24.864,30551,t,0,0,5
1:24.947,30581,t,0,0,5
1:25.017,30606,),0,0,2
1:25.256,30692,(,0,0,0
1:25.289,30704,p,0,0,0
1:25.333,30720,),0,0,0
1:25.353,30727,(,0,0,1
1:25.394,30742,N,0,0,0
1:25.436,30757,),0,0,1
1:25.644,30832,(,0,0,2
1:25.683,30846,t,0,0,5
1:25.761,30874,t,0,0,5
1:25.831,30899,),0,0,2
1:26.058,30981,(,0,0,0
1:26.094,30994,p,0,0,0
1:26.133,31008,),0,0,0
1:26.156,31016,(,0,0,1
1:26.197,31031,N,0,0,0
1:26.239,31046,),0,0,1
1:26.458,31125,(,0,0,2
1:26.500,31140,t,0,0,5
1:26.589,31172,t,0,0,5
1:26.653,31195,),0,0,2
1:26.914,31289,(,0,0,0
1:26.950,31302,p,0,0,0
1:26.997,31319,),0,0,0
1:27.014,31325,(,0,0,1
1:27.056,31340,N,0,0,0
1:27.097,31355,),0,0,1
1:27.314,31433,(,0,0,2
1:27.358,31449,t,0,0,0
1:27.428,31474,),0,0,2
1:27.769,31597,(,0,0,0
1:27.808,31611,p,0,0,0
1:27.853,31627,),0,0,0
1:27.869,31633,(,0,0,1
1:27.914,31649,N,0,0,0
1:27.956,31664,),0,0,1
1:28.164,31739,(,0,0,2
1:28.211,31756,t,0,0,5
1:28.294,31786,t,0,0,5
1:28.361,31810,),0,0,2
1:28.592,31893,(,0,0,0
1:28.628,31906,p,0,0,0
1:28.669,31921,),0,0,0
1:28.689,31928,(,0,0,1
1:28.731,31943,N,0,0,0
1:28.775,31959,),0,0,1
1:28.983,32034,(,0,0,2
1:29.025,32049,t,0,0,5
1:29.103,32077,t,0,0,5
1:29.175,32103,),0,0,2
1:29.422,32192,(,0,0,0
1:29.461,32206,p,0,0,0
1:29.506,32222,),0,0,0
1:29.525,32229,(,0,0,1
1:29.569,32245,N,0,0,0
1:29.611,32260,),0,0,1
1:29.817,32334,(,0,0,2
1:29.853,32347,t,0,0,5
1:29.933,32376,t,0,0,5
1:30.014,32405,),0,0,2
1:30.250,32490,(,0,0,0
1:30.283,32502,p,0,0,0
1:30.331,32519,),0,0,0
1:30.353,32527,(,0,0,1
1:30.394,32542,N,0,0,0
1:30.436,32557,),0,0,1
1:30.636,32629,(,0,0,2
1:30.686,32647,t,0,0,5
1:30.775,32679,t,0,0,5
1:30.844,32704,),0,0,2
1:31.086,32791,(,0,0,0
1:31.122,32804,p,0,0,0
1:31.172,32822,),0,0,0
1:31.192,32829,(,0,0,1
1:31.231,32843,N,0,0,0
1:31.272,32858,),0,0,1
1:31.456,32924,(,0,0,2
1:31.514,32945,t,0,0,5
1:31.606,32978,t,0,0,5
1:31.683,33006,),0,0,2
1:31.914,33089,(,0,0,0
1:31.953,33103,p,0,0,0
1:32.000,33120,),0,0,0
1:32.011,33124,(,0,0,1
1:32.058,33141,N,0,0,0
1:32.103,33157,),0,0,1
1:32.300,33228,(,0,0,2
1:32.342,33243,t,0,0,5
1:32.433,33276,t,0,0,5
1:32.508,33303,),0,0,2
1:32.731,33383,(,0,0,0
1:32.769,33397,p,0,0,0
1:32.814,33413,),0,0,0
1:32.831,33419,(,0,0,1
1:32.878,33436,N,0,0,0
1:32.919,33451,),0,0,1
1:33.131,33527,(,0,0,2
1:33.175,33543,t,0,0,5
1:33.256,33572,t,0,0,5
1:33.347,33605,),0,0,2
1:33.578,33688,(,0,0,0
1:33.614,33701,p,0,0,0
1:33.661,33718,),0,0,0
1:33.672,33722,(,0,0,1
1:33.719,33739,N,0,0,0
1:33.761,33754,),0,0,1
1:33.967,33828,(,0,0,2
1:34.008,33843,t,0,0,5
1:34.097,33875,t,0,0,5
1:34.172,33902,),0,0,2
1:34.403,33985,(,0,0,0
1:34.442,33999,p,0,0,0
1:34.489,34016,),0,0,0
1:34.503,34021,(,0,0,1
1:34.547,34037,N,0,0,0
1:34.586,34051,),0,0,1
1:34.694,34090,(,0,0,2
1:34.828,34138,t,0,0,0
1:34.894,34162,),0,0,2
1:35.222,34280,(,0,0,0
1:35.256,34292,p,0,0,0
1:35.300,34308,),0,0,0
1:35.322,34316,(,0,0,1
1:35.358,34329,N,0,0,0
1:35.397,34343,),0,0,1
1:35.461,34366,(,0,0,2
1:35.639,34430,t,0,0,5
1:35.733,34464,t,0,0,5
1:35.789,34484,),0,0,2
1:36.047,34577,(,0,0,0
1:36.083,34590,p,0,0,0
1:36.131,34607,),0,0,0
1:36.144,34612,(,0,0,1
1:36.186,34627,N,0,0,0
1:36.225,34641,),0,0,1
1:36.425,34713,(,0,0,2
1:36.464,34727,t,0,0,5
1:36.564,34763,t,0,0,5
1:36.644,34792,),0,0,2
1:36.881,34877,(,0,0,0
1:36.917,34890,p,0,0,0
1:36.961,34906,),0,0,0
1:36.975,34911,(,0,0,1
1:37.017,34926,N,0,0,0
1:37.058,34941,),0,0,1
1:37.269,35017,(,0,0,2
1:37.317,35034,t,0,0,5
1:37.411,35068,t,0,0,5
1:37.492,35097,),0,0,2
1:37.733,35184,(,0,0,0
1:37.775,35199,p,0,0,0
1:37.819,35215,),0,0,0
1:37.833,35220,(,0,0,1
1:37.875,35235,N,0,0,0
1:37.917,35250,),0,0,1
1:38.103,35317,(,0,0,2
1:38.158,35337,t,0,0,5
1:38.250,35370,t,0,0,5
1:38.319,35395,),0,0,2
1:38.589,35492,(,0,0,0
1:38.622,35504,p,0,0,0
1:38.669,35521,),0,0,0
1:38.683,35526,(,0,0,1
1:38.728,35542,N,0,0,0
1:38.767,35556,),0,0,1
1:38.822,35576,(,0,0,2
1:39.008,35643,t,0,0,5
1:39.097,35675,t,0,0,5
1:39.183,35706,),0,0,2
1:39.431,35795,(,0,0,0
1:39.467,35808,p,0,0,0
1:39.514,35825,),0,0,0
1:39.533,35832,(,0,0,1
1:39.575,35847,N,0,0,0
1:39.617,35862,),0,0,1
1:39.828,35938,(,0,0,2
1:39.875,35955,t,0,0,5
1:39.972,35990,t,0,0,5
1:40.050,36018,),0,0,2
1:40.306,36110,(,0,0,0
1:40.342,36123,p,0,0,0
1:40.383,36138,),0,0,0
1:40.400,36144,(,0,0,1
1:40.442,36159,N,0,0,0
1:40.483,36174,),0,0,1
1:40.694,36250,(,0,0,2
1:40.733,36264,t,0,0,5
1:40.822,36296,t,0,0,5
1:40.892,36321,),0,0,2
1:41.158,36417,(,0,0,0
1:41.192,36429,p,0,0,0
1:41.239,36446,),0,0,0
1:41.258,36453,(,0,0,1
1:41.297,36467,N,0,0,0
1:41.336,36481,),0,0,1
1:41.531,36551,(,0,0,2
1:41.578,36568,t,0,0,5
1:41.669,36601,t,0,0,5
1:41.744,36628,),0,0,2
1:42.003,36721,(,0,0,0
1:42.044,36736,p,0,0,0
1:42.081,36749,),0,0,0
1:42.100,36756,(,0,0,1
1:42.139,36770,N,0,0,0
1:42.181,36785,),0,0,1
1:42.392,36861,(,0,0,2
1:42.444,36880,t,0,0,5
1:42.531,36911,t,0,0,5
1:42.606,36938,),0,0,2
1:42.856,37028,(,0,0,0
1:42.889,37040,p,0,0,0
1:42.931,37055,),0,0,0
1:42.942,37059,(,0,0,1
1:42.989,37076,N,0,0,0
1:43.028,37090,),0,0,1
1:43.250,37170,(,0,0,2
1:43.292,37185,t,0,0,5
1:43.372,37214,t,0,0,5
1:43.450,37242,),0,0,2
1:43.708,37335,(,0,0,0
1:43.742,37347,p,0,0,0
1:43.792,37365,),0,0,0
1:43.806,37370,(,0,0,1
1:43.853,37387,N,0,0,0
1:43.897,37403,),0,0,1
1:44.119,37483,(,0,0,2
1:44.161,37498,t,0,0,5
1:44.239,37526,t,0,0,5
1:44.319,37555,),0,0,2
1:44.569,37645,(,0,0,0
1:44.606,37658,p,0,0,0
1:44.647,37673,),0,0,0
1:44.667,37680,(,0,0,1
1:44.711,37696,N,0,0,0
1:44.750,37710,),0,0,1
1:44.961,37786,(,0,0,2
1:45.003,37801,t,0,0,5
1:45.092,37833,t,0,0,5
1:45.169,37861,),0,0,2
1:45.419,37951,(,0,0,0
1:45.456,37964,p,0,0,0
1:45.500,37980,),0,0,0
1:45.517,37986,(,0,0,1
1:45.558,38001,N,0,0,0
1:45.597,38015,),0,0,1
1:45.811,38092,(,0,0,2
1:45.856,38108,t,0,0,5
1:45.939,38138,t,0,0,5
1:45.994,38158,),0,0,2
1:46.281,38261,(,0,0,0
1:46.319,38275,p,0,0,0
1:46.358,38289,),0,0,0
1:46.378,38296,(,0,0,1
1:46.422,38312,N,0,0,0
1:46.464,38327,),0,0,1
1:46.694,38410,(,0,0,2
1:46.733,38424,t,0,0,5
1:46.814,38453,t,0,0,5
1:46.889,38480,),0,0,2
1:47.142,38571,(,0,0,0
1:47.181,38585,p,0,0,0
1:47.222,38600,),0,0,0
1:47.239,38606,(,0,0,1
1:47.281,38621,N,0,0,0
1:47.322,38636,),0,0,1
1:47.542,38715,(,0,0,2
1:47.581,38729,t,0,0,5
1:47.664,38759,t,0,0,5
1:47.736,38785,),0,0,2
1:47.992,38877,(,0,0,0
1:48.022,38888,p,0,0,0
1:48.064,38903,),0,0,0
1:48.075,38907,(,0,0,1
1:48.122,38924,N,0,0,0
1:48.164,38939,),0,0,1
1:48.383,39018,(,0,0,2
1:48.422,39032,t,0,0,5
1:48.503,39061,t,0,0,5
1:48.572,39086,),0,0,2
1:48.833,39180,(,0,0,0
1:48.869,39193,p,0,0,0
1:48.922,39212,),0,0,0
1:48.939,39218,(,0,0,1
1:48.981,39233,N,0,0,0
1:49.019,39247,),0,0,1
1:49.233,39324,(,0,0,2
1:49.281,39341,t,0,0,5
1:49.364,39371,t,0,0,5
1:49.425,39393,),0,0,2
1:49.686,39487,(,0,0,0
1:49.725,39501,p,0,0,0
1:49.767,39516,),0,0,0
1:49.783,39522,(,0,0,1
1:49.828,39538,N,0,0,0
1:49.869,39553,),0,0,1
1:50.086,39631,(,0,0,2
1:50.128,39646,t,0,0,0
1:50.189,39668,),0,0,2
1:50.542,39795,(,0,0,0
1:50.578,39808,p,0,0,0
1:50.625,39825,),0,0,0
1:50.639,39830,(,0,0,1
1:50.686,39847,N,0,0,0
1:50.728,39862,),0,0,1
1:50.950,39942,(,0,0,2
1:50.989,39956,t,0,0,5
1:51.069,39985,t,0,0,5
1:51.142,40011,),0,0,2
1:51.392,40101,(,0,0,0
1:51.425,40113,p,0,0,0
1:51.472,40130,),0,0,0
1:51.486,40135,(,0,0,1
1:51.533,40152,N,0,0,0
1:51.575,40167,),0,0,1
1:51.794,40246,(,0,0,2
1:51.833,40260,t,0,0,5
1:51.908,40287,t,0,0,5
1:51.983,40314,),0,0,2
1:52.231,40403,(,0,0,0
1:52.269,40417,p,0,0,0
1:52.314,40433,),0,0,0
1:52.333,40440,(,0,0,1
1:52.375,40455,N,0,0,0
1:52.417,40470,),0,0,1
1:52.631,40547,(,0,0,2
1:52.672,40562,t,0,0,0
1:52.736,40585,),0,0,2
1:53.094,40714,(,0,0,0
1:53.131,40727,p,0,0,0
1:53.178,40744,),0,0,0
1:53.200,40752,(,0,0,1
1:53.239,40766,N,0,0,0
1:53.281,40781,),0,0,1
1:53.500,40860,(,0,0,2
1:53.542,40875,t,0,0,0
1:53.608,40899,),0,0,2
1:53.933,41016,(,0,0,0
1:53.972,41030,p,0,0,0
1:54.017,41046,),0,0,0
1:54.039,41054,(,0,0,1
1:54.075,41067,N,0,0,0
1:54.119,41083,),0,0,1
1:54.331,41159,(,0,0,2
1:54.375,41175,t,0,0,5
1:54.461,41206,t,0,0,5
1:54.525,41229,),0,0,2
1:54.758,41313,(,0,0,0
1:54.794,41326,p,0,0,0
1:54.842,41343,),0,0,0
1:54.858,41349,(,0,0,1
1:54.900,41364,N,0,0,0
1:54.944,41380,),0,0,1
1:55.161,41458,(,0,0,2
1:55.200,41472,t,0,0,5
1:55.275,41499,t,0,0,5
1:55.358,41529,),0,0,2
1:55.614,41621,(,0,0,0
1:55.653,41635,p,0,0,0
1:55.697,41651,),0,0,0
1:55.711,41656,(,0,0,1
1:55.758,41673,N,0,0,0
1:55.800,41688,),0,0,1
1:56.006,41762,(,0,0,2
1:56.053,41779,t,0,0,5
1:56.128,41806,t,0,0,5
1:56.206,41834,),0,0,2
1:56.461,41926,(,0,0,0
1:56.497,41939,p,0,0,0
1:56.539,41954,),0,0,0
1:56.561,41962,(,0,0,1
1:56.600,41976,N,0,0,0
1:56.642,41991,),0,0,1
1:56.847,42065,(,0,0,2
1:56.894,42082,t,0,0,0
1:56.958,42105,),0,0,2
1:57.306,42230,(,0,0,0
1:57.342,42243,p,0,0,0
1:57.383,42258,),0,0,0
1:57.403,42265,(,0,0,1
1:57.444,42280,N,0,0,0
1:57.486,42295,),0,0,1
1:57.694,42370,(,0,0,2
1:57.736,42385,t,0,0,5
1:57.808,42411,t,0,0,5
1:57.867,42432,),0,0,2
1:58.128,42526,(,0,0,0
1:58.161,42538,p,0,0,0
1:58.211,42556,),0,0,0
1:58.225,42561,(,0,0,1
1:58.272,42578,N,0,0,0
1:58.314,42593,),0,0,1
1:58.522,42668,(,0,0,2
1:58.561,42682,t,0,0,5
1:58.633,42708,t,0,0,5
1:58.719,42739,),0,0,2
1:58.950,42822,(,0,0,0
1:58.989,42836,p,0,0,0
1:59.039,42854,),0,0,0
1:59.050,42858,(,0,0,1
1:59.097,42875,N,0,0,0
1:59.139,42890,),0,0,1
1:59.342,42963,(,0,0,2
1:59.386,42979,t,0,0,5
1:59.478,43012,t,0,0,5
1:59.544,43036,),0,0,2
1:59.806,43130,(,0,0,0
1:59.847,43145,p,0,0,0
1:59.889,43160,),0,0,0
1:59.906,43166,(,0,0,1
1:59.950,43182,N,0,0,0
1:59.992,43197,),0,0,1
2:00.203,43273,(,0,0,2
2:00.247,43289,t,0,0,0
2:00.314,43313,),0,0,2
2:00.642,43431,(,0,0,0
2:00.686,43447,p,0,0,0
2:00.728,43462,),0,0,0
2:00.744,43468,(,0,0,1
2:00.789,43484,N,0,0,0
2:00.828,43498,),0,0,1
2:01.042,43575,(,0,0,2
2:01.081,43589,t,0,0,0
2:01.142,43611,),0,0,2
2:01.475,43731,(,0,0,0
2:01.514,43745,p,0,0,0
2:01.556,43760,),0,0,0
2:01.578,43768,(,0,0,1
2:01.617,43782,N,0,0,0
2:01.658,43797,),0,0,1
2:01.869,43873,(,0,0,2
2:01.908,43887,t,0,0,5
2:01.983,43914,t,0,0,5
2:02.053,43939,),0,0,2
2:02.317,44034,(,0,0,0
2:02.356,44048,p,0,0,0
2:02.397,44063,),0,0,0
2:02.411,44068,(,0,0,1
2:02.453,44083,N,0,0,0
2:02.494,44098,),0,0,1
2:02.708,44175,(,0,0,2
2:02.750,44190,t,0,0,5
2:02.831,44219,t,0,0,5
2:02.900,44244,),0,0,2
2:03.169,44341,(,0,0,0
2:03.203,44353,p,0,0,0
2:03.247,44369,),0,0,0
2:03.267,44376,(,0,0,1
2:03.306,44390,N,0,0,0
2:03.344,44404,),0,0,1
2:03.556,44480,(,0,0,2
2:03.603,44497,t,0,0,0
2:03.675,44523,),0,0,2
2:04.017,44646,(,0,0,0
2:04.056,44660,p,0,0,0
2:04.100,44676,),0,0,0
2:04.114,44681,(,0,0,1
2:04.158,44697,N,0,0,0
2:04.197,44711,),0,0,1
2:04.406,44786,(,0,0,2
2:04.450,44802,t,0,0,5
2:04.533,44832,t,0,0,5
2:04.600,44856,),0,0,2
2:04.847,44945,(,0,0,0
2:04.886,44959,p,0,0,0
2:04.931,44975,),0,0,0
2:04.944,44980,(,0,0,1
2:04.989,44996,N,0,0,0
2:05.031,45011,),0,0,1
2:05.244,45088,(,0,0,2
2:05.286,45103,t,0,0,5
2:05.369,45133,t,0,0,5
2:05.433,45156,),0,0,2
2:05.681,45245,(,0,0,0
2:05.717,45258,p,0,0,0
2:05.764,45275,),0,0,0
2:05.778,45280,(,0,0,1
2:05.825,45297,N,0,0,0
2:05.867,45312,),0,0,1
2:06.086,45391,(,0,0,2
2:06.125,45405,t,0,0,0
2:06.186,45427,),0,0,2
2:06.542,45555,(,0,0,0
2:06.581,45569,p,0,0,0
2:06.622,45584,),0,0,0
2:06.644,45592,(,0,0,1
2:06.686,45607,N,0,0,0
2:06.728,45622,),0,0,1
2:06.939,45698,(,0,0,2
2:06.978,45712,t,0,0,5
2:07.056,45740,t,0,0,5
2:07.128,45766,),0,0,2
2:07.392,45861,(,0,0,0
2:07.431,45875,p,0,0,0
2:07.472,45890,),0,0,0
2:07.486,45895,(,0,0,1
2:07.533,45912,N,0,0,0
2:07.572,45926,),0,0,1
2:07.778,46000,(,0,0,2
2:07.822,46016,t,0,0,5
2:07.908,46047,t,0,0,5
2:07.967,46068,),0,0,2
2:08.225,46161,(,0,0,0
2:08.261,46174,p,0,0,0
2:08.306,46190,),0,0,0
2:08.317,46194,(,0,0,1
2:08.361,46210,N,0,0,0
2:08.400,46224,),0,0,1
2:08.611,46300,(,0,0,2
2:08.658,46317,t,0,0,5
2:08.742,46347,t,0,0,5
2:08.806,46370,),0,0,2
2:09.053,46459,(,0,0,0
2:09.092,46473,p,0,0,0
2:09.131,46487,),0,0,0
2:09.144,46492,(,0,0,1
2:09.211,46516,N,0,0,0
2:09.228,46522,),0,0,1
2:09.442,46599,(,0,0,2
2:09.486,46615,t,0,0,5
2:09.556,46640,t,0,0,5
2:09.639,46670,),0,0,2
2:09.881,46757,(,0,0,0
2:09.917,46770,p,0,0,0
2:09.958,46785,),0,0,0
2:09.975,46791,(,0,0,1
2:10.017,46806,N,0,0,0
2:10.058,46821,),0,0,1
2:10.278,46900,(,0,0,2
2:10.319,46915,t,0,0,5
2:10.411,46948,t,0,0,5
2:10.469,46969,),0,0,2
2:10.719,47059,(,0,0,0
2:10.758,47073,p,0,0,0
2:10.800,47088,),0,0,0
2:10.814,47093,(,0,0,1
2:10.856,47108,N,0,0,0
2:10.897,47123,),0,0,1
2:11.106,47198,(,0,0,2
2:11.147,47213,t,0,0,0
2:11.208,47235,),0,0,2
2:11.544,47356,(,0,0,0
2:11.581,47369,p,0,0,0
2:11.619,47383,),0,0,0
2:11.633,47388,(,0,0,1
2:11.675,47403,N,0,0,0
2:11.717,47418,),0,0,1
2:11.928,47494,(,0,0,2
2:11.969,47509,t,0,0,5
2:12.050,47538,t,0,0,5
2:12.119,47563,),0,0,2
2:12.358,47649,(,0,0,0
2:12.394,47662,p,0,0,0
2:12.442,47679,),0,0,0
2:12.456,47684,(,0,0,1
2:12.503,47701,N,0,0,0
2:12.544,47716,),0,0,1
2:12.764,47795,(,0,0,2
2:12.808,47811,t,0,0,5
2:12.897,47843,t,0,0,5
2:12.981,47873,),0,0,2
2:13.219,47959,(,0,0,0
2:13.256,47972,p,0,0,0
2:13.297,47987,),0,0,0
2:13.314,47993,(,0,0,1
2:13.381,48017,N,0,0,0
2:13.397,48023,),0,0,1
2:13.606,48098,(,0,0,2
2:13.650,48114,t,0,0,5
2:13.736,48145,t,0,0,5
2:13.803,48169,),0,0,2
2:14.047,48257,(,0,0,0
2:14.089,48272,p,0,0,0
2:14.133,48288,),0,0,0
2:14.150,48294,(,0,0,1
2:14.192,48309,N,0,0,0
2:14.233,48324,),0,0,1
2:14.428,48394,(,0,0,2
2:14.475,48411,t,0,0,0
2:14.544,48436,),0,0,2
2:14.883,48558,(,0,0,0
2:14.925,48573,p,0,0,0
2:14.969,48589,),0,0,0
2:14.986,48595,(,0,0,1
2:15.028,48610,N,0,0,0
2:15.067,48624,),0,0,1
2:15.283,48702,(,0,0,2
2:15.322,48716,t,0,0,5
2:15.406,48746,t,0,0,5
2:15.483,48774,),0,0,2
2:15.725,48861,(,0,0,0
2:15.761,48874,p,0,0,0
2:15.800,48888,),0,0,0
2:15.817,48894,(,0,0,1
2:15.881,48917,N,0,0,0
2:15.897,48923,),0,0,1
2:16.119,49003,(,0,0,2
2:16.161,49018,t,0,0,5
2:16.242,49047,t,0,0,5
2:16.325,49077,),0,0,2
2:16.569,49165,(,0,0,0
2:16.606,49178,p,0,0,0
2:16.644,49192,),0,0,0
2:16.658,49197,(,0,0,1
2:16.728,49222,N,0,0,0
2:16.744,49228,),0,0,1
2:16.978,49312,(,0,0,2
2:17.017,49326,t,0,0,5
2:17.092,49353,t,0,0,5
2:17.172,49382,),0,0,2
2:17.425,49473,(,0,0,0
2:17.458,49485,p,0,0,0
2:17.500,49500,),0,0,0
2:17.519,49507,(,0,0,1
2:17.583,49530,N,0,0,0
2:17.600,49536,),0,0,1
2:17.814,49613,(,0,0,2
2:17.858,49629,t,0,0,0
2:17.925,49653,),0,0,2
2:18.256,49772,(,0,0,0
2:18.294,49786,p,0,0,0
2:18.339,49802,),0,0,0
2:18.353,49807,(,0,0,1
2:18.397,49823,N,0,0,0
2:18.436,49837,),0,0,1
2:18.644,49912,(,0,0,2
2:18.692,49929,t,0,0,0
2:18.756,49952,),0,0,2
2:19.089,50072,(,0,0,0
2:19.133,50088,p,0,0,0
2:19.181,50105,),0,0,0
2:19.197,50111,(,0,0,1
2:19.244,50128,N,0,0,0
2:19.286,50143,),0,0,1
2:19.508,50223,(,0,0,2
2:19.547,50237,t,0,0,5
2:19.628,50266,t,0,0,5
2:19.708,50295,),0,0,2
2:19.953,50383,(,0,0,0
2:19.992,50397,p,0,0,0
2:20.033,50412,),0,0,0
2:20.050,50418,(,0,0,1
2:20.117,50442,N,0,0,0
2:20.133,50448,),0,0,1
2:20.347,50525,(,0,0,2
2:20.389,50540,t,0,0,0
2:20.450,50562,),0,0,2
2:20.786,50683,(,0,0,0
2:20.822,50696,p,0,0,0
2:20.864,50711,),0,0,0
2:20.881,50717,(,0,0,1
2:20.944,50740,N,0,0,0
2:20.961,50746,),0,0,1
2:21.167,50820,(,0,0,2
2:21.211,50836,t,0,0,5
2:21.289,50864,t,0,0,5
2:21.364,50891,),0,0,2
2:21.611,50980,(,0,0,0
2:21.644,50992,p,0,0,0
2:21.689,51008,),0,0,0
2:21.708,51015,(,0,0,1
2:21.772,51038,N,0,0,0
2:21.786,51043,),0,0,1
2:22.003,51121,(,0,0,2
2:22.044,51136,t,0,0,5
2:22.131,51167,t,0,0,5
2:22.183,51186,),0,0,2
2:22.442,51279,(,0,0,0
2:22.478,51292,p,0,0,0
2:22.522,51308,),0,0,0
2:22.539,51314,(,0,0,1
2:22.608,51339,N,0,0,0
2:22.625,51345,),0,0,1
2:22.850,51426,(,0,0,2
2:22.894,51442,t,0,0,5
2:22.964,51467,t,0,0,5
2:23.039,51494,),0,0,2
2:23.286,51583,(,0,0,0
2:23.322,51596,p,0,0,0
2:23.361,51610,),0,0,0
2:23.383,51618,(,0,0,1
2:23.450,51642,N,0,0,0
2:23.467,51648,),0,0,1
2:23.692,51729,(,0,0,2
2:23.731,51743,t,0,0,5
2:23.808,51771,t,0,0,5
2:23.881,51797,),0,0,2
2:24.125,51885,(,0,0,0
2:24.164,51899,p,0,0,0
2:24.203,51913,),0,0,0
2:24.222,51920,(,0,0,1
2:24.292,51945,N,0,0,0
2:24.308,51951,),0,0,1
2:24.519,52027,(,0,0,2
2:24.564,52043,t,0,0,5
2:24.650,52074,t,0,0,5
2:24.706,52094,),0,0,2
2:24.964,52187,(,0,0,0
2:25.000,52200,p,0,0,0
2:25.044,52216,),0,0,0
2:25.058,52221,(,0,0,1
2:25.125,52245,N,0,0,0
2:25.142,52251,),0,0,1
2:25.356,52328,(,0,0,2
2:25.403,52345,t,0,0,0
2:25.464,52367,),0,0,2
2:25.803,52489,(,0,0,0
2:25.842,52503,p,0,0,0
2:25.889,52520,),0,0,0
2:25.900,52524,(,0,0,1
2:25.975,52551,N,0,0,0
2:25.989,52556,),0,0,1
2:26.211,52636,(,0,0,2
2:26.253,52651,t,0,0,5
2:26.336,52681,t,0,0,5
2:26.400,52704,),0,0,2
2:26.658,52797,(,0,0,0
2:26.697,52811,p,0,0,0
2:26.742,52827,),0,0,0
2:26.758,52833,(,0,0,1
2:26.828,52858,N,0,0,0
2:26.842,52863,),0,0,1
2:27.064,52943,(,0,0,2
2:27.106,52958,t,0,0,5
2:27.189,52988,t,0,0,5
2:27.261,53014,),0,0,2
2:27.489,53096,(,0,0,0
2:27.531,53111,p,0,0,0
2:27.572,53126,),0,0,0
2:27.589,53132,(,0,0,1
2:27.656,53156,N,0,0,0
2:27.672,53162,),0,0,1
2:27.892,53241,(,0,0,2
2:27.933,53256,t,0,0,5
2:28.017,53286,t,0,0,5
2:28.089,53312,),0,0,2
2:28.333,53400,(,0,0,0
2:28.375,53415,p,0,0,0
2:28.419,53431,),0,0,0
2:28.431,53435,(,0,0,1
2:28.503,53461,N,0,0,0
2:28.519,53467,),0,0,1
2:28.728,53542,(,0,0,2
2:28.772,53558,t,0,0,0
2:28.839,53582,),0,0,2
2:29.186,53707,(,0,0,0
2:29.225,53721,p,0,0,0
2:29.272,53738,),0,0,0
2:29.294,53746,(,0,0,1
2:29.361,53770,N,0,0,0
2:29.375,53775,),0,0,1
2:29.589,53852,(,0,0,2
2:29.633,53868,t,0,0,5
2:29.719,53899,t,0,0,5
2:29.781,53921,),0,0,2
2:30.047,54017,(,0,0,0
2:30.081,54029,p,0,0,0
2:30.128,54046,),0,0,0
2:30.150,54054,(,0,0,1
2:30.217,54078,N,0,0,0
2:30.231,54083,),0,0,1
2:30.442,54159,(,0,0,2
2:30.481,54173,t,0,0,5
2:30.558,54201,t,0,0,5
2:30.636,54229,),0,0,2
2:30.878,54316,(,0,0,0
2:30.911,54328,p,0,0,0
2:30.958,54345,),0,0,0
2:30.975,54351,(,0,0,1
2:31.044,54376,N,0,0,0
2:31.061,54382,),0,0,1
2:31.264,54455,(,0,0,2
2:31.306,54470,t,0,0,5
2:31.381,54497,t,0,0,5
2:31.444,54520,),0,0,2
2:31.694,54610,(,0,0,0
2:31.733,54624,p,0,0,0
2:31.778,54640,),0,0,0
2:31.794,54646,(,0,0,1
2:31.867,54672,N,0,0,0
2:31.881,54677,),0,0,1
2:32.097,54755,(,0,0,2
2:32.139,54770,t,0,0,5
2:32.219,54799,t,0,0,5
2:32.297,54827,),0,0,2
2:32.558,54921,(,0,0,0
2:32.600,54936,p,0,0,0
2:32.639,54950,),0,0,0
2:32.658,54957,(,0,0,1
2:32.725,54981,N,0,0,0
2:32.739,54986,),0,0,1
2:32.950,55062,(,0,0,2
2:32.994,55078,t,0,0,0
2:33.061,55102,),0,0,2
2:33.403,55225,(,0,0,0
2:33.442,55239,p,0,0,0
2:33.489,55256,),0,0,0
2:33.503,55261,(,0,0,1
2:33.572,55286,N,0,0,0
2:33.589,55292,),0,0,1
2:33.797,55367,(,0,0,2
2:33.839,55382,t,0,0,5
2:33.919,55411,t,0,0,5
2:33.978,55432,),0,0,2
2:34.228,55522,(,0,0,0
2:34.264,55535,p,0,0,0
2:34.308,55551,),0,0,0
2:34.325,55557,(,0,0,1
2:34.394,55582,N,0,0,0
2:34.408,55587,),0,0,1
2:34.622,55664,(,0,0,2
2:34.664,55679,t,0,0,5
2:34.736,55705,t,0,0,5
2:34.803,55729,),0,0,2
2:35.061,55822,(,0,0,0
2:35.103,55837,p,0,0,0
2:35.142,55851,),0,0,0
2:35.158,55857,(,0,0,1
2:35.222,55880,N,0,0,0
2:35.239,55886,),0,0,1
2:35.444,55960,(,0,0,2
2:35.486,55975,t,0,0,5
2:35.558,56001,t,0,0,5
2:35.631,56027,),0,0,2
2:35.900,56124,(,0,0,0
2:35.936,56137,p,0,0,0
2:35.981,56153,),0,0,0
2:35.997,56159,(,0,0,1
2:36.067,56184,N,0,0,0
2:36.081,56189,),0,0,1
2:36.292,56265,(,0,0,2
2:36.339,56282,t,0,0,5
2:36.422,56312,t,0,0,5
2:36.492,56337,),0,0,2
2:36.758,56433,(,0,0,0
2:36.792,56445,p,0,0,0
2:36.831,56459,),0,0,0
2:36.853,56467,(,0,0,1
2:36.917,56490,N,0,0,0
2:36.933,56496,),0,0,1
2:37.136,56569,(,0,0,2
2:37.183,56586,t,0,0,0
2:37.253,56611,),0,0,2
2:37.586,56731,(,0,0,0
2:37.622,56744,p,0,0,0
2:37.661,56758,),0,0,0
2:37.681,56765,(,0,0,1
2:37.747,56789,N,0,0,0
2:37.761,56794,),0,0,1
2:37.964,56867,(,0,0,2
2:38.008,56883,t,0,0,0
2:38.072,56906,),0,0,2
2:38.406,57026,(,0,0,0
2:38.442,57039,p,0,0,0
2:38.489,57056,),0,0,0
2:38.500,57060,(,0,0,1
2:38.578,57088,N,0,0,0
2:38.592,57093,),0,0,1
2:38.817,57174,(,0,0,2
2:38.858,57189,t,0,0,5
2:38.942,57219,t,0,0,5
2:39.022,57248,),0,0,2
2:39.275,57339,(,0,0,0
2:39.314,57353,p,0,0,0
2:39.356,57368,),0,0,0
2:39.369,57373,(,0,0,1
2:39.439,57398,N,0,0,0
2:39.453,57403,),0,0,1
2:39.664,57479,(,0,0,2
2:39.706,57494,t,0,0,5
2:39.789,57524,t,0,0,5
2:39.864,57551,),0,0,2
2:40.119,57643,(,0,0,0
2:40.153,57655,p,0,0,0
2:40.194,57670,),0,0,0
2:40.214,57677,(,0,0,1
2:40.278,57700,N,0,0,0
2:40.292,57705,),0,0,1
2:40.486,57775,(,0,0,2
2:40.536,57793,t,0,0,5
2:40.625,57825,t,0,0,5
2:40.686,57847,),0,0,2
2:40.953,57943,(,0,0,0
2:40.986,57955,p,0,0,0
2:41.025,57969,),0,0,0
2:41.039,57974,(,0,0,1
2:41.111,58000,N,0,0,0
2:41.125,58005,),0,0,1
2:41.347,58085,(,0,0,2
2:41.397,58103,t,0,0,0
2:41.456,58124,),0,0,2
2:41.794,58246,(,0,0,0
2:41.828,58258,p,0,0,0
2:41.864,58271,),0,0,0
2:41.881,58277,(,0,0,1
2:41.953,58303,N,0,0,0
2:41.969,58309,),0,0,1
2:42.189,58388,(,0,0,2
2:42.231,58403,t,0,0,5
2:42.319,58435,t,0,0,5
2:42.375,58455,),0,0,2
2:42.631,58547,(,0,0,0
2:42.661,58558,p,0,0,0
2:42.706,58574,),0,0,0
2:42.725,58581,(,0,0,1
2:42.794,58606,N,0,0,0
2:42.811,58612,),0,0,1
2:43.033,58692,(,0,0,2
2:43.075,58707,t,0,0,5
2:43.164,58739,t,0,0,5
2:43.247,58769,),0,0,2
2:43.464,58847,(,0,0,0
2:43.500,58860,p,0,0,0
2:43.542,58875,),0,0,0
2:43.561,58882,(,0,0,1
2:43.631,58907,N,0,0,0
2:43.647,58913,),0,0,1
2:43.850,58986,(,0,0,2
2:43.903,59005,t,0,0,5
2:43.989,59036,t,0,0,5
2:44.056,59060,),0,0,2
2:44.300,59148,(,0,0,0
2:44.336,59161,p,0,0,0
2:44.378,59176,),0,0,0
2:44.417,59190,(,0,0,1
2:44.464,59207,N,0,0,0
2:44.556,59240,),0,0,1
2:44.664,59279,(,0,0,2
2:44.722,59300,t,0,0,0
2:44.792,59325,),0,0,2
2:45.122,59444,(,0,0,0
2:45.161,59458,p,0,0,0
2:45.206,59474,),0,0,0
2:45.228,59482,(,0,0,1
2:45.294,59506,N,0,0,0
2:45.308,59511,),0,0,1
2:45.522,59588,(,0,0,2
2:45.567,59604,t,0,0,5
2:45.664,59639,t,0,0,5
2:45.717,59658,),0,0,2
2:45.964,59747,(,0,0,0
2:46.003,59761,p,0,0,0
2:46.044,59776,),0,0,0
2:46.061,59782,(,0,0,1
2:46.128,59806,N,0,0,0
2:46.144,59812,),0,0,1
2:46.358,59889,(,0,0,2
2:46.400,59904,t,0,0,5
2:46.486,59935,t,0,0,5
2:46.564,59963,),0,0,2
2:46.797,60047,(,0,0,0
2:46.833,60060,p,0,0,0
2:46.872,60074,),0,0,0
2:46.892,60081,(,0,0,1
2:46.956,60104,N,0,0,0
2:46.972,60110,),0,0,1
2:47.178,60184,(,0,0,2
2:47.219,60199,t,0,0,5
2:47.306,60230,t,0,0,5
2:47.381,60257,),0,0,2
2:47.611,60340,(,0,0,0
2:47.650,60354,p,0,0,0
2:47.694,60370,),0,0,0
2:47.708,60375,(,0,0,1
2:47.778,60400,N,0,0,0
2:47.794,60406,),0,0,1
2:48.006,60482,(,0,0,2
2:48.056,60500,t,0,0,5
2:48.150,60534,t,0,0,5
2:48.211,60556,),0,0,2
2:48.453,60643,(,0,0,0
2:48.492,60657,p,0,0,0
2:48.533,60672,),0,0,0
2:48.553,60679,(,0,0,1
2:48.619,60703,N,0,0,0
2:48.636,60709,),0,0,1
2:48.847,60785,(,0,0,2
2:48.897,60803,t,0,0,5
2:48.989,60836,t,0,0,5
2:49.058,60861,),0,0,2
2:49.311,60952,(,0,0,0
2:49.347,60965,p,0,0,0
2:49.389,60980,),0,0,0
2:49.406,60986,(,0,0,1
2:49.478,61012,N,0,0,0
2:49.492,61017,),0,0,1
2:49.708,61095,(,0,0,2
2:49.750,61110,t,0,0,5
2:49.836,61141,t,0,0,5
2:49.894,61162,),0,0,2
2:50.136,61249,(,0,0,0
2:50.178,61264,p,0,0,0
2:50.219,61279,),0,0,0
2:50.236,61285,(,0,0,1
2:50.308,61311,N,0,0,0
2:50.325,61317,),0,0,1
2:50.542,61395,(,0,0,2
2:50.581,61409,t,0,0,5
2:50.667,61440,t,0,0,5
2:50.742,61467,),0,0,2
2:50.978,61552,(,0,0,0
2:51.017,61566,p,0,0,0
2:51.061,61582,),0,0,0
2:51.072,61586,(,0,0,1
2:51.144,61612,N,0,0,0
2:51.161,61618,),0,0,1
2:51.369,61693,(,0,0,2
2:51.414,61709,t,0,0,0
2:51.489,61736,),0,0,2
2:51.836,61861,(,0,0,0
2:51.878,61876,p,0,0,0
2:51.925,61893,),0,0,0
2:51.942,61899,(,0,0,1
2:52.011,61924,N,0,0,0
2:52.028,61930,),0,0,1
2:52.231,62003,(,0,0,2
2:52.283,62022,t,0,0,0
2:52.361,62050,),0,0,2
2:52.694,62170,(,0,0,0
2:52.731,62183,p,0,0,0
2:52.772,62198,),0,0,0
2:52.794,62206,(,0,0,1
2:52.864,62231,N,0,0,0
2:52.878,62236,),0,0,1
2:53.097,62315,(,0,0,2
2:53.139,62330,t,0,0,5
2:53.225,62361,t,0,0,5
2:53.300,62388,),0,0,2
2:53.519,62467,(,0,0,0
2:53.558,62481,p,0,0,0
2:53.606,62498,),0,0,0
2:53.622,62504,(,0,0,1
2:53.689,62528,N,0,0,0
2:53.706,62534,),0,0,1
2:53.914,62609,(,0,0,2
2:53.953,62623,t,0,0,5
2:54.036,62653,t,0,0,5
2:54.108,62679,),0,0,2
2:54.353,62767,(,0,0,0
2:54.389,62780,p,0,0,0
2:54.433,62796,),0,0,0
2:54.450,62802,(,0,0,1
2:54.522,62828,N,0,0,0
2:54.539,62834,),0,0,1
2:54.739,62906,(,0,0,2
2:54.783,62922,t,0,0,5
2:54.864,62951,t,0,0,5
2:54.947,62981,),0,0,2
2:55.200,63072,(,0,0,0
2:55.236,63085,p,0,0,0
2:55.278,63100,),0,0,0
2:55.297,63107,(,0,0,1
2:55.364,63131,N,0,0,0
2:55.381,63137,),0,0,1
2:55.589,63212,(,0,0,2
2:55.636,63229,t,0,0,5
2:55.719,63259,t,0,0,5
2:55.786,63283,),0,0,2
2:56.061,63382,(,0,0,0
2:56.097,63395,p,0,0,0
2:56.139,63410,),0,0,0
2:56.158,63417,(,0,0,1
2:56.225,63441,N,0,0,0
2:56.242,63447,),0,0,1
2:56.444,63520,(,0,0,2
2:56.486,63535,t,0,0,0
2:56.553,63559,),0,0,2
2:56.875,63675,(,0,0,0
2:56.914,63689,p,0,0,0
2:56.958,63705,),0,0,0
2:56.972,63710,(,0,0,1
2:57.042,63735,N,0,0,0
2:57.058,63741,),0,0,1
2:57.261,63814,(,0,0,2
2:57.303,63829,t,0,0,5
2:57.375,63855,t,0,0,5
2:57.458,63885,),0,0,2
2:57.703,63973,(,0,0,0
2:57.739,63986,p,0,0,0
2:57.781,64001,),0,0,0
2:57.800,64008,(,0,0,1
2:57.869,64033,N,0,0,0
2:57.886,64039,),0,0,1
2:58.108,64119,(,0,0,2
2:58.147,64133,t,0,0,5
2:58.233,64164,t,0,0,5
2:58.311,64192,),0,0,2
2:58.561,64282,(,0,0,0
2:58.597,64295,p,0,0,0
2:58.639,64310,),0,0,0
2:58.661,64318,(,0,0,1
2:58.725,64341,N,0,0,0
2:58.742,64347,),0,0,1
2:58.947,64421,(,0,0,2
2:58.992,64437,t,0,0,5
2:59.072,64466,t,0,0,5
2:59.139,64490,),0,0,2
2:59.397,64583,(,0,0,0
2:59.433,64596,p,0,0,0
2:59.475,64611,),0,0,0
2:59.494,64618,(,0,0,1
2:59.561,64642,N,0,0,0
2:59.578,64648,),0,0,1
2:59.778,64720,(,0,0,2
2:59.822,64736,t,0,0,5
2:59.906,64766,t,0,0,5
2:59.958,64785,),0,0,2
3:00.225,64881,(,0,0,0
3:00.258,64893,p,0,0,0
3:00.303,64909,),0,0,0
3:00.322,64916,(,0,0,1
3:00.389,64940,N,0,0,0
3:00.403,64945,),0,0,1
3:00.617,65022,(,0,0,2
3:00.658,65037,t,0,0,5
3:00.736,65065,t,0,0,5
3:00.822,65096,),0,0,2
3:01.056,65180,(,0,0,0
3:01.092,65193,p,0,0,0
3:01.133,65208,),0,0,0
3:01.144,65212,(,0,0,1
3:01.217,65238,N,0,0,0
3:01.231,65243,),0,0,1
3:01.442,65319,(,0,0,2
3:01.486,65335,t,0,0,5
3:01.561,65362,t,0,0,5
3:01.650,65394,),0,0,2
3:01.892,65481,(,0,0,0
3:01.925,65493,p,0,0,0
3:01.967,65508,),0,0,0
3:01.978,65512,(,0,0,1
3:02.050,65538,N,0,0,0
3:02.067,65544,),0,0,1
3:02.292,65625,(,0,0,2
3:02.333,65640,t,0,0,0
3:02.394,65662,),0,0,2
3:02.744,65788,(,0,0,0
3:02.781,65801,p,0,0,0
3:02.819,65815,),0,0,0
3:02.836,65821,(,0,0,1
3:02.903,65845,N,0,0,0
3:02.919,65851,),0,0,1
3:03.133,65928,(,0,0,2
3:03.175,65943,t,0,0,0
3:03.242,65967,),0,0,2
3:03.569,66085,(,0,0,0
3:03.606,66098,p,0,0,0
3:03.647,66113,),0,0,0
3:03.667,66120,(,0,0,1
3:03.736,66145,N,0,0,0
3:03.753,66151,),0,0,1
3:03.964,66227,(,0,0,2
3:04.003,66241,t,0,0,5
3:04.081,66269,t,0,0,5
3:04.150,66294,),0,0,2
3:04.403,66385,(,0,0,0
3:04.442,66399,p,0,0,0
3:04.481,66413,),0,0,0
3:04.503,66421,(,0,0,1
3:04.572,66446,N,0,0,0
3:04.589,66452,),0,0,1
3:04.814,66533,(,0,0,2
3:04.853,66547,t,0,0,0
3:04.917,66570,),0,0,2
3:05.267,66696,(,0,0,0
3:05.306,66710,p,0,0,0
3:05.347,66725,),0,0,0
3:05.364,66731,(,0,0,1
3:05.433,66756,N,0,0,0
3:05.450,66762,),0,0,1
3:05.661,66838,(,0,0,2
3:05.703,66853,t,0,0,5
3:05.786,66883,t,0,0,5
3:05.847,66905,),0,0,2
3:06.097,66995,(,0,0,0
3:06.133,67008,p,0,0,0
3:06.175,67023,),0,0,0
3:06.194,67030,(,0,0,1
3:06.258,67053,N,0,0,0
3:06.275,67059,),0,0,1
3:06.472,67130,(,0,0,2
3:06.519,67147,t,0,0,5
3:06.606,67178,t,0,0,5
3:06.667,67200,),0,0,2
3:06.933,67296,(,0,0,0
3:06.967,67308,p,0,0,0
3:07.003,67321,),0,0,0
3:07.017,67326,(,0,0,1
3:07.086,67351,N,0,0,0
3:07.100,67356,),0,0,1
3:07.322,67436,(,0,0,2
3:07.364,67451,t,0,0,0
3:07.431,67475,),0,0,2
3:07.744,67588,(,0,0,0
3:07.789,67604,p,0,0,0
3:07.833,67620,),0,0,0
3:07.847,67625,(,0,0,1
3:07.917,67650,N,0,0,0
3:07.933,67656,),0,0,1
3:08.150,67734,(,0,0,2
3:08.200,67752,t,0,0,5
3:08.272,67778,t,0,0,5
3:08.353,67807,),0,0,2
3:08.592,67893,(,0,0,0
3:08.628,67906,p,0,0,0
3:08.669,67921,),0,0,0
3:08.683,67926,(,0,0,1
3:08.756,67952,N,0,0,0
3:08.772,67958,),0,0,1
3:08.994,68038,(,0,0,2
3:09.033,68052,t,0,0,5
3:09.106,68078,t,0,0,5
3:09.194,68110,),0,0,2
3:09.431,68195,(,0,0,0
3:09.467,68208,p,0,0,0
3:09.508,68223,),0,0,0
3:09.522,68228,(,0,0,1
3:09.592,68253,N,0,0,0
3:09.608,68259,),0,0,1
3:09.825,68337,(,0,0,2
3:09.867,68352,t,0,0,0
3:09.933,68376,),0,0,2
3:10.256,68492,(,0,0,0
3:10.292,68505,p,0,0,0
3:10.333,68520,),0,0,0
3:10.347,68525,(,0,0,1
3:10.417,68550,N,0,0,0
3:10.433,68556,),0,0,1
3:10.642,68631,(,0,0,2
3:10.686,68647,t,0,0,0
3:10.756,68672,),0,0,2
3:11.092,68793,(,0,0,0
3:11.125,68805,p,0,0,0
3:11.169,68821,),0,0,0
3:11.183,68826,(,0,0,1
3:11.258,68853,N,0,0,0
3:11.275,68859,),0,0,1
3:11.497,68939,(,0,0,2
3:11.539,68954,t,0,0,0
3:11.603,68977,),0,0,2
3:11.942,69099,(,0,0,0
3:11.975,69111,p,0,0,0
3:12.019,69127,),0,0,0
3:12.039,69134,(,0,0,1
3:12.106,69158,N,0,0,0
3:12.122,69164,),0,0,1
3:12.344,69244,(,0,0,2
3:12.386,69259,t,0,0,5
3:12.461,69286,t,0,0,5
3:12.536,69313,),0,0,2
3:12.775,69399,(,0,0,0
3:12.808,69411,p,0,0,0
3:12.847,69425,),0,0,0
3:12.867,69432,(,0,0,1
3:12.933,69456,N,0,0,0
3:12.950,69462,),0,0,1
3:13.164,69539,(,0,0,2
3:13.206,69554,t,0,0,5
3:13.283,69582,t,0,0,5
3:13.364,69611,),0,0,2
3:13.606,69698,(,0,0,0
3:13.642,69711,p,0,0,0
3:13.681,69725,),0,0,0
3:13.700,69732,(,0,0,1
3:13.764,69755,N,0,0,0
3:13.778,69760,),0,0,1
3:13.997,69839,(,0,0,2
3:14.044,69856,t,0,0,0
3:14.111,69880,),0,0,2
3:14.442,69999,(,0,0,0
3:14.478,70012,p,0,0,0
3:14.519,70027,),0,0,0
3:14.539,70034,(,0,0,1
3:14.606,70058,N,0,0,0
3:14.622,70064,),0,0,1
3:14.844,70144,(,0,0,2
3:14.892,70161,t,0,0,5
3:14.975,70191,t,0,0,5
3:15.047,70217,),0,0,2
3:15.275,70299,(,0,0,0
3:15.317,70314,p,0,0,0
3:15.364,70331,),0,0,0
3:15.378,70336,(,0,0,1
3:15.447,70361,N,0,0,0
3:15.464,70367,),0,0,1
3:15.683,70446,(,0,0,2
3:15.728,70462,t,0,0,5
3:15.808,70491,t,0,0,5
3:15.878,70516,),0,0,2
3:16.117,70602,(,0,0,0
3:16.156,70616,p,0,0,0
3:16.197,70631,),0,0,0
3:16.211,70636,(,0,0,1
3:16.283,70662,N,0,0,0
3:16.300,70668,),0,0,1
3:16.519,70747,(,0,0,2
3:16.558,70761,t,0,0,5
3:16.642,70791,t,0,0,5
3:16.722,70820,),0,0,2
3:16.944,70900,(,0,0,0
3:16.981,70913,p,0,0,0
3:17.025,70929,),0,0,0
3:17.044,70936,(,0,0,1
3:17.114,70961,N,0,0,0
3:17.131,70967,),0,0,1
3:17.339,71042,(,0,0,2
3:17.383,71058,t,0,0,0
3:17.447,71081,),0,0,2
3:17.789,71204,(,0,0,0
3:17.828,71218,p,0,0,0
3:17.872,71234,),0,0,0
3:17.897,71243,(,0,0,1
3:17.964,71267,N,0,0,0
3:17.978,71272,),0,0,1
3:18.192,71349,(,0,0,2
3:18.239,71366,t,0,0,0
3:18.306,71390,),0,0,2
3:18.625,71505,(,0,0,0
3:18.661,71518,p,0,0,0
3:18.706,71534,),0,0,0
3:18.717,71538,(,0,0,1
3:18.789,71564,N,0,0,0
3:18.806,71570,),0,0,1
3:19.025,71649,(,0,0,2
3:19.064,71663,t,0,0,5
3:19.150,71694,t,0,0,5
3:19.219,71719,),0,0,2
3:19.442,71799,(,0,0,0
3:19.481,71813,p,0,0,0
3:19.519,71827,),0,0,0
3:19.539,71834,(,0,0,1
3:19.608,71859,N,0,0,0
3:19.625,71865,),0,0,1
3:19.842,71943,(,0,0,2
3:19.881,71957,t,0,0,5
3:19.958,71985,t,0,0,5
3:20.031,72011,),0,0,2
3:20.272,72098,(,0,0,0
3:20.308,72111,p,0,0,0
3:20.353,72127,),0,0,0
3:20.375,72135,(,0,0,1
3:20.442,72159,N,0,0,0
3:20.458,72165,),0,0,1
3:20.664,72239,(,0,0,2
3:20.706,72254,t,0,0,0
3:20.769,72277,),0,0,2
3:21.103,72397,(,0,0,0
3:21.136,72409,p,0,0,0
3:21.186,72427,),0,0,0
3:21.208,72435,(,0,0,1
3:21.272,72458,N,0,0,0
3:21.286,72463,),0,0,1
3:21.497,72539,(,0,0,2
3:21.544,72556,t,0,0,0
3:21.611,72580,),0,0,2
3:21.950,72702,(,0,0,0
3:21.986,72715,p,0,0,0
3:22.031,72731,),0,0,0
3:22.047,72737,(,0,0,1
3:22.114,72761,N,0,0,0
3:22.131,72767,),0,0,1
3:22.342,72843,(,0,0,2
3:22.386,72859,t,0,0,5
3:22.456,72884,t,0,0,5
3:22.533,72912,),0,0,2
3:22.775,72999,(,0,0,0
3:22.814,73013,p,0,0,0
3:22.853,73027,),0,0,0
3:22.872,73034,(,0,0,1
3:22.939,73058,N,0,0,0
3:22.956,73064,),0,0,1
3:23.167,73140,(,0,0,2
3:23.206,73154,t,0,0,0
3:23.267,73176,),0,0,2
3:23.592,73293,(,0,0,0
3:23.631,73307,p,0,0,0
3:23.669,73321,),0,0,0
3:23.683,73326,(,0,0,1
3:23.756,73352,N,0,0,0
3:23.772,73358,),0,0,1
3:23.994,73438,(,0,0,2
3:24.036,73453,t,0,0,5
3:24.117,73482,t,0,0,5
3:24.197,73511,),0,0,2
3:24.456,73604,(,0,0,0
3:24.497,73619,p,0,0,0
3:24.539,73634,),0,0,0
3:24.553,73639,(,0,0,1
3:24.628,73666,N,0,0,0
3:24.642,73671,),0,0,1
3:24.858,73749,(,0,0,2
3:24.900,73764,t,0,0,0
3:24.964,73787,),0,0,2
3:25.311,73912,(,0,0,0
3:25.344,73924,p,0,0,0
3:25.386,73939,),0,0,0
3:25.408,73947,(,0,0,1
3:25.475,73971,N,0,0,0
3:25.492,73977,),0,0,1
3:25.703,74053,(,0,0,2
3:25.742,74067,t,0,0,5
3:25.817,74094,t,0,0,5
3:25.886,74119,),0,0,2
3:26.125,74205,(,0,0,0
3:26.164,74219,p,0,0,0
3:26.208,74235,),0,0,0
3:26.222,74240,(,0,0,1
3:26.300,74268,N,0,0,0
3:26.317,74274,),0,0,1
3:26.528,74350,(,0,0,2
3:26.567,74364,t,0,0,0
3:26.631,74387,),0,0,2
3:26.975,74511,(,0,0,0
3:27.011,74524,p,0,0,0
3:27.058,74541,),0,0,0
3:27.075,74547,(,0,0,1
3:27.144,74572,N,0,0,0
3:27.161,74578,),0,0,1
3:27.369,74653,(,0,0,2
3:27.408,74667,t,0,0,5
3:27.481,74693,t,0,0,5
3:27.561,74722,),0,0,2
3:27.814,74813,(,0,0,0
3:27.850,74826,p,0,0,0
3:27.897,74843,),0,0,0
3:27.917,74850,(,0,0,1
3:27.983,74874,N,0,0,0
3:27.997,74879,),0,0,1
3:28.208,74955,(,0,0,2
3:28.258,74973,t,0,0,0
3:28.325,74997,),0,0,2
3:28.675,75123,(,0,0,0
3:28.711,75136,p,0,0,0
3:28.758,75153,),0,0,0
3:28.778,75160,(,0,0,1
3:28.844,75184,N,0,0,0
3:28.858,75189,),0,0,1
3:29.064,75263,(,0,0,2
3:29.111,75280,t,0,0,5
3:29.189,75308,t,0,0,5
3:29.258,75333,),0,0,2
3:29.514,75425,(,0,0,0
3:29.553,75439,p,0,0,0
3:29.592,75453,),0,0,0
3:29.614,75461,(,0,0,1
3:29.681,75485,N,0,0,0
3:29.697,75491,),0,0,1
3:29.908,75567,(,0,0,2
3:29.947,75581,t,0,0,5
3:30.017,75606,t,0,0,5
3:30.086,75631,),0,0,2
3:30.333,75720,(,0,0,0
3:30.369,75733,p,0,0,0
3:30.408,75747,),0,0,0
3:30.425,75753,(,0,0,1
3:30.494,75778,N,0,0,0
3:30.511,75784,),0,0,1
3:30.742,75867,(,0,0,2
3:30.781,75881,t,0,0,5
3:30.850,75906,t,0,0,5
3:30.936,75937,),0,0,2
3:31.189,76028,(,0,0,0
3:31.231,76043,p,0,0,0
3:31.278,76060,),0,0,0
3:31.292,76065,(,0,0,1
3:31.364,76091,N,0,0,0
3:31.378,76096,),0,0,1
3:31.592,76173,(,0,0,2
3:31.636,76189,t,0,0,5
3:31.717,76218,t,0,0,5
3:31.786,76243,),0,0,2
3:32.053,76339,(,0,0,0
3:32.092,76353,p,0,0,0
3:32.133,76368,),0,0,0
3:32.150,76374,(,0,0,1
3:32.219,76399,N,0,0,0
3:32.236,76405,),0,0,1
3:32.447,76481,(,0,0,2
3:32.486,76495,t,0,0,0
3:32.544,76516,),0,0,2
3:32.881,76637,(,0,0,0
3:32.917,76650,p,0,0,0
3:32.961,76666,),0,0,0
3:32.981,76673,(,0,0,1
3:33.047,76697,N,0,0,0
3:33.064,76703,),0,0,1
3:33.275,76779,(,0,0,2
3:33.317,76794,t,0,0,0
3:33.381,76817,),0,0,2
3:33.725,76941,(,0,0,0
3:33.761,76954,p,0,0,0
3:33.808,76971,),0,0,0
3:33.819,76975,(,0,0,1
3:33.886,76999,N,0,0,0
3:33.903,77005,),0,0,1
3:34.108,77079,(,0,0,2
3:34.147,77093,t,0,0,0
3:34.214,77117,),0,0,2
3:34.569,77245,(,0,0,0
3:34.608,77259,p,0,0,0
3:34.650,77274,),0,0,0
3:34.667,77280,(,0,0,1
3:34.733,77304,N,0,0,0
3:34.750,77310,),0,0,1
3:34.972,77390,(,0,0,2
3:35.014,77405,t,0,0,5
3:35.089,77432,t,0,0,5
3:35.144,77452,),0,0,2
3:35.442,77559,(,0,0,0
3:35.478,77572,p,0,0,0
3:35.517,77586,),0,0,0
3:35.533,77592,(,0,0,1
3:35.600,77616,N,0,0,0
3:35.617,77622,),0,0,1
3:35.828,77698,(,0,0,2
3:35.872,77714,t,0,0,5
3:35.958,77745,t,0,0,5
3:36.014,77765,),0,0,2
3:36.283,77862,(,0,0,0
3:36.317,77874,p,0,0,0
3:36.358,77889,),0,0,0
3:36.375,77895,(,0,0,1
3:36.442,77919,N,0,0,0
3:36.458,77925,),0,0,1
3:36.669,78001,(,0,0,2
3:36.708,78015,t,0,0,0
3:36.769,78037,),0,0,2
3:37.114,78161,(,0,0,0
3:37.153,78175,p,0,0,0
3:37.194,78190,),0,0,0
3:37.214,78197,(,0,0,1
3:37.286,78223,N,0,0,0
3:37.300,78228,),0,0,1
3:37.522,78308,(,0,0,2
3:37.564,78323,t,0,0,0
3:37.628,78346,),0,0,2
3:37.981,78473,(,0,0,0
3:38.017,78486,p,0,0,0
3:38.061,78502,),0,0,0
3:38.081,78509,(,0,0,1
3:38.144,78532,N,0,0,0
3:38.161,78538,),0,0,1
3:38.372,78614,(,0,0,2
3:38.414,78629,t,0,0,5
3:38.503,78661,t,0,0,5
3:38.564,78683,),0,0,2
3:38.839,78782,(,0,0,0
3:38.875,78795,p,0,0,0
3:38.917,78810,),0,0,0
3:38.928,78814,(,0,0,1
3:39.003,78841,N,0,0,0
3:39.017,78846,),0,0,1
3:39.222,78920,(,0,0,2
3:39.264,78935,t,0,0,0
3:39.331,78959,),0,0,2
3:39.675,79083,(,0,0,0
3:39.711,79096,p,0,0,0
3:39.750,79110,),0,0,0
3:39.767,79116,(,0,0,1
3:39.836,79141,N,0,0,0
3:39.850,79146,),0,0,1
3:40.078,79228,(,0,0,2
3:40.119,79243,t,0,0,5
3:40.200,79272,t,0,0,5
3:40.267,79296,),0,0,2
3:40.528,79390,(,0,0,0
3:40.564,79403,p,0,0,0
3:40.603,79417,),0,0,0
3:40.619,79423,(,0,0,1
3:40.689,79448,N,0,0,0
3:40.706,79454,),0,0,1
3:40.928,79534,(,0,0,2
3:40.967,79548,t,0,0,0
3:41.028,79570,),0,0,2
3:41.383,79698,(,0,0,0
3:41.414,79709,p,0,0,0
3:41.461,79726,),0,0,0
3:41.481,79733,(,0,0,1
3:41.547,79757,N,0,0,0
3:41.564,79763,),0,0,1
3:41.783,79842,(,0,0,2
3:41.825,79857,t,0,0,0
3:41.892,79881,),0,0,2
3:42.231,80003,(,0,0,0
3:42.269,80017,p,0,0,0
3:42.308,80031,),0,0,0
3:42.322,80036,(,0,0,1
3:42.389,80060,N,0,0,0
3:42.403,80065,),0,0,1
3:42.619,80143,(,0,0,2
3:42.667,80160,t,0,0,0
3:42.728,80182,),0,0,2
3:43.075,80307,(,0,0,0
3:43.111,80320,p,0,0,0
3:43.153,80335,),0,0,0
3:43.172,80342,(,0,0,1
3:43.236,80365,N,0,0,0
3:43.250,80370,),0,0,1
3:43.467,80448,(,0,0,2
3:43.508,80463,t,0,0,5
3:43.589,80492,t,0,0,5
3:43.667,80520,),0,0,2
3:43.931,80615,(,0,0,0
3:43.969,80629,p,0,0,0
3:44.011,80644,),0,0,0
3:44.025,80649,(,0,0,1
3:44.100,80676,N,0,0,0
3:44.119,80683,),0,0,1
3:44.350,80766,(,0,0,2
3:44.389,80780,t,0,0,5
3:44.464,80807,t,0,0,5
3:44.539,80834,),0,0,2
3:44.808,80931,(,0,0,0
3:44.844,80944,p,0,0,0
3:44.886,80959,),0,0,0
3:44.903,80965,(,0,0,1
3:44.969,80989,N,0,0,0
3:44.986,80995,),0,0,1
3:45.206,81074,(,0,0,2
3:45.253,81091,t,0,0,0
3:45.317,81114,),0,0,2
3:45.678,81244,(,0,0,0
3:45.714,81257,p,0,0,0
3:45.753,81271,),0,0,0
3:45.769,81277,(,0,0,1
3:45.836,81301,N,0,0,0
3:45.853,81307,),0,0,1
3:46.067,81384,(,0,0,2
3:46.111,81400,t,0,0,0
3:46.178,81424,),0,0,2
3:46.544,81556,(,0,0,0
3:46.583,81570,p,0,0,0
3:46.625,81585,),0,0,0
3:46.639,81590,(,0,0,1
3:46.717,81618,N,0,0,0
3:46.733,81624,),0,0,1
3:46.956,81704,(,0,0,2
3:46.994,81718,t,0,0,5
3:47.067,81744,t,0,0,5
3:47.136,81769,),0,0,2
3:47.408,81867,(,0,0,0
3:47.444,81880,p,0,0,0
3:47.483,81894,),0,0,0
3:47.494,81898,(,0,0,1
3:47.578,81928,N,0,0,0
3:47.600,81936,),0,0,1
3:47.817,82014,(,0,0,2
3:47.861,82030,t,0,0,5
3:47.933,82056,t,0,0,5
3:48.017,82086,),0,0,2
3:48.378,82216,(,0,0,1
3:48.453,82243,N,0,0,0
3:48.469,82249,),0,0,1
3:48.667,82320,(,0,0,2
3:48.714,82337,t,0,0,0
3:48.781,82361,),0,0,2
3:49.119,82483,(,0,0,0
3:49.153,82495,p,0,0,0
3:49.189,82508,),0,0,0
3:49.233,82524,(,0,0,1
3:49.286,82543,N,0,0,0
3:49.414,82589,),0,0,1
3:49.497,82619,(,0,0,2
3:49.539,82634,t,0,0,5
3:49.631,82667,t,0,0,5
3:49.689,82688,),0,0,2
3:50.042,82815,(,0,0,1
3:50.114,82841,N,0,0,0
3:50.131,82847,),0,0,1
3:50.350,82926,(,0,0,2
3:50.392,82941,t,0,0,5
3:50.478,82972,t,0,0,5
3:50.558,83001,),0,0,2
3:50.831,83099,(,0,0,0
3:50.869,83113,p,0,0,0
3:50.908,83127,),0,0,0
3:50.925,83133,(,0,0,1
3:51.003,83161,N,0,0,0
3:51.019,83167,),0,0,1
3:51.236,83245,(,0,0,2
3:51.278,83260,t,0,0,5
3:51.358,83289,t,0,0,5
3:51.425,83313,),0,0,2
3:51.689,83408,(,0,0,0
3:51.728,83422,p,0,0,0
3:51.764,83435,),0,0,0
3:51.783,83442,(,0,0,1
3:51.858,83469,N,0,0,0
3:51.875,83475,),0,0,1
3:52.083,83550,(,0,0,2
3:52.125,83565,t,0,0,5
3:52.208,83595,t,0,0,5
3:52.272,83618,),0,0,2
3:52.639,83750,(,0,0,1
3:52.708,83775,N,0,0,0
3:52.725,83781,),0,0,1
3:52.939,83858,(,0,0,2
3:52.978,83872,t,0,0,0
3:53.044,83896,),0,0,2
3:53.408,84027,(,0,0,0
3:53.442,84039,p,0,0,0
3:53.478,84052,),0,0,0
3:53.500,84060,(,0,0,1
3:53.569,84085,N,0,0,0
3:53.583,84090,),0,0,1
3:53.794,84166,(,0,0,2
3:53.836,84181,t,0,0,5
3:53.917,84210,t,0,0,5
3:53.994,84238,),0,0,2
3:54.267,84336,(,0,0,0
3:54.300,84348,p,0,0,0
3:54.336,84361,),0,0,0
3:54.356,84368,(,0,0,1
3:54.422,84392,N,0,0,0
3:54.439,84398,),0,0,1
3:54.664,84479,(,0,0,2
3:54.708,84495,t,0,0,0
3:54.778,84520,),0,0,2
3:55.150,84654,(,0,0,0
3:55.183,84666,p,0,0,0
3:55.219,84679,),0,0,0
3:55.239,84686,(,0,0,1
3:55.308,84711,N,0,0,0
3:55.325,84717,),0,0,1
3:55.542,84795,(,0,0,2
3:55.583,84810,t,0,0,5
3:55.661,84838,t,0,0,5
3:55.744,84868,),0,0,2
3:56.019,84967,(,0,0,0
3:56.053,84979,p,0,0,0
3:56.092,84993,),0,0,0
3:56.114,85001,(,0,0,1
3:56.181,85025,N,0,0,0
3:56.197,85031,),0,0,1
3:56.406,85106,(,0,0,2
3:56.447,85121,t,0,0,0
3:56.508,85143,),0,0,2
3:56.869,85273,(,0,0,0
3:56.911,85288,p,0,0,0
3:56.956,85304,),0,0,0
3:56.972,85310,(,0,0,1
3:57.042,85335,N,0,0,0
3:57.056,85340,),0,0,1
3:57.283,85422,(,0,0,2
3:57.328,85438,t,0,0,5
3:57.417,85470,t,0,0,5
3:57.478,85492,),0,0,2
3:57.767,85596,(,0,0,0
3:57.806,85610,p,0,0,0
3:57.842,85623,),0,0,0
3:57.861,85630,(,0,0,1
3:57.928,85654,N,0,0,0
3:57.944,85660,),0,0,1
3:58.161,85738,(,0,0,2
3:58.203,85753,t,0,0,0
3:58.267,85776,),0,0,2
3:58.733,85944,(,0,0,1
3:58.800,85968,N,0,0,0
3:58.814,85973,),0,0,1
3:59.036,86053,(,0,0,2
3:59.078,86068,t,0,0,5
3:59.153,86095,t,0,0,5
3:59.222,86120,),0,0,2
3:59.508,86223,(,0,0,0
3:59.544,86236,p,0,0,0
3:59.586,86251,),0,0,0
3:59.606,86258,(,0,0,1
3:59.675,86283,N,0,0,0
3:59.692,86289,),0,0,1
3:59.911,86368,(,0,0,2
3:59.956,86384,t,0,0,5
4:00.042,86415,t,0,0,5
4:00.103,86437,),0,0,2
4:00.394,86542,(,0,0,0
4:00.433,86556,p,0,0,0
4:00.469,86569,),0,0,0
4:00.492,86577,(,0,0,1
4:00.564,86603,N,0,0,0
4:00.578,86608,),0,0,1
4:00.797,86687,(,0,0,2
4:00.842,86703,t,0,0,5
4:00.922,86732,t,0,0,5
4:00.994,86758,),0,0,2
4:01.403,86905,(,0,0,1
4:01.478,86932,N,0,0,0
4:01.494,86938,),0,0,1
4:01.719,87019,(,0,0,2
4:01.758,87033,t,0,0,0
4:01.819,87055,),0,0,2
4:02.203,87193,(,0,0,0
4:02.244,87208,p,0,0,0
4:02.283,87222,),0,0,0
4:02.300,87228,(,0,0,1
4:02.369,87253,N,0,0,0
4:02.386,87259,),0,0,1
4:02.603,87337,(,0,0,2
4:02.644,87352,t,0,0,0
4:02.717,87378,),0,0,2
4:03.097,87515,(,0,0,0
4:03.136,87529,p,0,0,0
4:03.167,87540,),0,0,0
4:03.192,87549,(,0,0,1
4:03.264,87575,N,0,0,0
4:03.281,87581,),0,0,1
4:03.497,87659,(,0,0,2
4:03.547,87677,t,0,0,5
4:03.628,87706,t,0,0,5
4:03.689,87728,),0,0,2
4:04.122,87884,(,0,0,1
4:04.192,87909,N,0,0,0
4:04.206,87914,),0,0,1
4:04.428,87994,(,0,0,2
4:04.467,88008,t,0,0,5
4:04.542,88035,t,0,0,5
4:04.614,88061,),0,0,2
4:04.919,88171,(,0,0,0
4:04.956,88184,p,0,0,0
4:04.997,88199,),0,0,0
4:05.017,88206,(,0,0,1
4:05.083,88230,N,0,0,0
4:05.100,88236,),0,0,1
4:05.308,88311,(,0,0,2
4:05.347,88325,t,0,0,0
4:05.403,88345,),0,0,2
4:05.872,88514,(,0,0,1
4:05.944,88540,N,0,0,0
4:05.958,88545,),0,0,1
4:06.175,88623,(,0,0,2
4:06.217,88638,t,0,0,5
4:06.308,88671,t,0,0,5
4:06.364,88691,),0,0,2
4:06.656,88796,(,0,0,0
4:06.692,88809,p,0,0,0
4:06.728,88822,),0,0,0
4:06.753,88831,(,0,0,1
4:06.819,88855,N,0,0,0
4:06.833,88860,),0,0,1
4:07.058,88941,(,0,0,2
4:07.106,88958,t,0,0,0
4:07.178,88984,),0,0,2
4:07.636,89149,(,0,0,1
4:07.711,89176,N,0,0,0
4:07.725,89181,),0,0,1
4:07.958,89265,(,0,0,2
4:08.000,89280,t,0,0,0
4:08.064,89303,),0,0,2
4:08.428,89434,(,0,0,0
4:08.464,89447,p,0,0,0
4:08.497,89459,),0,0,0
4:08.522,89468,(,0,0,1
4:08.589,89492,N,0,0,0
4:08.608,89499,),0,0,1
4:08.828,89578,(,0,0,2
4:08.869,89593,t,0,0,5
4:08.958,89625,t,0,0,5
4:09.014,89645,),0,0,2
4:09.300,89748,(,0,0,0
4:09.331,89759,p,0,0,0
4:09.364,89771,),0,0,0
4:09.389,89780,(,0,0,1
4:09.456,89804,N,0,0,0
4:09.472,89810,),0,0,1
4:09.694,89890,(,0,0,2
4:09.736,89905,t,0,0,5
4:09.811,89932,t,0,0,5
4:09.886,89959,),0,0,2
4:10.178,90064,(,0,0,0
4:10.214,90077,p,0,0,0
4:10.247,90089,),0,0,0
4:10.267,90096,(,0,0,1
4:10.339,90122,N,0,0,0
4:10.353,90127,),0,0,1
4:10.578,90208,(,0,0,2
4:10.622,90224,t,0,0,5
4:10.700,90252,t,0,0,5
4:10.764,90275,),0,0,2
4:11.042,90375,(,0,0,0
4:11.075,90387,p,0,0,0
4:11.111,90400,),0,0,0
4:11.133,90408,(,0,0,1
4:11.203,90433,N,0,0,0
4:11.219,90439,),0,0,1
4:11.444,90520,(,0,0,2
4:11.483,90534,t,0,0,0
4:11.539,90554,),0,0,2
4:11.886,90679,(,0,0,0
4:11.922,90692,p,0,0,0
4:11.964,90707,),0,0,0
4:11.983,90714,(,0,0,1
4:12.056,90740,N,0,0,0
4:12.072,90746,),0,0,1
4:12.292,90825,(,0,0,2
4:12.331,90839,t,0,0,0
4:12.389,90860,),0,0,2
4:12.744,90988,(,0,0,0
4:12.781,91001,p,0,0,0
4:12.819,91015,),0,0,0
4:12.839,91022,(,0,0,1
4:12.908,91047,N,0,0,0
4:12.925,91053,),0,0,1
4:13.131,91127,(,0,0,2
4:13.172,91142,t,0,0,0
4:13.236,91165,),0,0,2
4:13.592,91293,(,0,0,0
4:13.628,91306,p,0,0,0
4:13.664,91319,),0,0,0
4:13.686,91327,(,0,0,1
4:13.753,91351,N,0,0,0
4:13.769,91357,),0,0,1
4:13.986,91435,(,0,0,2
4:14.031,91451,t,0,0,0
4:14.094,91474,),0,0,2
4:14.467,91608,(,0,0,0
4:14.497,91619,p,0,0,0
4:14.533,91632,),0,0,0
4:14.556,91640,(,0,0,1
4:14.622,91664,N,0,0,0
4:14.639,91670,),0,0,1
4:14.858,91749,(,0,0,2
4:14.897,91763,t,0,0,0
4:14.961,91786,),0,0,2
4:15.406,91946,(,0,0,1
4:15.472,91970,N,0,0,0
4:15.489,91976,),0,0,1
4:15.703,92053,(,0,0,2
4:15.744,92068,t,0,0,5
4:15.822,92096,t,0,0,5
4:15.900,92124,),0,0,2
4:16.264,92255,(,0,0,1
4:16.333,92280,N,0,0,0
4:16.350,92286,),0,0,1
4:16.575,92367,(,0,0,2
4:16.619,92383,t,0,0,5
4:16.697,92411,t,0,0,5
4:16.781,92441,),0,0,2
4:17.147,92573,(,0,0,1
4:17.214,92597,N,0,0,0
4:17.231,92603,),0,0,1
4:17.442,92679,(,0,0,2
4:17.486,92695,t,0,0,0
4:17.556,92720,),0,0,2
4:17.922,92852,(,0,0,0
4:17.956,92864,p,0,0,0
4:17.997,92879,),0,0,0
4:18.011,92884,(,0,0,1
4:18.078,92908,N,0,0,0
4:18.092,92913,),0,0,1
4:18.300,92988,(,0,0,2
4:18.344,93004,t,0,0,0
4:18.406,93026,),0,0,2
4:18.769,93157,(,0,0,0
4:18.811,93172,p,0,0,0
4:18.856,93188,),0,0,0
4:18.869,93193,(,0,0,1
4:18.942,93219,N,0,0,0
4:18.958,93225,),0,0,1
4:19.181,93305,(,0,0,2
4:19.225,93321,t,0,0,5
4:19.308,93351,t,0,0,5
4:19.378,93376,),0,0,2
4:19.631,93467,(,0,0,0
4:19.669,93481,p,0,0,0
4:19.708,93495,),0,0,0
4:19.731,93503,(,0,0,1
4:19.797,93527,N,0,0,0
4:19.814,93533,),0,0,1
4:20.047,93617,(,0,0,2
4:20.086,93631,t,0,0,0
4:20.142,93651,),0,0,2
4:20.500,93780,(,0,0,0
4:20.536,93793,p,0,0,0
4:20.581,93809,),0,0,0
4:20.597,93815,(,0,0,1
4:20.664,93839,N,0,0,0
4:20.681,93845,),0,0,1
4:20.897,93923,(,0,0,2
4:20.947,93941,t,0,0,0
4:21.014,93965,),0,0,2
4:21.369,94093,(,0,0,0
4:21.408,94107,p,0,0,0
4:21.447,94121,),0,0,0
4:21.467,94128,(,0,0,1
4:21.536,94153,N,0,0,0
4:21.550,94158,),0,0,1
4:21.769,94237,(,0,0,2
4:21.814,94253,t,0,0,0
4:21.875,94275,),0,0,2
4:22.214,94397,(,0,0,0
4:22.256,94412,p,0,0,0
4:22.297,94427,),0,0,0
4:22.314,94433,(,0,0,1
4:22.383,94458,N,0,0,0
4:22.400,94464,),0,0,1
4:22.617,94542,(,0,0,2
4:22.658,94557,t,0,0,0
4:22.728,94582,),0,0,2
4:23.075,94707,(,0,0,0
4:23.114,94721,p,0,0,0
4:23.161,94738,),0,0,0
4:23.172,94742,(,0,0,1
4:23.247,94769,N,0,0,0
4:23.264,94775,),0,0,1
4:23.492,94857,(,0,0,2
4:23.533,94872,t,0,0,5
4:23.608,94899,t,0,0,5
4:23.686,94927,),0,0,2
4:23.947,95021,(,0,0,0
4:23.986,95035,p,0,0,0
4:24.033,95052,),0,0,0
4:24.050,95058,(,0,0,1
4:24.119,95083,N,0,0,0
4:24.136,95089,),0,0,1
4:24.361,95170,(,0,0,2
4:24.400,95184,t,0,0,5
4:24.475,95211,t,0,0,5
4:24.542,95235,),0,0,2
4:24.803,95329,(,0,0,0
4:24.842,95343,p,0,0,0
4:24.883,95358,),0,0,0
4:24.903,95365,(,0,0,1
4:24.969,95389,N,0,0,0
4:24.986,95395,),0,0,1
4:25.197,95471,(,0,0,2
4:25.244,95488,t,0,0,0
4:25.308,95511,),0,0,2
4:25.683,95646,(,0,0,0
4:25.719,95659,p,0,0,0
4:25.764,95675,),0,0,0
4:25.778,95680,(,0,0,1
4:25.850,95706,N,0,0,0
4:25.864,95711,),0,0,1
4:26.072,95786,(,0,0,2
4:26.119,95803,t,0,0,0
4:26.183,95826,),0,0,2
4:26.539,95954,(,0,0,0
4:26.578,95968,p,0,0,0
4:26.625,95985,),0,0,0
4:26.642,95991,(,0,0,1
4:26.711,96016,N,0,0,0
4:26.728,96022,),0,0,1
4:26.947,96101,(,0,0,2
4:26.989,96116,t,0,0,5
4:27.069,96145,t,0,0,5
4:27.144,96172,),0,0,2
4:27.417,96270,(,0,0,0
4:27.458,96285,p,0,0,0
4:27.500,96300,),0,0,0
4:27.536,96313,(,0,0,1
4:27.586,96331,N,0,0,0
4:27.608,96339,),0,0,1
4:27.817,96414,(,0,0,2
4:27.858,96429,t,0,0,0
4:27.919,96451,),0,0,2
4:28.289,96584,(,0,0,0
4:28.328,96598,p,0,0,0
4:28.369,96613,),0,0,0
4:28.383,96618,(,0,0,1
4:28.453,96643,N,0,0,0
4:28.467,96648,),0,0,1
4:28.678,96724,(,0,0,2
4:28.722,96740,t,0,0,0
4:28.789,96764,),0,0,2
4:29.156,96896,(,0,0,0
4:29.194,96910,p,0,0,0
4:29.242,96927,),0,0,0
4:29.264,96935,(,0,0,1
4:29.328,96958,N,0,0,0
4:29.344,96964,),0,0,1
4:29.567,97044,(,0,0,2
4:29.614,97061,t,0,0,0
4:29.683,97086,),0,0,2
4:30.050,97218,(,0,0,0
4:30.089,97232,p,0,0,0
4:30.131,97247,),0,0,0
4:30.147,97253,(,0,0,1
4:30.214,97277,N,0,0,0
4:30.231,97283,),0,0,1
4:30.447,97361,(,0,0,2
4:30.492,97377,t,0,0,0
4:30.561,97402,),0,0,2
4:30.931,97535,(,0,0,0
4:30.964,97547,p,0,0,0
4:31.003,97561,),0,0,0
4:31.017,97566,(,0,0,1
4:31.086,97591,N,0,0,0
4:31.103,97597,),0,0,1
4:31.319,97675,(,0,0,2
4:31.358,97689,t,0,0,5
4:31.439,97718,t,0,0,5
4:31.519,97747,),0,0,2
4:31.794,97846,(,0,0,0
4:31.831,97859,p,0,0,0
4:31.872,97874,),0,0,0
4:31.889,97880,(,0,0,1
4:31.964,97907,N,0,0,0
4:31.978,97912,),0,0,1
4:32.197,97991,(,0,0,2
4:32.247,98009,t,0,0,0
4:32.311,98032,),0,0,2
4:32.678,98164,(,0,0,0
4:32.717,98178,p,0,0,0
4:32.761,98194,),0,0,0
4:32.775,98199,(,0,0,1
4:32.844,98224,N,0,0,0
4:32.861,98230,),0,0,1
4:33.089,98312,(,0,0,2
4:33.131,98327,t,0,0,5
4:33.208,98355,t,0,0,5
4:33.264,98375,),0,0,2
4:33.603,98497,(,0,0,0
4:33.639,98510,p,0,0,0
4:33.686,98527,),0,0,0
4:33.703,98533,(,0,0,1
4:33.772,98558,N,0,0,0
4:33.789,98564,),0,0,1
4:34.008,98643,(,0,0,2
4:34.050,98658,t,0,0,0
4:34.108,98679,),0,0,2
4:34.511,98824,(,0,0,0
4:34.553,98839,p,0,0,0
4:34.594,98854,),0,0,0
4:34.608,98859,(,0,0,1
4:34.678,98884,N,0,0,0
4:34.694,98890,),0,0,1
4:34.914,98969,(,0,0,2
4:34.953,98983,t,0,0,0
4:35.014,99005,),0,0,2
4:36.467,99528,(,0,0,1
4:36.533,99552,N,0,0,0
4:36.575,99567,),0,0,1
4:36.792,99645,(,0,0,2
4:36.833,99660,t,0,0,0
4:36.897,99683,),0,0,2
4:37.397,99863,(,0,0,1
4:37.453,99883,N,0,0,0
4:37.492,99897,),0,0,1
4:37.708,99975,(,0,0,2
4:37.750,99990,t,0,0,5
4:37.825,100017,t,0,0,5
4:37.900,100044,),0,0,2
4:38.297,100187,(,0,0,1
4:38.356,100208,N,0,0,0
4:38.400,100224,),0,0,1
4:38.597,100295,(,0,0,2
4:38.625,100305,t,0,0,4
4:38.678,100324,t,0,0,4
4:38.742,100347,),0,0,2
4:39.208,100515,(,0,0,1
4:39.269,100537,N,0,0,0
4:39.311,100552,),0,0,1
4:39.539,100634,(,0,0,2
4:39.583,100650,t,0,0,5
4:39.669,100681,t,0,0,5
4:39.722,100700,),0,0,2
4:40.128,100846,(,0,0,1
4:40.183,100866,N,0,0,0
4:40.225,100881,),0,0,1
4:40.461,100966,(,0,0,2
4:40.503,100981,t,0,0,0
4:40.561,101002,),0,0,2
4:41.033,101172,(,0,0,1
4:41.094,101194,N,0,0,0
4:41.136,101209,),0,0,1
4:41.364,101291,(,0,0,2
4:41.403,101305,t,0,0,5
4:41.475,101331,t,0,0,5
4:41.550,101358,),0,0,2
4:41.919,101491,(,0,0,1
4:41.978,101512,N,0,0,0
4:42.019,101527,),0,0,1
4:42.244,101608,(,0,0,2
4:42.286,101623,t,0,0,5
4:42.364,101651,t,0,0,5
4:42.444,101680,),0,0,2
4:42.831,101819,(,0,0,1
4:42.897,101843,N,0,0,0
4:42.939,101858,),0,0,1
4:43.161,101938,(,0,0,2
4:43.203,101953,t,0,0,0
4:43.269,101977,),0,0,2
4:43.722,102140,(,0,0,1
4:43.781,102161,N,0,0,0
4:43.822,102176,),0,0,1
4:44.036,102253,(,0,0,2
4:44.081,102269,t,0,0,0
4:44.144,102292,),0,0,2
4:44.592,102453,(,0,0,1
4:44.644,102472,N,0,0,0
4:44.689,102488,),0,0,1
4:44.900,102564,(,0,0,2
4:44.944,102580,t,0,0,5
4:45.019,102607,t,0,0,5
4:45.075,102627,),0,0,2
4:45.464,102767,(,0,0,1
4:45.519,102787,N,0,0,0
4:45.564,102803,),0,0,1
4:45.783,102882,(,0,0,2
4:45.822,102896,t,0,0,5
4:45.900,102924,t,0,0,5
4:45.978,102952,),0,0,2
4:46.325,103077,(,0,0,1
4:46.383,103098,N,0,0,0
4:46.425,103113,),0,0,1
4:46.653,103195,(,0,0,2
4:46.694,103210,t,0,0,5
4:46.775,103239,t,0,0,5
4:46.844,103264,),0,0,2
4:47.200,103392,(,0,0,1
4:47.258,103413,N,0,0,0
4:47.297,103427,),0,0,1
4:47.514,103505,(,0,0,2
4:47.558,103521,t,0,0,0
4:47.628,103546,),0,0,2
4:48.064,103703,(,0,0,1
4:48.117,103722,N,0,0,0
4:48.161,103738,),0,0,1
4:48.381,103817,(,0,0,2
4:48.422,103832,t,0,0,5
4:48.506,103862,t,0,0,5
4:48.561,103882,),0,0,2
4:48.917,104010,(,0,0,1
4:48.975,104031,N,0,0,0
4:49.019,104047,),0,0,1
4:49.250,104130,(,0,0,2
4:49.292,104145,t,0,0,5
4:49.372,104174,t,0,0,5
4:49.447,104201,),0,0,2
4:49.806,104330,(,0,0,1
4:49.847,104345,N,0,0,0
4:49.889,104360,),0,0,1
4:50.111,104440,(,0,0,2
4:50.153,104455,t,0,0,0
4:50.214,104477,),0,0,2
4:50.633,104628,(,0,0,1
4:50.697,104651,N,0,0,0
4:50.739,104666,),0,0,1
4:50.947,104741,(,0,0,2
4:50.994,104758,t,0,0,0
4:51.069,104785,),0,0,2
4:51.469,104929,(,0,0,1
4:51.533,104952,N,0,0,0
4:51.575,104967,),0,0,1
4:51.803,105049,(,0,0,2
4:51.853,105067,t,0,0,0
4:51.919,105091,),0,0,2
4:52.325,105237,(,0,0,1
4:52.397,105263,N,0,0,0
4:52.439,105278,),0,0,1
4:52.675,105363,(,0,0,2
4:52.711,105376,t,0,0,0
4:52.772,105398,),0,0,2
4:53.200,105552,(,0,0,1
4:53.272,105578,N,0,0,0
4:53.317,105594,),0,0,1
4:53.539,105674,(,0,0,2
4:53.578,105688,t,0,0,5
4:53.653,105715,t,0,0,5
4:53.731,105743,),0,0,2
4:54.069,105865,(,0,0,1
4:54.117,105882,N,0,0,0
4:54.161,105898,),0,0,1
4:54.381,105977,(,0,0,2
4:54.425,105993,t,0,0,5
4:54.500,106020,t,0,0,5
4:54.572,106046,),0,0,2
4:54.903,106165,(,0,0,1
4:54.969,106189,N,0,0,0
4:55.011,106204,),0,0,1
4:55.236,106285,(,0,0,2
4:55.281,106301,t,0,0,0
4:55.347,106325,),0,0,2
4:55.814,106493,(,0,0,1
4:55.864,106511,N,0,0,0
4:55.908,106527,),0,0,1
4:56.128,106606,(,0,0,2
4:56.175,106623,t,0,0,0
4:56.242,106647,),0,0,2
4:56.669,106801,(,0,0,1
4:56.744,106828,N,0,0,0
4:56.789,106844,),0,0,1
4:57.006,106922,(,0,0,2
4:57.047,106937,t,0,0,5
4:57.117,106962,t,0,0,5
4:57.183,106986,),0,0,2
4:57.542,107115,(,0,0,1
4:57.606,107138,N,0,0,0
4:57.650,107154,),0,0,1
4:57.869,107233,(,0,0,2
4:57.911,107248,t,0,0,5
4:57.986,107275,t,0,0,5
4:58.061,107302,),0,0,2
4:58.406,107426,(,0,0,1
4:58.464,107447,N,0,0,0
4:58.506,107462,),0,0,1
4:58.714,107537,(,0,0,2
4:58.758,107553,t,0,0,5
4:58.839,107582,t,0,0,5
4:58.917,107610,),0,0,2
4:59.275,107739,(,0,0,1
4:59.339,107762,N,0,0,0
4:59.381,107777,),0,0,1
4:59.594,107854,(,0,0,2
4:59.636,107869,t,0,0,0
4:59.708,107895,),0,0,2
5:00.169,108061,(,0,0,1
5:00.225,108081,N,0,0,0
5:00.267,108096,),0,0,1
5:00.478,108172,(,0,0,2
5:00.517,108186,t,0,0,5
5:00.597,108215,t,0,0,5
5:00.664,108239,),0,0,2
5:01.031,108371,(,0,0,1
5:01.078,108388,N,0,0,0
5:01.122,108404,),0,0,1
5:01.333,108480,(,0,0,2
5:01.378,108496,t,0,0,5
5:01.450,108522,t,0,0,5
5:01.514,108545,),0,0,2
5:01.892,108681,(,0,0,1
5:01.958,108705,N,0,0,0
5:02.003,108721,),0,0,1
5:02.231,108803,(,0,0,2
5:02.269,108817,t,0,0,0
5:02.333,108840,),0,0,2
5:02.786,109003,(,0,0,1
5:02.850,109026,N,0,0,0
5:02.892,109041,),0,0,1
5:03.108,109119,(,0,0,2
5:03.153,109135,t,0,0,0
5:03.219,109159,),0,0,2
5:03.661,109318,(,0,0,1
5:03.719,109339,N,0,0,0
5:03.761,109354,),0,0,1
5:03.978,109432,(,0,0,2
5:04.025,109449,t,0,0,5
5:04.100,109476,t,0,0,5
5:04.169,109501,),0,0,2
5:04.528,109630,(,0,0,1
5:04.592,109653,N,0,0,0
5:04.633,109668,),0,0,1
5:04.867,109752,(,0,0,2
5:04.908,109767,t,0,0,5
5:04.983,109794,t,0,0,5
5:05.053,109819,),0,0,2
5:05.392,109941,(,0,0,1
5:05.461,109966,N,0,0,0
5:05.503,109981,),0,0,1
5:05.733,110064,(,0,0,2
5:05.772,110078,t,0,0,5
5:05.850,110106,t,0,0,5
5:05.919,110131,),0,0,2
5:06.247,110249,(,0,0,1
5:06.317,110274,N,0,0,0
5:06.358,110289,),0,0,1
5:06.589,110372,(,0,0,2
5:06.633,110388,t,0,0,5
5:06.719,110419,t,0,0,5
5:06.783,110442,),0,0,2
5:07.106,110558,(,0,0,1
5:07.167,110580,N,0,0,0
5:07.206,110594,),0,0,1
5:07.428,110674,(,0,0,2
5:07.472,110690,t,0,0,0
5:07.542,110715,),0,0,2
5:07.947,110861,(,0,0,1
5:08.003,110881,N,0,0,0
5:08.042,110895,),0,0,1
5:08.261,110974,(,0,0,2
5:08.306,110990,t,0,0,5
5:08.381,111017,t,0,0,5
5:08.450,111042,),0,0,2
5:08.786,111163,(,0,0,1
5:08.847,111185,N,0,0,0
5:08.892,111201,),0,0,1
5:09.097,111275,(,0,0,2
5:09.117,111282,t,0,0,4
5:09.169,111301,t,0,0,4
5:09.225,111321,),0,0,2
5:09.644,111472,(,0,0,1
5:09.703,111493,N,0,0,0
5:09.747,111509,),0,0,1
5:09.922,111572,(,0,0,2
5:09.956,111584,t,0,0,4
5:10.008,111603,t,0,0,4
5:10.075,111627,),0,0,2
5:10.494,111778,(,0,0,1
5:10.525,111789,N,0,0,0
5:10.567,111804,),0,0,1
5:10.739,111866,(,0,0,2
5:10.778,111880,t,0,0,4
5:10.833,111900,t,0,0,4
5:10.892,111921,),0,0,2
5:11.311,112072,(,0,0,1
5:11.381,112097,N,0,0,0
5:11.422,112112,),0,0,1
5:11.633,112188,(,0,0,2
5:11.678,112204,t,0,0,0
5:11.750,112230,),0,0,2
5:12.181,112385,(,0,0,1
5:12.233,112404,N,0,0,0
5:12.275,112419,),0,0,1
5:12.486,112495,(,0,0,2
5:12.533,112512,t,0,0,0
5:12.608,112539,),0,0,2
5:13.044,112696,(,0,0,1
5:13.103,112717,N,0,0,0
5:13.142,112731,),0,0,1
5:13.350,112806,(,0,0,2
5:13.403,112825,t,0,0,0
5:13.472,112850,),0,0,2
5:13.883,112998,(,0,0,1
5:13.956,113024,N,0,0,0
5:14.000,113040,),0,0,1
5:14.211,113116,(,0,0,2
5:14.250,113130,t,0,0,5
5:14.333,113160,t,0,0,5
5:14.414,113189,),0,0,2
5:14.714,113297,(,0,0,1
5:14.786,113323,N,0,0,0
5:14.831,113339,),0,0,1
5:15.044,113416,(,0,0,2
5:15.086,113431,t,0,0,5
5:15.169,113461,t,0,0,5
5:15.253,113491,),0,0,2
5:15.608,113619,(,0,0,1
5:15.639,113630,N,0,0,0
5:15.681,113645,),0,0,1
5:15.894,113722,(,0,0,2
5:15.947,113741,t,0,0,0
5:16.019,113767,),0,0,2
5:16.469,113929,(,0,0,1
5:16.500,113940,N,0,0,0
5:16.542,113955,),0,0,1
5:16.731,114023,(,0,0,2
5:16.800,114048,t,0,0,0
5:16.867,114072,),0,0,2
5:17.283,114222,(,0,0,1
5:17.331,114239,N,0,0,0
5:17.372,114254,),0,0,1
5:17.581,114329,(,0,0,2
5:17.622,114344,t,0,0,5
5:17.711,114376,t,0,0,5
5:17.778,114400,),0,0,2
5:18.081,114509,(,0,0,1
5:18.156,114536,N,0,0,0
5:18.197,114551,),0,0,1
5:18.336,114601,t,0,0,2
5:18.442,114639,),0,0,2
5:18.669,114721,(,0,0,1
5:18.703,114733,N,0,0,0
5:18.742,114747,),0,0,1
5:18.825,114777,(,0,0,2
5:18.986,114835,t,0,0,0
5:19.053,114859,),0,0,2
5:19.622,115064,(,0,0,1
5:19.694,115090,N,0,0,0
5:19.736,115105,),0,0,1
5:19.958,115185,(,0,0,2
5:20.006,115202,t,0,0,0
5:20.072,115226,),0,0,2
5:20.486,115375,(,0,0,1
5:20.553,115399,N,0,0,0
5:20.592,115413,),0,0,1
5:20.800,115488,(,0,0,2
5:20.844,115504,t,0,0,0
5:20.908,115527,),0,0,2
5:21.347,115685,(,0,0,1
5:21.411,115708,N,0,0,0
5:21.450,115722,),0,0,1
5:21.664,115799,(,0,0,2
5:21.714,115817,t,0,0,5
5:21.800,115848,t,0,0,5
5:21.872,115874,),0,0,2
5:22.147,115973,(,0,0,1
5:22.178,115984,N,0,0,0
5:22.219,115999,),0,0,1
5:22.550,116118,(,0,0,1
5:22.600,116136,N,0,0,0
5:22.642,116151,),0,0,1
5:22.817,116214,(,0,0,2
5:22.869,116233,t,0,0,0
5:22.931,116255,),0,0,2
5:23.456,116444,(,0,0,1
5:23.492,116457,N,0,0,0
5:23.531,116471,),0,0,1
5:23.703,116533,(,0,0,2
5:23.744,116548,t,0,0,4
5:23.811,116572,t,0,0,4
5:23.864,116591,),0,0,2
5:24.325,116757,(,0,0,1
5:24.386,116779,N,0,0,0
5:24.425,116793,),0,0,1
5:24.608,116859,(,0,0,2
5:24.639,116870,t,0,0,4
5:24.697,116891,t,0,0,4
5:24.753,116911,),0,0,2
5:25.153,117055,(,0,0,1
5:25.222,117080,N,0,0,0
5:25.261,117094,),0,0,1
5:25.494,117178,(,0,0,2
5:25.531,117191,t,0,0,5
5:25.608,117219,t,0,0,5
5:25.681,117245,),0,0,2
5:26.017,117366,(,0,0,1
5:26.078,117388,N,0,0,0
5:26.119,117403,),0,0,1
5:26.342,117483,(,0,0,2
5:26.381,117497,t,0,0,5
5:26.467,117528,t,0,0,5
5:26.539,117554,),0,0,2
5:26.883,117678,(,0,0,1
5:26.942,117699,N,0,0,0
5:26.983,117714,),0,0,1
5:27.175,117783,(,0,0,2
5:27.239,117806,t,0,0,5
5:27.325,117837,t,0,0,5
5:27.389,117860,),0,0,2
5:27.719,117979,(,0,0,1
5:27.781,118001,N,0,0,0
5:27.819,118015,),0,0,1
5:28.036,118093,(,0,0,2
5:28.083,118110,t,0,0,5
5:28.172,118142,t,0,0,5
5:28.244,118168,),0,0,2
5:28.597,118295,(,0,0,1
5:28.669,118321,N,0,0,0
5:28.711,118336,),0,0,1
5:28.922,118412,(,0,0,2
5:28.967,118428,t,0,0,5
5:29.047,118457,t,0,0,5
5:29.114,118481,),0,0,2
5:29.467,118608,(,0,0,1
5:29.533,118632,N,0,0,0
5:29.575,118647,),0,0,1
5:29.789,118724,(,0,0,2
5:29.825,118737,t,0,0,5
5:29.906,118766,t,0,0,5
5:29.983,118794,),0,0,2
5:30.325,118917,(,0,0,1
5:30.386,118939,N,0,0,0
5:30.428,118954,),0,0,1
5:30.633,119028,(,0,0,2
5:30.686,119047,t,0,0,5
5:30.775,119079,t,0,0,5
5:30.850,119106,),0,0,2
5:31.181,119225,(,0,0,1
5:31.247,119249,N,0,0,0
5:31.286,119263,),0,0,1
5:31.481,119333,(,0,0,2
5:31.528,119350,t,0,0,0
5:31.600,119376,),0,0,2
5:32.017,119526,(,0,0,1
5:32.083,119550,N,0,0,0
5:32.125,119565,),0,0,1
5:32.231,119603,(,0,0,2
5:32.378,119656,t,0,0,5
5:32.464,119687,t,0,0,5
5:32.547,119717,),0,0,2
5:32.886,119839,(,0,0,1
5:32.931,119855,N,0,0,0
5:32.972,119870,),0,0,1
5:33.169,119941,(,0,0,2
5:33.217,119958,t,0,0,5
5:33.303,119989,t,0,0,5
5:33.383,120018,),0,0,2
5:33.731,120143,(,0,0,1
5:33.761,120154,N,0,0,0
5:33.803,120169,),0,0,1
5:34.003,120241,(,0,0,2
5:34.044,120256,t,0,0,0
5:34.092,120273,),0,0,2
5:34.253,120331,(,0,0,1
5:34.283,120342,N,0,0,0
5:34.322,120356,),0,0,1
5:34.389,120380,(,0,0,2
5:34.553,120439,t,0,0,0
5:34.614,120461,),0,0,2
5:35.228,120682,(,0,0,1
5:35.292,120705,N,0,0,0
5:35.333,120720,),0,0,1
5:35.556,120800,(,0,0,2
5:35.600,120816,t,0,0,0
5:35.669,120841,),0,0,2
5:36.131,121007,(,0,0,1
5:36.192,121029,N,0,0,0
5:36.233,121044,),0,0,1
5:36.444,121120,(,0,0,2
5:36.486,121135,t,0,0,5
5:36.561,121162,t,0,0,5
5:36.625,121185,),0,0,2
5:36.956,121304,(,0,0,1
5:37.025,121329,N,0,0,0
5:37.067,121344,),0,0,1
5:37.278,121420,(,0,0,2
5:37.319,121435,t,0,0,5
5:37.403,121465,t,0,0,5
5:37.478,121492,),0,0,2
5:37.789,121604,(,0,0,1
5:37.864,121631,N,0,0,0
5:37.906,121646,),0,0,1
5:38.122,121724,(,0,0,2
5:38.161,121738,t,0,0,5
5:38.239,121766,t,0,0,5
5:38.314,121793,),0,0,2
5:38.658,121917,(,0,0,1
5:38.706,121934,N,0,0,0
5:38.747,121949,),0,0,1
5:38.956,122024,(,0,0,2
5:39.014,122045,t,0,0,5
5:39.103,122077,t,0,0,5
5:39.169,122101,),0,0,2
5:39.475,122211,(,0,0,1
5:39.542,122235,N,0,0,0
5:39.583,122250,),0,0,1
5:39.800,122328,(,0,0,2
5:39.844,122344,t,0,0,5
5:39.931,122375,t,0,0,5
5:39.989,122396,),0,0,2
5:40.325,122517,(,0,0,1
5:40.375,122535,N,0,0,0
5:40.417,122550,),0,0,1
5:40.631,122627,(,0,0,2
5:40.669,122641,t,0,0,5
5:40.744,122668,t,0,0,5
5:40.819,122695,),0,0,2
5:41.125,122805,(,0,0,1
5:41.203,122833,N,0,0,0
5:41.250,122850,),0,0,1
5:41.467,122928,(,0,0,2
5:41.508,122943,t,0,0,5
5:41.586,122971,t,0,0,5
5:41.669,123001,),0,0,2
5:42.008,123123,(,0,0,1
5:42.042,123135,N,0,0,0
5:42.083,123150,),0,0,1
5:42.278,123220,(,0,0,2
5:42.328,123238,t,0,0,5
5:42.414,123269,t,0,0,5
5:42.503,123301,),0,0,2
5:42.836,123421,(,0,0,1
5:42.869,123433,N,0,0,0
5:42.914,123449,),0,0,1
5:43.097,123515,(,0,0,2
5:43.156,123536,t,0,0,5
5:43.244,123568,t,0,0,5
5:43.317,123594,),0,0,2
5:43.622,123704,(,0,0,1
5:43.686,123727,N,0,0,0
5:43.728,123742,),0,0,1
5:43.936,123817,(,0,0,2
5:43.986,123835,t,0,0,5
5:44.078,123868,t,0,0,5
5:44.139,123890,),0,0,2
5:44.475,124011,(,0,0,1
5:44.508,124023,N,0,0,0
5:44.550,124038,),0,0,1
5:44.758,124113,(,0,0,2
5:44.808,124131,t,0,0,5
5:44.894,124162,t,0,0,5
5:44.961,124186,),0,0,2
5:45.314,124313,(,0,0,1
5:45.347,124325,N,0,0,0
5:45.389,124340,),0,0,1
5:45.606,124418,(,0,0,2
5:45.653,124435,t,0,0,5
5:45.739,124466,t,0,0,5
5:45.817,124494,),0,0,2
5:46.122,124604,(,0,0,1
5:46.175,124623,N,0,0,0
5:46.217,124638,),0,0,1
5:46.417,124710,(,0,0,2
5:46.464,124727,t,0,0,5
5:46.550,124758,t,0,0,5
5:46.622,124784,),0,0,2
5:46.928,124894,(,0,0,1
5:46.994,124918,N,0,0,0
5:47.036,124933,),0,0,1
5:47.239,125006,(,0,0,2
5:47.286,125023,t,0,0,0
5:47.358,125049,),0,0,2
5:47.761,125194,(,0,0,1
5:47.831,125219,N,0,0,0
5:47.872,125234,),0,0,1
5:48.106,125318,(,0,0,2
5:48.147,125333,t,0,0,5
5:48.228,125362,t,0,0,5
5:48.308,125391,),0,0,2
5:48.619,125503,(,0,0,1
5:48.683,125526,N,0,0,0
5:48.725,125541,),0,0,1
5:48.947,125621,(,0,0,2
5:48.989,125636,t,0,0,5
5:49.067,125664,t,0,0,5
5:49.144,125692,),0,0,2
5:49.456,125804,(,0,0,1
5:49.528,125830,N,0,0,0
5:49.569,125845,),0,0,1
5:49.789,125924,(,0,0,2
5:49.828,125938,t,0,0,5
5:49.908,125967,t,0,0,5
5:49.986,125995,),0,0,2
5:50.322,126116,(,0,0,1
5:50.394,126142,N,0,0,0
5:50.433,126156,),0,0,1
5:50.644,126232,(,0,0,2
5:50.694,126250,t,0,0,5
5:50.772,126278,t,0,0,5
5:50.839,126302,),0,0,2
5:51.197,126431,(,0,0,1
5:51.275,126459,N,0,0,0
5:51.319,126475,),0,0,1
5:51.533,126552,(,0,0,2
5:51.578,126568,t,0,0,5
5:51.656,126596,t,0,0,5
5:51.728,126622,),0,0,2
5:52.169,126781,(,0,0,1
5:52.200,126792,N,0,0,0
5:52.244,126808,),0,0,1
5:52.461,126886,(,0,0,2
5:52.500,126900,t,0,0,5
5:52.578,126928,t,0,0,5
5:52.656,126956,),0,0,2
5:53.028,127090,(,0,0,1
5:53.092,127113,N,0,0,0
5:53.131,127127,),0,0,1
5:53.344,127204,(,0,0,2
5:53.389,127220,t,0,0,5
5:53.469,127249,t,0,0,5
5:53.531,127271,),0,0,2
5:53.894,127402,(,0,0,1
5:53.964,127427,N,0,0,0
5:54.006,127442,),0,0,1
5:54.233,127524,(,0,0,2
5:54.272,127538,t,0,0,5
5:54.353,127567,t,0,0,5
5:54.419,127591,),0,0,2
5:54.797,127727,(,0,0,1
5:54.869,127753,N,0,0,0
5:54.911,127768,),0,0,1
5:55.125,127845,(,0,0,2
5:55.164,127859,t,0,0,5
5:55.244,127888,t,0,0,5
5:55.325,127917,),0,0,2
5:55.697,128051,(,0,0,1
5:55.736,128065,N,0,0,0
5:55.781,128081,),0,0,1
5:55.986,128155,(,0,0,2
5:56.025,128169,t,0,0,5
5:56.106,128198,t,0,0,5
5:56.189,128228,),0,0,2
5:56.514,128345,(,0,0,1
5:56.583,128370,N,0,0,0
5:56.628,128386,),0,0,1
5:56.850,128466,(,0,0,2
5:56.894,128482,t,0,0,5
5:56.981,128513,t,0,0,5
5:57.053,128539,),0,0,2
5:57.389,128660,(,0,0,1
5:57.461,128686,N,0,0,0
5:57.503,128701,),0,0,1
5:57.722,128780,(,0,0,2
5:57.764,128795,t,0,0,5
5:57.847,128825,t,0,0,5
5:57.919,128851,),0,0,2
5:58.264,128975,(,0,0,1
5:58.339,129002,N,0,0,0
5:58.381,129017,),0,0,1
5:58.603,129097,(,0,0,2
5:58.644,129112,t,0,0,5
5:58.722,129140,t,0,0,5
5:58.800,129168,),0,0,2
5:59.131,129287,(,0,0,1
5:59.200,129312,N,0,0,0
5:59.242,129327,),0,0,1
5:59.464,129407,(,0,0,2
5:59.500,129420,t,0,0,5
5:59.578,129448,t,0,0,5
5:59.653,129475,),0,0,2
6:00.022,129608,(,0,0,1
6:00.056,129620,N,0,0,0
6:00.097,129635,),0,0,1
6:00.325,129717,(,0,0,2
6:00.364,129731,t,0,0,5
6:00.447,129761,t,0,0,5
6:00.525,129789,),0,0,2
6:00.864,129911,(,0,0,1
6:00.942,129939,N,0,0,0
6:00.986,129955,),0,0,1
6:01.208,130035,(,0,0,2
6:01.253,130051,t,0,0,5
6:01.342,130083,t,0,0,5
6:01.403,130105,),0,0,2
6:01.803,130249,(,0,0,1
6:01.833,130260,N,0,0,0
6:01.875,130275,),0,0,1
6:02.097,130355,(,0,0,2
6:02.136,130369,t,0,0,5
6:02.217,130398,t,0,0,5
6:02.286,130423,),0,0,2
6:02.631,130547,(,0,0,1
6:02.703,130573,N,0,0,0
6:02.744,130588,),0,0,1
6:02.972,130670,(,0,0,2
6:03.006,130682,t,0,0,5
6:03.081,130709,t,0,0,5
6:03.158,130737,),0,0,2
6:03.542,130875,(,0,0,1
6:03.575,130887,N,0,0,0
6:03.619,130903,),0,0,1
6:03.828,130978,(,0,0,2
6:03.867,130992,t,0,0,5
6:03.950,131022,t,0,0,5
6:04.033,131052,),0,0,2
6:04.397,131183,(,0,0,1
6:04.453,131203,N,0,0,0
6:04.494,131218,),0,0,1
6:04.708,131295,(,0,0,2
6:04.753,131311,t,0,0,5
6:04.839,131342,t,0,0,5
6:04.922,131372,),0,0,2
6:05.272,131498,(,0,0,1
6:05.350,131526,N,0,0,0
6:05.392,131541,),0,0,1
6:05.608,131619,(,0,0,2
6:05.650,131634,t,0,0,5
6:05.736,131665,t,0,0,5
6:05.797,131687,),0,0,2
6:06.203,131833,(,0,0,1
6:06.244,131848,N,0,0,0
6:06.283,131862,),0,0,1
6:06.506,131942,(,0,0,2
6:06.544,131956,t,0,0,0
6:06.606,131978,),0,0,2
6:07.100,132156,(,0,0,1
6:07.172,132182,N,0,0,0
6:07.214,132197,),0,0,1
6:07.406,132266,(,0,0,2
6:07.436,132277,t,0,0,4
6:07.486,132295,t,0,0,4
6:07.550,132318,),0,0,2
6:08.072,132506,(,0,0,1
6:08.131,132527,N,0,0,0
6:08.169,132541,),0,0,1
6:08.394,132622,(,0,0,2
6:08.436,132637,t,0,0,5
6:08.514,132665,t,0,0,5
6:08.594,132694,),0,0,2
6:08.997,132839,(,0,0,1
6:09.053,132859,N,0,0,0
6:09.094,132874,),0,0,1
6:09.317,132954,(,0,0,2
6:09.361,132970,t,0,0,5
6:09.442,132999,t,0,0,5
6:09.511,133024,),0,0,2
6:09.914,133169,(,0,0,1
6:09.975,133191,N,0,0,0
6:10.017,133206,),0,0,1
6:10.228,133282,(,0,0,2
6:10.267,133296,t,0,0,5
6:10.342,133323,t,0,0,5
6:10.414,133349,),0,0,2
6:10.808,133491,(,0,0,1
6:10.872,133514,N,0,0,0
6:10.914,133529,),0,0,1
6:11.139,133610,(,0,0,2
6:11.175,133623,t,0,0,5
6:11.256,133652,t,0,0,5
6:11.342,133683,),0,0,2
6:11.733,133824,(,0,0,1
6:11.792,133845,N,0,0,0
6:11.831,133859,),0,0,1
6:12.047,133937,(,0,0,2
6:12.094,133954,t,0,0,5
6:12.178,133984,t,0,0,5
6:12.239,134006,),0,0,2
6:12.639,134150,(,0,0,1
6:12.694,134170,N,0,0,0
6:12.739,134186,),0,0,1
6:12.950,134262,(,0,0,2
6:12.992,134277,t,0,0,5
6:13.069,134305,t,0,0,5
6:13.150,134334,),0,0,2
6:13.531,134471,(,0,0,1
6:13.592,134493,N,0,0,0
6:13.636,134509,),0,0,1
6:13.869,134593,(,0,0,2
6:13.908,134607,t,0,0,5
6:13.989,134636,t,0,0,5
6:14.075,134667,),0,0,2
6:14.436,134797,(,0,0,1
6:14.489,134816,N,0,0,0
6:14.533,134832,),0,0,1
6:14.761,134914,(,0,0,2
6:14.803,134929,t,0,0,5
6:14.883,134958,t,0,0,5
6:14.947,134981,),0,0,2
6:15.308,135111,(,0,0,1
6:15.372,135134,N,0,0,0
6:15.411,135148,),0,0,1
6:15.631,135227,(,0,0,2
6:15.672,135242,t,0,0,0
6:15.739,135266,),0,0,2
6:16.203,135433,(,0,0,1
6:16.264,135455,N,0,0,0
6:16.306,135470,),0,0,1
6:16.531,135551,(,0,0,2
6:16.575,135567,t,0,0,5
6:16.658,135597,t,0,0,5
6:16.733,135624,),0,0,2
6:17.078,135748,(,0,0,1
6:17.147,135773,N,0,0,0
6:17.194,135790,),0,0,1
6:17.419,135871,(,0,0,2
6:17.461,135886,t,0,0,0
6:17.519,135907,),0,0,2
6:17.983,136074,(,0,0,1
6:18.050,136098,N,0,0,0
6:18.092,136113,),0,0,1
6:18.319,136195,(,0,0,2
6:18.358,136209,t,0,0,5
6:18.436,136237,t,0,0,5
6:18.506,136262,),0,0,2
6:18.875,136395,(,0,0,1
6:18.933,136416,N,0,0,0
6:18.975,136431,),0,0,1
6:19.186,136507,(,0,0,2
6:19.233,136524,t,0,0,5
6:19.317,136554,t,0,0,5
6:19.394,136582,),0,0,2
6:19.744,136708,(,0,0,1
6:19.806,136730,N,0,0,0
6:19.847,136745,),0,0,1
6:20.067,136824,(,0,0,2
6:20.108,136839,t,0,0,5
6:20.189,136868,t,0,0,5
6:20.261,136894,),0,0,2
6:20.644,137032,(,0,0,1
6:20.708,137055,N,0,0,0
6:20.750,137070,),0,0,1
6:20.967,137148,(,0,0,2
6:21.008,137163,t,0,0,5
6:21.083,137190,t,0,0,5
6:21.164,137219,),0,0,2
6:21.511,137344,(,0,0,1
6:21.581,137369,N,0,0,0
6:21.622,137384,),0,0,1
6:21.833,137460,(,0,0,2
6:21.875,137475,t,0,0,5
6:21.942,137499,t,0,0,5
6:22.025,137529,),0,0,2
6:22.372,137654,(,0,0,1
6:22.428,137674,N,0,0,0
6:22.469,137689,),0,0,1
6:22.683,137766,(,0,0,2
6:22.728,137782,t,0,0,5
6:22.822,137816,t,0,0,5
6:22.897,137843,),0,0,2
6:23.244,137968,(,0,0,1
6:23.308,137991,N,0,0,0
6:23.347,138005,),0,0,1
6:23.567,138084,(,0,0,2
6:23.611,138100,t,0,0,5
6:23.697,138131,t,0,0,5
6:23.769,138157,),0,0,2
6:24.125,138285,(,0,0,1
6:24.183,138306,N,0,0,0
6:24.225,138321,),0,0,1
6:24.456,138404,(,0,0,2
6:24.497,138419,t,0,0,0
6:24.561,138442,),0,0,2
6:24.981,138593,(,0,0,1
6:25.042,138615,N,0,0,0
6:25.083,138630,),0,0,1
6:25.317,138714,(,0,0,2
6:25.356,138728,t,0,0,5
6:25.431,138755,t,0,0,5
6:25.511,138784,),0,0,2
6:25.842,138903,(,0,0,1
6:25.903,138925,N,0,0,0
6:25.944,138940,),0,0,1
6:26.161,139018,(,0,0,2
6:26.203,139033,t,0,0,5
6:26.286,139063,t,0,0,5
6:26.358,139089,),0,0,2
6:26.714,139217,(,0,0,1
6:26.781,139241,N,0,0,0
6:26.819,139255,),0,0,1
6:27.050,139338,(,0,0,2
6:27.092,139353,t,0,0,5
6:27.183,139386,t,0,0,5
6:27.250,139410,),0,0,2
6:27.603,139537,(,0,0,1
6:27.658,139557,N,0,0,0
6:27.700,139572,),0,0,1
6:27.928,139654,(,0,0,2
6:27.972,139670,t,0,0,0
6:28.036,139693,),0,0,2
6:28.478,139852,(,0,0,1
6:28.536,139873,N,0,0,0
6:28.578,139888,),0,0,1
6:28.806,139970,(,0,0,2
6:28.844,139984,t,0,0,0
6:28.908,140007,),0,0,2
6:29.347,140165,(,0,0,1
6:29.414,140189,N,0,0,0
6:29.458,140205,),0,0,1
6:29.639,140270,(,0,0,2
6:29.669,140281,t,0,0,4
6:29.722,140300,t,0,0,4
6:29.783,140322,),0,0,2
6:30.211,140476,(,0,0,1
6:30.278,140500,N,0,0,0
6:30.319,140515,),0,0,1
6:30.542,140595,(,0,0,2
6:30.586,140611,t,0,0,5
6:30.672,140642,t,0,0,5
6:30.728,140662,),0,0,2
6:31.111,140800,(,0,0,1
6:31.172,140822,N,0,0,0
6:31.214,140837,),0,0,1
6:31.428,140914,(,0,0,2
6:31.475,140931,t,0,0,5
6:31.550,140958,t,0,0,5
6:31.631,140987,),0,0,2
6:31.986,141115,(,0,0,1
6:32.050,141138,N,0,0,0
6:32.092,141153,),0,0,1
6:32.317,141234,(,0,0,2
6:32.353,141247,t,0,0,0
6:32.411,141268,),0,0,2
6:32.858,141429,(,0,0,1
6:32.917,141450,N,0,0,0
6:32.961,141466,),0,0,1
6:33.161,141538,(,0,0,2
6:33.183,141546,t,0,0,4
6:33.233,141564,t,0,0,4
6:33.297,141587,),0,0,2
6:33.753,141751,(,0,0,1
6:33.814,141773,N,0,0,0
6:33.858,141789,),0,0,1
6:34.069,141865,(,0,0,2
6:34.114,141881,t,0,0,5
6:34.197,141911,t,0,0,5
6:34.267,141936,),0,0,2
6:34.619,142063,(,0,0,1
6:34.683,142086,N,0,0,0
6:34.725,142101,),0,0,1
6:34.939,142178,(,0,0,2
6:34.978,142192,t,0,0,5
6:35.058,142221,t,0,0,5
6:35.122,142244,),0,0,2
6:35.481,142373,(,0,0,1
6:35.542,142395,N,0,0,0
6:35.583,142410,),0,0,1
6:35.806,142490,(,0,0,2
6:35.847,142505,t,0,0,5
6:35.925,142533,t,0,0,5
6:36.006,142562,),0,0,2
6:36.361,142690,(,0,0,1
6:36.436,142717,N,0,0,0
6:36.450,142722,),0,0,1
6:36.667,142800,(,0,0,2
6:36.708,142815,t,0,0,5
6:36.781,142841,t,0,0,5
6:36.858,142869,),0,0,2
6:37.208,142995,(,0,0,1
6:37.264,143015,N,0,0,0
6:37.308,143031,),0,0,1
6:37.533,143112,(,0,0,2
6:37.575,143127,t,0,0,0
6:37.642,143151,),0,0,2
6:38.069,143305,(,0,0,1
6:38.125,143325,N,0,0,0
6:38.164,143339,),0,0,1
6:38.375,143415,(,0,0,2
6:38.419,143431,t,0,0,0
6:38.486,143455,),0,0,2
6:38.908,143607,(,0,0,1
6:38.961,143626,N,0,0,0
6:39.003,143641,),0,0,1
6:39.206,143714,(,0,0,2
6:39.256,143732,t,0,0,0
6:39.325,143757,),0,0,2
6:39.731,143903,(,0,0,1
6:39.794,143926,N,0,0,0
6:39.836,143941,),0,0,1
6:40.058,144021,(,0,0,2
6:40.100,144036,t,0,0,5
6:40.189,144068,t,0,0,5
6:40.269,144097,),0,0,2
6:40.583,144210,(,0,0,1
6:40.675,144243,N,0,0,0
6:40.692,144249,),0,0,1
6:40.828,144298,t,0,0,2
6:40.942,144339,),0,0,2
6:41.147,144413,(,0,0,1
6:41.203,144433,N,0,0,0
6:41.219,144439,),0,0,1
6:41.389,144500,(,0,0,2
6:41.450,144522,t,0,0,0
6:41.511,144544,),0,0,2
6:42.067,144744,(,0,0,1
6:42.119,144763,N,0,0,0
6:42.161,144778,),0,0,1
6:42.386,144859,(,0,0,2
6:42.433,144876,t,0,0,0
6:42.497,144899,),0,0,2
6:42.950,145062,(,0,0,1
6:42.986,145075,N,0,0,0
6:43.031,145091,),0,0,1
6:43.236,145165,(,0,0,2
6:43.278,145180,t,0,0,0
6:43.356,145208,),0,0,2
6:43.781,145361,(,0,0,1
6:43.842,145383,N,0,0,0
6:43.883,145398,),0,0,1
6:44.089,145472,(,0,0,2
6:44.142,145491,t,0,0,5
6:44.236,145525,t,0,0,5
6:44.317,145554,),0,0,2
6:44.661,145678,(,0,0,1
6:44.694,145690,N,0,0,0
6:44.725,145701,),0,0,1
6:44.939,145778,(,0,0,2
6:44.978,145792,t,0,0,5
6:45.089,145832,t,0,0,5
6:45.128,145846,),0,0,2
6:45.475,145971,(,0,0,1
6:45.511,145984,N,0,0,0
6:45.550,145998,),0,0,1
6:45.675,146043,(,0,0,2
6:45.797,146087,t,0,0,5
6:45.897,146123,t,0,0,5
6:45.947,146141,),0,0,2
6:46.286,146263,(,0,0,1
6:46.319,146275,N,0,0,0
6:46.361,146290,),0,0,1
6:46.469,146329,(,0,0,2
6:46.617,146382,t,0,0,5
6:46.728,146422,t,0,0,5
6:46.792,146445,),0,0,2
6:47.081,146549,(,0,0,1
6:47.169,146581,N,0,0,0
6:47.186,146587,),0,0,1
6:47.292,146625,(,0,0,2
6:47.428,146674,t,0,0,5
6:47.531,146711,t,0,0,5
6:47.606,146738,),0,0,2
6:47.886,146839,(,0,0,1
6:47.969,146869,N,0,0,0
6:47.983,146874,),0,0,1
6:48.064,146903,t,0,0,2
6:48.203,146953,),0,0,2
6:48.478,147052,(,0,0,1
6:48.533,147072,N,0,0,0
6:48.550,147078,),0,0,1
6:48.631,147107,(,0,0,2
6:48.769,147157,t,0,0,0
6:48.847,147185,),0,0,2
6:49.072,147266,(,0,0,1
6:49.128,147286,N,0,0,0
6:49.144,147292,),0,0,1
6:49.394,147382,(,0,0,2
6:49.478,147412,t,0,0,1
6:49.539,147434,),0,0,2
6:50.419,147751,(,0,0,1
6:50.475,147771,N,0,0,0
6:50.492,147777,),0,0,1
6:50.717,147858,(,0,0,2
6:50.767,147876,t,0,0,0
6:50.856,147908,),0,0,2
6:51.208,148035,(,0,0,1
6:51.289,148064,N,0,0,0
6:51.306,148070,),0,0,1
6:51.522,148148,(,0,0,2
6:51.561,148162,t,0,0,0
6:51.633,148188,),0,0,2
6:51.844,148264,(,0,0,1
6:51.897,148283,N,0,0,0
6:51.914,148289,),0,0,1
6:52.061,148342,(,0,0,2
6:52.136,148369,t,0,0,0
6:52.214,148397,),0,0,2
6:52.256,148412,(,0,0,1
6:52.314,148433,N,0,0,0
6:52.331,148439,),0,0,1
6:52.425,148473,(,0,0,2
6:52.481,148493,t,0,0,0
6:52.517,148506,),0,0,2
6:52.636,148549,(,0,0,1
6:52.700,148572,N,0,0,0
6:52.717,148578,),0,0,1
6:52.844,148624,(,0,0,2
6:52.878,148636,t,0,0,4
6:52.961,148666,t,0,0,4
6:52.992,148677,),0,0,2
6:53.256,148772,(,0,0,1
6:53.314,148793,N,0,0,0
6:53.333,148800,),0,0,1
6:53.533,148872,(,0,0,2
6:53.578,148888,t,0,0,0
6:53.650,148914,),0,0,2
6:54.158,149097,(,0,0,1
6:54.219,149119,N,0,0,0
6:54.236,149125,),0,0,1
6:54.453,149203,(,0,0,2
6:54.497,149219,t,0,0,0
6:54.567,149244,),0,0,2
6:55.019,149407,(,0,0,1
6:55.078,149428,N,0,0,0
6:55.097,149435,),0,0,1
6:55.300,149508,(,0,0,2
6:55.339,149522,t,0,0,0
6:55.397,149543,),0,0,2
6:55.564,149603,(,0,0,1
6:55.619,149623,N,0,0,0
6:55.639,149630,),0,0,1
6:55.958,149745,(,0,0,1
6:56.019,149767,N,0,0,0
6:56.036,149773,),0,0,1
6:56.144,149812,(,0,0,2
6:56.250,149850,t,0,0,0
6:56.300,149868,),0,0,2
6:56.342,149883,(,0,0,1
6:56.403,149905,N,0,0,0
6:56.419,149911,),0,0,1
6:56.600,149976,(,0,0,2
6:56.653,149995,t,0,0,0
6:56.700,150012,),0,0,2
6:57.586,150331,(,0,0,1
6:57.642,150351,N,0,0,0
6:57.658,150357,),0,0,1
6:57.872,150434,(,0,0,2
6:57.917,150450,t,0,0,0
6:57.969,150469,),0,0,2
6:58.492,150657,(,0,0,1
6:58.583,150690,N,0,0,0
6:58.600,150696,),0,0,1
6:58.761,150754,(,0,0,2
6:58.806,150770,t,0,0,1
6:58.861,150790,),0,0,2
7:02.772,152198,(,0,0,1
7:02.828,152218,N,0,0,0
7:02.844,152224,),0,0,1
7:03.067,152304,(,0,0,2
7:03.106,152318,t,0,0,0
7:03.169,152341,),0,0,2
7:03.503,152461,(,0,0,1
7:03.561,152482,N,0,0,0
7:03.581,152489,),0,0,1
7:03.658,152517,(,0,0,2
7:03.822,152576,t,0,0,0
7:03.908,152607,),0,0,2
7:05.422,153152,(,0,0,1
7:05.511,153184,N,0,0,0
7:05.528,153190,),0,0,1
7:05.569,153205,(,0,0,2
7:05.775,153279,t,0,0,0
7:05.856,153308,),0,0,2
7:06.392,153501,(,0,0,1
7:06.458,153525,N,0,0,0
7:06.478,153532,),0,0,1
7:06.567,153564,(,0,0,2
7:06.722,153620,t,0,0,0
7:06.800,153648,),0,0,2
7:07.292,153825,(,0,0,1
7:07.350,153846,N,0,0,0
7:07.369,153853,),0,0,1
7:07.467,153888,(,0,0,2
7:07.594,153934,t,0,0,0
7:07.678,153964,),0,0,2
7:09.903,154765,(,0,0,1
7:10.006,154802,N,0,0,0
7:10.025,154809,),0,0,1
7:10.089,154832,(,0,0,2
7:10.267,154896,t,0,0,0
7:10.344,154924,),0,0,2
7:10.825,155097,(,0,0,1
7:10.889,155120,N,0,0,0
7:10.906,155126,),0,0,1
7:11.003,155161,(,0,0,2
7:11.150,155214,t,0,0,0
7:11.211,155236,),0,0,2
7:11.775,155439,(,0,0,1
7:11.839,155462,N,0,0,0
7:11.856,155468,),0,0,1
7:12.031,155531,(,0,0,2
7:12.089,155552,t,0,0,0
7:12.139,155570,),0,0,2
7:12.422,155672,(,0,0,1
7:12.483,155694,N,0,0,0
7:12.500,155700,),0,0,1
7:12.694,155770,(,0,0,2
7:12.739,155786,t,0,0,0
7:12.819,155815,),0,0,2
7:13.467,156048,(,0,0,1
7:13.561,156082,N,0,0,0
7:13.578,156088,),0,0,1
7:13.797,156167,(,0,0,2
7:13.839,156182,t,0,0,0
7:13.908,156207,),0,0,2
7:14.419,156391,(,0,0,1
7:14.508,156423,N,0,0,0
7:14.528,156430,),0,0,1
7:14.739,156506,(,0,0,2
7:14.769,156517,t,0,0,0
7:14.844,156544,),0,0,2
7:16.300,157068,(,0,0,1
7:16.364,157091,N,0,0,0
7:16.381,157097,),0,0,1
7:16.436,157117,(,0,0,2
7:16.625,157185,t,0,0,0
7:16.708,157215,),0,0,2
7:17.208,157395,(,0,0,1
7:17.297,157427,N,0,0,0
7:17.314,157433,),0,0,1
7:17.369,157453,(,0,0,2
7:17.553,157519,t,0,0,0
7:17.636,157549,),0,0,2
7:18.125,157725,(,0,0,1
7:18.214,157757,N,0,0,0
7:18.228,157762,),0,0,1
7:18.264,157775,(,0,0,2
7:18.467,157848,t,0,0,0
7:18.556,157880,),0,0,2
7:19.056,158060,(,0,0,1
7:19.142,158091,N,0,0,0
7:19.161,158098,),0,0,1
7:19.364,158171,(,0,0,2
7:19.411,158188,t,0,0,0
7:19.492,158217,),0,0,2
7:19.856,158348,(,0,0,1
7:19.908,158367,N,0,0,0
7:19.925,158373,),0,0,1
7:20.008,158403,(,0,0,2
7:20.164,158459,t,0,0,0
7:20.244,158488,),0,0,2
7:20.928,158734,(,0,0,1
7:20.983,158754,N,0,0,0
7:21.000,158760,),0,0,1
7:21.089,158792,(,0,0,2
7:21.244,158848,t,0,0,0
7:21.331,158879,),0,0,2
7:22.731,159383,(,0,0,1
7:22.817,159414,N,0,0,0
7:22.836,159421,),0,0,1
7:22.900,159444,(,0,0,2
7:23.086,159511,t,0,0,0
7:23.164,159539,),0,0,2
7:26.289,160664,(,0,0,1
7:26.386,160699,N,0,0,0
7:26.403,160705,),0,0,1
7:26.447,160721,(,0,0,2
7:26.647,160793,t,0,0,0
7:26.731,160823,),0,0,2
7:31.567,162564,(,0,0,1
7:31.661,162598,N,0,0,0
7:31.681,162605,),0,0,1
7:31.781,162641,(,0,0,2
7:31.919,162691,t,0,0,0
7:32.017,162726,),0,0,2
7:44.781,167321,(,0,0,1
7:44.881,167357,N,0,0,0
7:44.897,167363,),0,0,1
7:44.936,167377,(,0,0,2
7:45.153,167455,t,0,0,0
7:45.239,167486,),0,0,2
7:47.439,168278,(,0,0,1
7:47.533,168312,N,0,0,0
7:47.553,168319,),0,0,1
7:47.583,168330,(,0,0,2
7:47.797,168407,t,0,0,0
7:47.872,168434,),0,0,2
7:51.028,169570,(,0,0,1
7:51.089,169592,N,0,0,0
7:51.108,169599,),0,0,1
7:51.322,169676,(,0,0,2
7:51.358,169689,t,0,0,0
7:51.442,169719,),0,0,2
7:51.961,169906,(,0,0,1
7:52.019,169927,N,0,0,0
7:52.036,169933,),0,0,1
7:52.081,169949,(,0,0,2
7:52.281,170021,t,0,0,5
7:52.386,170059,t,0,0,5
7:52.472,170090,),0,0,2
7:55.608,171219,(,0,0,1
7:55.697,171251,N,0,0,0
7:55.714,171257,),0,0,1
7:55.750,171270,(,0,0,2
7:55.967,171348,t,0,0,5
7:56.067,171384,t,0,0,5
7:56.144,171412,),0,0,2
7:56.511,171544,(,0,0,1
7:56.603,171577,N,0,0,0
7:56.619,171583,),0,0,1
7:56.656,171596,(,0,0,2
7:56.858,171669,t,0,0,5
7:56.956,171704,t,0,0,5
7:57.039,171734,),0,0,2
7:58.311,172192,(,0,0,1
7:58.400,172224,N,0,0,0
7:58.419,172231,),0,0,1
7:58.453,172243,(,0,0,2
7:58.667,172320,t,0,0,5
7:58.758,172353,t,0,0,5
7:58.850,172386,),0,0,2
8:00.978,173152,(,0,0,1
8:01.064,173183,N,0,0,0
8:01.081,173189,),0,0,1
8:01.117,173202,(,0,0,2
8:01.336,173281,t,0,0,5
8:01.442,173319,t,0,0,5
8:01.508,173343,),0,0,2
8:01.911,173488,(,0,0,1
8:02.000,173520,N,0,0,0
8:02.017,173526,),0,0,1
8:02.053,173539,(,0,0,2
8:02.278,173620,t,0,0,5
8:02.378,173656,t,0,0,5
8:02.453,173683,),0,0,2
8:02.817,173814,(,0,0,1
8:02.903,173845,N,0,0,0
8:02.922,173852,),0,0,1
8:02.950,173862,(,0,0,2
8:03.178,173944,t,0,0,5
8:03.278,173980,t,0,0,5
8:03.361,174010,),0,0,2
8:03.711,174136,(,0,0,1
8:03.792,174165,N,0,0,0
8:03.811,174172,),0,0,1
8:03.944,174220,(,0,0,2
8:04.069,174265,t,0,0,5
8:04.167,174300,t,0,0,5
8:04.261,174334,),0,0,2
8:04.631,174467,(,0,0,1
8:04.725,174501,N,0,0,0
8:04.742,174507,),0,0,1
8:04.794,174526,(,0,0,2
8:04.997,174599,t,0,0,5
8:05.103,174637,t,0,0,5
8:05.172,174662,),0,0,2
8:05.561,174802,(,0,0,1
8:05.647,174833,N,0,0,0
8:05.667,174840,),0,0,1
8:05.869,174913,(,0,0,2
8:05.914,174929,t,0,0,5
8:06.008,174963,t,0,0,5
8:06.081,174989,),0,0,2
8:06.472,175130,(,0,0,1
8:06.558,175161,N,0,0,0
8:06.575,175167,),0,0,1
8:06.786,175243,(,0,0,2
8:06.819,175255,t,0,0,5
8:06.917,175290,t,0,0,5
8:06.997,175319,),0,0,2
8:07.372,175454,(,0,0,1
8:07.450,175482,N,0,0,0
8:07.469,175489,),0,0,1
8:07.519,175507,(,0,0,2
8:07.703,175573,t,0,0,5
8:07.800,175608,t,0,0,5
8:07.886,175639,),0,0,2
8:08.283,175782,(,0,0,1
8:08.350,175806,N,0,0,0
8:08.369,175813,),0,0,1
8:08.406,175826,(,0,0,2
8:08.614,175901,t,0,0,5
8:08.714,175937,t,0,0,5
8:08.800,175968,),0,0,2
8:10.983,176754,(,0,0,1
8:11.067,176784,N,0,0,0
8:11.086,176791,),0,0,1
8:11.125,176805,(,0,0,2
8:11.344,176884,t,0,0,5
8:11.450,176922,t,0,0,5
8:11.525,176949,),0,0,2
8:11.822,177056,(,0,0,0
8:11.844,177064,p,0,0,0
8:11.872,177074,),0,0,0
8:11.917,177090,(,0,0,1
8:12.003,177121,N,0,0,0
8:12.022,177128,),0,0,1
8:12.061,177142,(,0,0,2
8:12.275,177219,t,0,0,5
8:12.372,177254,t,0,0,5
8:12.453,177283,),0,0,2
8:12.808,177411,(,0,0,1
8:12.894,177442,N,0,0,0
8:12.908,177447,),0,0,1
8:12.950,177462,(,0,0,2
8:13.164,177539,t,0,0,5
8:13.261,177574,t,0,0,5
8:13.336,177601,),0,0,2
8:13.742,177747,(,0,0,1
8:13.825,177777,N,0,0,0
8:13.844,177784,),0,0,1
8:13.897,177803,(,0,0,2
8:14.089,177872,t,0,0,5
8:14.178,177904,t,0,0,5
8:14.250,177930,),0,0,2
8:14.653,178075,(,0,0,1
8:14.747,178109,N,0,0,0
8:14.767,178116,),0,0,1
8:14.803,178129,(,0,0,2
8:15.017,178206,t,0,0,5
8:15.119,178243,t,0,0,5
8:15.206,178274,),0,0,2
8:15.447,178361,(,0,0,0
8:15.458,178365,p,0,0,0
8:15.464,178367,),0,0,0
8:15.586,178411,(,0,0,1
8:15.675,178443,N,0,0,0
8:15.694,178450,),0,0,1
8:15.906,178526,(,0,0,2
8:15.942,178539,t,0,0,5
8:16.039,178574,t,0,0,5
8:16.131,178607,),0,0,2
8:16.508,178743,(,0,0,1
8:16.589,178772,N,0,0,0
8:16.606,178778,),0,0,1
8:16.642,178791,(,0,0,2
8:16.844,178864,t,0,0,5
8:16.947,178901,t,0,0,5
8:17.017,178926,),0,0,2
8:17.414,179069,(,0,0,1
8:17.506,179102,N,0,0,0
8:17.522,179108,),0,0,1
8:17.564,179123,(,0,0,2
8:17.783,179202,t,0,0,5
8:17.878,179236,t,0,0,5
8:17.953,179263,),0,0,2
8:18.378,179416,(,0,0,1
8:18.458,179445,N,0,0,0
8:18.475,179451,),0,0,1
8:18.514,179465,(,0,0,2
8:18.733,179544,t,0,0,5
8:18.828,179578,t,0,0,5
8:18.911,179608,),0,0,2
8:19.311,179752,(,0,0,1
8:19.392,179781,N,0,0,0
8:19.411,179788,),0,0,1
8:19.436,179797,(,0,0,2
8:19.658,179877,t,0,0,5
8:19.756,179912,t,0,0,5
8:19.836,179941,),0,0,2
8:20.250,180090,(,0,0,1
8:20.344,180124,N,0,0,0
8:20.361,180130,),0,0,1
8:20.408,180147,(,0,0,2
8:20.614,180221,t,0,0,5
8:20.708,180255,t,0,0,5
8:20.781,180281,),0,0,2
8:21.189,180428,(,0,0,1
8:21.278,180460,N,0,0,0
8:21.294,180466,),0,0,1
8:21.508,180543,(,0,0,2
8:21.550,180558,t,0,0,5
8:21.642,180591,t,0,0,5
8:21.722,180620,),0,0,2
8:22.119,180763,(,0,0,1
8:22.211,180796,N,0,0,0
8:22.228,180802,),0,0,1
8:22.436,180877,(,0,0,2
8:22.472,180890,t,0,0,5
8:22.561,180922,t,0,0,5
8:22.644,180952,),0,0,2
8:23.033,181092,(,0,0,1
8:23.125,181125,N,0,0,0
8:23.142,181131,),0,0,1
8:23.250,181170,(,0,0,2
8:23.394,181222,t,0,0,5
8:23.489,181256,t,0,0,5
8:23.561,181282,),0,0,2
8:23.950,181422,(,0,0,1
8:24.047,181457,N,0,0,0
8:24.061,181462,),0,0,1
8:24.292,181545,(,0,0,2
8:24.325,181557,t,0,0,5
8:24.428,181594,t,0,0,5
8:24.506,181622,),0,0,2
8:24.928,181774,(,0,0,1
8:24.997,181799,N,0,0,0
8:25.014,181805,),0,0,1
8:25.239,181886,(,0,0,2
8:25.275,181899,t,0,0,5
8:25.364,181931,t,0,0,5
8:25.444,181960,),0,0,2
8:25.842,182103,(,0,0,1
8:25.931,182135,N,0,0,0
8:25.947,182141,),0,0,1
8:26.217,182238,(,0,0,2
8:26.297,182267,t,0,0,1
8:26.378,182296,),0,0,2
8:26.775,182439,(,0,0,1
8:26.875,182475,N,0,0,0
8:26.892,182481,),0,0,1
8:27.111,182560,(,0,0,2
8:27.147,182573,t,0,0,5
8:27.236,182605,t,0,0,5
8:27.314,182633,),0,0,2
8:27.722,182780,(,0,0,1
8:27.817,182814,N,0,0,0
8:27.833,182820,),0,0,1
8:27.878,182836,(,0,0,2
8:28.092,182913,t,0,0,5
8:28.181,182945,t,0,0,5
8:28.258,182973,),0,0,2
8:28.667,183120,(,0,0,1
8:28.761,183154,N,0,0,0
8:28.778,183160,),0,0,1
8:28.992,183237,(,0,0,2
8:29.028,183250,t,0,0,5
8:29.108,183279,t,0,0,5
8:29.186,183307,),0,0,2
8:29.219,183319,(,0,0,0
8:29.283,183342,p,0,0,0
8:29.358,183369,),0,0,0
8:29.575,183447,(,0,0,1
8:29.664,183479,N,0,0,0
8:29.683,183486,),0,0,1
8:29.908,183567,(,0,0,2
8:29.936,183577,t,0,0,5
8:30.017,183606,t,0,0,5
8:30.108,183639,),0,0,2
8:30.531,183791,(,0,0,1
8:30.586,183811,N,0,0,0
8:30.606,183818,),0,0,1
8:30.822,183896,(,0,0,2
8:30.867,183912,t,0,0,5
8:30.967,183948,t,0,0,5
8:31.050,183978,),0,0,2
8:31.464,184127,(,0,0,1
8:31.531,184151,N,0,0,0
8:31.547,184157,),0,0,1
8:31.761,184234,(,0,0,2
8:31.803,184249,t,0,0,5
8:31.903,184285,t,0,0,5
8:31.978,184312,),0,0,2
8:32.364,184451,(,0,0,1
8:32.453,184483,N,0,0,0
8:32.469,184489,),0,0,1
8:32.747,184589,(,0,0,2
8:32.822,184616,t,0,0,1
8:32.900,184644,),0,0,2
8:33.297,184787,(,0,0,1
8:33.367,184812,N,0,0,0
8:33.389,184820,),0,0,1
8:33.603,184897,(,0,0,2
8:33.636,184909,t,0,0,5
8:33.714,184937,t,0,0,5
8:33.797,184967,),0,0,2
8:34.208,185115,(,0,0,1
8:34.267,185136,N,0,0,0
8:34.283,185142,),0,0,1
8:34.319,185155,(,0,0,2
8:34.536,185233,t,0,0,5
8:34.636,185269,t,0,0,5
8:34.714,185297,),0,0,2
8:35.100,185436,(,0,0,1
8:35.194,185470,N,0,0,0
8:35.211,185476,),0,0,1
8:35.256,185492,(,0,0,2
8:35.458,185565,t,0,0,5
8:35.556,185600,t,0,0,5
8:35.622,185624,),0,0,2
8:35.997,185759,(,0,0,1
8:36.089,185792,N,0,0,0
8:36.106,185798,),0,0,1
8:36.136,185809,(,0,0,2
8:36.350,185886,t,0,0,5
8:36.442,185919,t,0,0,5
8:36.517,185946,),0,0,2
8:36.892,186081,(,0,0,1
8:36.983,186114,N,0,0,0
8:37.003,186121,),0,0,1
8:37.231,186203,(,0,0,2
8:37.267,186216,t,0,0,5
8:37.358,186249,t,0,0,5
8:37.450,186282,),0,0,2
8:37.833,186420,(,0,0,1
8:37.922,186452,N,0,0,0
8:37.939,186458,),0,0,1
8:38.150,186534,(,0,0,2
8:38.189,186548,t,0,0,5
8:38.278,186580,t,0,0,5
8:38.358,186609,),0,0,2
8:38.731,186743,(,0,0,1
8:38.817,186774,N,0,0,0
8:38.833,186780,),0,0,1
8:38.875,186795,(,0,0,2
8:39.092,186873,t,0,0,5
8:39.186,186907,t,0,0,5
8:39.264,186935,),0,0,2
8:39.639,187070,(,0,0,1
8:39.733,187104,N,0,0,0
8:39.750,187110,),0,0,1
8:39.972,187190,(,0,0,2
8:40.014,187205,t,0,0,5
8:40.106,187238,t,0,0,5
8:40.181,187265,),0,0,2
8:40.561,187402,(,0,0,1
8:40.647,187433,N,0,0,0
8:40.664,187439,),0,0,1
8:40.706,187454,(,0,0,2
8:40.917,187530,t,0,0,5
8:41.008,187563,t,0,0,5
8:41.086,187591,),0,0,2
8:41.489,187736,(,0,0,1
8:41.572,187766,N,0,0,0
8:41.592,187773,),0,0,1
8:41.806,187850,(,0,0,2
8:41.844,187864,t,0,0,5
8:42.269,188017,t,0,0,5
8:42.333,188040,),0,0,2
8:44.231,188723,(,0,0,1
8:44.303,188749,N,0,0,0
8:44.322,188756,),0,0,1
8:44.539,188834,(,0,0,2
8:44.572,188846,t,0,0,5
8:44.664,188879,t,0,0,5
8:44.739,188906,),0,0,2
8:45.094,189034,(,0,0,1
8:45.183,189066,N,0,0,0
8:45.200,189072,),0,0,1
8:45.303,189109,(,0,0,2
8:45.442,189159,t,0,0,5
8:45.531,189191,t,0,0,5
8:45.617,189222,),0,0,2
8:45.964,189347,(,0,0,1
8:46.050,189378,N,0,0,0
8:46.067,189384,),0,0,1
8:46.117,189402,(,0,0,2
8:46.331,189479,t,0,0,5
8:46.425,189513,t,0,0,5
8:46.494,189538,),0,0,2
8:46.903,189685,(,0,0,1
8:46.967,189708,N,0,0,0
8:46.986,189715,),0,0,1
8:47.206,189794,(,0,0,2
8:47.244,189808,t,0,0,5
8:47.336,189841,t,0,0,5
8:47.417,189870,),0,0,2
8:48.764,190355,(,0,0,1
8:48.839,190382,N,0,0,0
8:48.858,190389,),0,0,1
8:49.072,190466,(,0,0,2
8:49.106,190478,t,0,0,5
8:49.197,190511,t,0,0,5
8:49.272,190538,),0,0,2
8:52.497,191699,(,0,0,1
8:52.586,191731,N,0,0,0
8:52.606,191738,),0,0,1
8:52.839,191822,(,0,0,2
8:52.872,191834,t,0,0,5
8:52.953,191863,t,0,0,5
8:53.028,191890,),0,0,2
8:59.861,194350,(,0,0,1
8:59.956,194384,N,0,0,0
8:59.972,194390,),0,0,1
9:00.200,194472,(,0,0,2
9:00.233,194484,t,0,0,5
9:00.319,194515,t,0,0,5
9:00.400,194544,),0,0,2
9:03.542,195675,(,0,0,1
9:03.614,195701,N,0,0,0
9:03.631,195707,),0,0,1
9:03.853,195787,(,0,0,2
9:03.892,195801,t,0,0,5
9:03.972,195830,t,0,0,5
9:04.064,195863,),0,0,2
9:05.344,196324,(,0,0,1
9:05.442,196359,N,0,0,0
9:05.458,196365,),0,0,1
9:05.681,196445,(,0,0,2
9:05.725,196461,t,0,0,5
9:05.817,196494,t,0,0,5
9:05.886,196519,),0,0,2
9:06.317,196674,(,0,0,1
9:06.364,196691,N,0,0,0
9:06.386,196699,),0,0,1
9:06.614,196781,(,0,0,2
9:06.647,196793,t,0,0,5
9:06.728,196822,t,0,0,5
9:06.800,196848,),0,0,2
9:07.203,196993,(,0,0,1
9:07.286,197023,N,0,0,0
9:07.306,197030,),0,0,1
9:07.525,197109,(,0,0,2
9:07.561,197122,t,0,0,5
9:07.647,197153,t,0,0,5
9:07.725,197181,),0,0,2
9:08.156,197336,(,0,0,1
9:08.200,197352,N,0,0,0
9:08.222,197360,),0,0,1
9:08.436,197437,(,0,0,2
9:08.472,197450,t,0,0,5
9:08.556,197480,t,0,0,5
9:08.631,197507,),0,0,2
9:09.067,197664,(,0,0,1
9:09.117,197682,N,0,0,0
9:09.136,197689,),0,0,1
9:09.358,197769,(,0,0,2
9:09.397,197783,t,0,0,5
9:09.853,197947,t,0,0,5
9:09.919,197971,),0,0,2
9:12.569,198925,(,0,0,0
9:12.608,198939,p,0,0,0
9:12.653,198955,),0,0,0
9:12.683,198966,(,0,0,1
9:12.711,198976,N,0,0,0
9:12.736,198985,),0,0,1
9:12.978,199072,(,0,0,2
9:13.019,199087,t,0,0,5
9:13.114,199121,t,0,0,5
9:13.178,199144,),0,0,2
9:13.503,199261,(,0,0,0
9:13.542,199275,p,0,0,0
9:13.594,199294,),0,0,0
9:13.625,199305,(,0,0,1
9:13.650,199314,N,0,0,0
9:13.675,199323,),0,0,1
9:13.919,199411,(,0,0,2
9:13.958,199425,t,0,0,5
9:14.039,199454,t,0,0,5
9:14.108,199479,),0,0,2
9:14.411,199588,(,0,0,0
9:14.447,199601,p,0,0,0
9:14.492,199617,),0,0,0
9:14.525,199629,(,0,0,1
9:14.553,199639,N,0,0,0
9:14.578,199648,),0,0,1
9:14.792,199725,(,0,0,1
9:14.858,199749,N,0,0,0
9:14.928,199774,),0,0,1
9:14.942,199779,(,0,0,2
9:15.025,199809,t,0,0,0
9:15.122,199844,),0,0,2
9:15.289,199904,(,0,0,0
9:15.325,199917,p,0,0,0
9:15.375,199935,),0,0,0
9:15.411,199948,(,0,0,1
9:15.442,199959,N,0,0,0
9:15.464,199967,),0,0,1
9:15.706,200054,(,0,0,2
9:15.742,200067,t,0,0,0
9:15.817,200094,),0,0,2
9:15.933,200136,(,0,0,0
9:15.969,200149,p,0,0,0
9:16.025,200169,),0,0,0
9:16.081,200189,(,0,0,1
9:16.106,200198,N,0,0,0
9:16.128,200206,),0,0,1
9:16.217,200238,(,0,0,2
9:16.397,200303,t,0,0,5
9:16.481,200333,t,0,0,5
9:16.553,200359,),0,0,2
9:17.144,200572,(,0,0,0
9:17.183,200586,p,0,0,0
9:17.200,200592,),0,0,0
9:17.381,200657,(,0,0,1
9:17.456,200684,N,0,0,0
9:17.508,200703,),0,0,1
9:17.544,200716,(,0,0,2
9:17.625,200745,t,0,0,0
9:17.753,200791,),0,0,2
9:17.931,200855,(,0,0,0
9:17.969,200869,p,0,0,0
9:18.014,200885,),0,0,0
9:18.047,200897,(,0,0,1
9:18.078,200908,N,0,0,0
9:18.081,200909,(,0,0,0
9:18.100,200916,),0,0,1
9:18.111,200920,p,0,0,0
9:18.128,200926,),0,0,0
9:18.294,200986,(,0,0,1
9:18.372,201014,N,0,0,0
9:18.400,201024,),0,0,1
9:18.467,201048,(,0,0,2
9:18.539,201074,t,0,0,0
9:18.689,201128,),0,0,2
9:19.711,201496,(,0,0,0
9:19.747,201509,p,0,0,0
9:19.792,201525,),0,0,0
9:19.822,201536,(,0,0,1
9:19.853,201547,N,0,0,0
9:19.875,201555,),0,0,1
9:20.119,201643,(,0,0,1
9:20.169,201661,N,0,0,0
9:20.208,201675,),0,0,1
9:21.019,201967,(,0,0,1
9:21.053,201979,N,0,0,0
9:21.158,202017,),0,0,1
9:21.164,202019,(,0,0,2
9:21.244,202048,t,0,0,0
9:21.342,202083,),0,0,2
9:21.508,202143,(,0,0,0
9:21.544,202156,p,0,0,0
9:21.589,202172,),0,0,0
9:21.619,202183,(,0,0,1
9:21.647,202193,N,0,0,0
9:21.672,202202,),0,0,1
9:21.900,202284,(,0,0,2
9:21.944,202300,t,0,0,5
9:22.033,202332,t,0,0,5
9:22.103,202357,),0,0,2
9:22.519,202507,(,0,0,0
9:22.547,202517,p,0,0,0
9:22.575,202527,),0,0,0
9:22.792,202605,(,0,0,1
9:22.872,202634,N,0,0,0
9:22.906,202646,),0,0,1
9:23.697,202931,(,0,0,1
9:23.772,202958,N,0,0,0
9:23.806,202970,),0,0,1
9:25.525,203589,(,0,0,1
9:25.553,203599,N,0,0,0
9:25.628,203626,),0,0,1
9:26.417,203910,(,0,0,1
9:26.467,203928,N,0,0,0
9:26.506,203942,),0,0,1
9:26.556,203960,(,0,0,2
9:26.642,203991,t,0,0,5
9:26.867,204072,t,0,0,5
9:26.958,204105,),0,0,2
9:27.069,204145,(,0,0,0
9:27.103,204157,p,0,0,0
9:27.122,204164,),0,0,0
9:27.294,204226,(,0,0,1
9:27.369,204253,N,0,0,0
9:27.406,204266,),0,0,1
9:28.228,204562,(,0,0,1
9:28.272,204578,N,0,0,0
9:28.317,204594,),0,0,1
9:28.836,204781,(,0,0,2
9:28.867,204792,t,0,0,0
9:28.900,204804,),0,0,2
9:29.769,205117,(,0,0,0
9:29.792,205125,p,0,0,0
9:29.819,205135,),0,0,0
9:30.031,205211,(,0,0,1
9:30.106,205238,N,0,0,0
9:30.197,205271,),0,0,1
9:30.667,205440,(,0,0,2
9:30.694,205450,t,0,0,0
9:30.728,205462,),0,0,2
9:30.947,205541,(,0,0,1
9:31.003,205561,N,0,0,0
9:31.094,205594,),0,0,1
9:31.558,205761,(,0,0,2
9:31.589,205772,t,0,0,0
9:31.619,205783,),0,0,2
9:31.861,205870,(,0,0,1
9:31.908,205887,N,0,0,0
9:31.944,205900,),0,0,1
9:32.475,206091,(,0,0,2
9:32.506,206102,t,0,0,0
9:32.539,206114,),0,0,2
9:32.767,206196,(,0,0,1
9:32.811,206212,N,0,0,0
9:32.844,206224,),0,0,1
9:33.356,206408,t,0,0,2
9:33.408,206427,),0,0,2
9:33.417,206430,(,0,0,0
9:33.447,206441,p,0,0,0
9:33.467,206448,),0,0,0
9:33.633,206508,(,0,0,1
9:33.711,206536,N,0,0,0
9:33.739,206546,),0,0,1
9:34.250,206730,(,0,0,2
9:34.281,206741,t,0,0,0
9:34.314,206753,),0,0,2
9:34.436,206797,(,0,0,0
9:34.447,206801,p,0,0,0
9:34.525,206829,),0,0,0
9:34.553,206839,(,0,0,1
9:34.581,206849,N,0,0,0
9:34.608,206859,),0,0,1
9:35.131,207047,(,0,0,2
9:35.158,207057,t,0,0,0
9:35.192,207069,),0,0,2
9:35.431,207155,(,0,0,1
9:35.464,207167,N,0,0,0
9:35.564,207203,),0,0,1
9:36.042,207375,(,0,0,2
9:36.072,207386,t,0,0,0
9:36.106,207398,),0,0,2
9:36.983,207714,(,0,0,0
9:37.014,207725,p,0,0,0
9:37.031,207731,),0,0,0
9:37.197,207791,(,0,0,1
9:37.275,207819,N,0,0,0
9:37.364,207851,),0,0,1
9:37.844,208024,(,0,0,2
9:37.872,208034,t,0,0,0
9:37.906,208046,),0,0,2
9:38.100,208116,(,0,0,1
9:38.183,208146,N,0,0,0
9:38.214,208157,),0,0,1
9:38.747,208349,(,0,0,2
9:38.778,208360,t,0,0,0
9:38.811,208372,),0,0,2
9:39.028,208450,(,0,0,1
9:39.092,208473,N,0,0,0
9:39.200,208512,),0,0,1
9:39.683,208686,(,0,0,2
9:39.714,208697,t,0,0,0
9:39.747,208709,),0,0,2
9:39.794,208726,(,0,0,0
9:39.894,208762,p,0,0,0
9:39.956,208784,),0,0,0
9:40.000,208800,(,0,0,1
9:40.039,208814,N,0,0,0
9:40.108,208839,),0,0,1
9:40.619,209023,(,0,0,2
9:40.650,209034,t,0,0,0
9:40.683,209046,),0,0,2
9:41.578,209368,(,0,0,0
9:41.608,209379,p,0,0,0
9:41.625,209385,),0,0,0
9:41.828,209458,(,0,0,1
9:41.886,209479,N,0,0,0
9:41.914,209489,),0,0,1
9:42.381,209657,(,0,0,2
9:42.425,209673,t,0,0,0
9:42.478,209692,),0,0,2
9:42.531,209711,(,0,0,0
9:42.567,209724,p,0,0,0
9:42.586,209731,),0,0,0
9:42.764,209795,(,0,0,1
9:42.847,209825,N,0,0,0
9:42.883,209838,),0,0,1
9:43.422,210032,t,0,0,2
9:43.472,210050,),0,0,2
9:43.481,210053,(,0,0,0
9:43.511,210064,p,0,0,0
9:43.531,210071,),0,0,0
9:43.700,210132,(,0,0,1
9:43.781,210161,N,0,0,0
9:43.808,210171,),0,0,1
9:44.364,210371,(,0,0,2
9:44.392,210381,t,0,0,0
9:44.422,210392,),0,0,2
9:44.656,210476,(,0,0,1
9:44.706,210494,N,0,0,0
9:44.772,210518,),0,0,1
9:45.256,210692,t,0,0,2
9:45.306,210710,),0,0,2
9:45.314,210713,(,0,0,0
9:45.344,210724,p,0,0,0
9:45.361,210730,),0,0,0
9:45.558,210801,(,0,0,1
9:45.614,210821,N,0,0,0
9:45.681,210845,),0,0,1
9:46.203,211033,(,0,0,2
9:46.233,211044,t,0,0,0
9:46.267,211056,),0,0,2
9:47.175,211383,(,0,0,0
9:47.206,211394,p,0,0,0
9:47.222,211400,),0,0,0
9:47.392,211461,(,0,0,1
9:47.475,211491,N,0,0,0
9:47.519,211507,),0,0,1
9:48.042,211695,(,0,0,2
9:48.072,211706,t,0,0,0
9:48.103,211717,),0,0,2
9:48.306,211790,(,0,0,1
9:48.386,211819,N,0,0,0
9:48.417,211830,),0,0,1
9:48.639,211910,),0,0,2
9:48.808,211971,t,0,0,0
9:48.975,212031,(,0,0,2
9:49.014,212045,(,0,0,0
9:49.042,212055,p,0,0,0
9:49.061,212062,),0,0,0
9:49.272,212138,(,0,0,1
9:49.317,212154,N,0,0,0
9:49.353,212167,),0,0,1
9:49.894,212362,t,0,0,2
9:49.942,212379,),0,0,2
9:49.950,212382,(,0,0,0
9:49.981,212393,p,0,0,0
9:49.997,212399,),0,0,0
9:50.203,212473,(,0,0,1
9:50.247,212489,N,0,0,0
9:50.406,212546,),0,0,1
9:50.819,212695,(,0,0,2
9:50.847,212705,t,0,0,0
9:50.881,212717,),0,0,2
9:51.092,212793,(,0,0,1
9:51.172,212822,N,0,0,0
9:51.294,212866,),0,0,1
9:51.733,213024,(,0,0,2
9:51.761,213034,t,0,0,0
9:51.794,213046,),0,0,2
9:54.553,214039,(,0,0,0
9:54.586,214051,p,0,0,0
9:54.603,214057,),0,0,0
9:54.775,214119,(,0,0,1
9:54.861,214150,N,0,0,0
9:54.919,214171,),0,0,1
9:55.467,214368,(,0,0,2
9:55.497,214379,t,0,0,0
9:55.528,214390,),0,0,2
9:55.761,214474,(,0,0,1
9:55.817,214494,N,0,0,0
9:55.850,214506,),0,0,1
9:56.406,214706,(,0,0,2
9:56.436,214717,t,0,0,0
9:56.469,214729,),0,0,2
9:57.350,215046,(,0,0,0
9:57.383,215058,p,0,0,0
9:57.400,215064,),0,0,0
9:57.572,215126,(,0,0,1
9:57.653,215155,N,0,0,0
9:57.692,215169,),0,0,1
9:58.231,215363,t,0,0,2
9:58.278,215380,),0,0,2
9:58.286,215383,(,0,0,0
9:58.317,215394,p,0,0,0
9:58.336,215401,),0,0,0
9:58.528,215470,(,0,0,1
9:58.592,215493,N,0,0,0
9:58.631,215507,),0,0,1
9:59.181,215705,(,0,0,2
9:59.211,215716,t,0,0,0
9:59.242,215727,),0,0,2
9:59.339,215762,(,0,0,0
9:59.386,215779,p,0,0,0
9:59.436,215797,),0,0,0
9:59.444,215800,(,0,0,1
9:59.525,215829,N,0,0,0
9:59.611,215860,),0,0,1
10:00.075,216027,t,0,0,2
10:00.125,216045,),0,0,2
10:00.133,216048,(,0,0,0
10:00.167,216060,p,0,0,0
10:00.183,216066,),0,0,0
10:00.403,216145,(,0,0,1
10:00.436,216157,N,0,0,0
10:00.611,216220,),0,0,1
10:01.025,216369,(,0,0,2
10:01.056,216380,t,0,0,0
10:01.089,216392,),0,0,2
10:02.008,216723,(,0,0,0
10:02.036,216733,p,0,0,0
10:02.056,216740,),0,0,0
10:02.264,216815,(,0,0,1
10:02.406,216866,N,0,0,0
10:02.408,216867,),0,0,1
10:02.897,217043,(,0,0,2
10:02.928,217054,t,0,0,0
10:02.961,217066,),0,0,2
10:04.772,217718,(,0,0,0
10:04.806,217730,p,0,0,0
10:04.822,217736,),0,0,0
10:05.042,217815,(,0,0,1
10:05.083,217830,N,0,0,0
10:05.125,217845,),0,0,1
10:05.667,218040,(,0,0,2
10:05.697,218051,t,0,0,0
10:05.731,218063,),0,0,2
10:05.947,218141,(,0,0,1
10:06.111,218200,N,0,0,0
10:06.114,218201,),0,0,1
10:06.594,218374,(,0,0,2
10:06.625,218385,t,0,0,0
10:06.658,218397,),0,0,2
10:08.467,219048,(,0,0,0
10:08.500,219060,p,0,0,0
10:08.517,219066,),0,0,0
10:08.736,219145,(,0,0,1
10:08.781,219161,N,0,0,0
