Elapsedtime,sample,Type,Sub,Chan,Num
0:00.561,202,(,0,0,1
0:00.608,219,N,0,0,0
0:00.644,232,),0,0,1
0:00.806,290,(,0,0,2
0:00.872,314,t,0,0,5
0:00.956,344,t,0,0,5
0:00.989,356,),0,0,2
0:01.178,424,(,0,0,1
0:01.228,442,N,0,0,0
0:01.264,455,),0,0,1
0:01.464,527,(,0,0,0
0:01.514,545,p,0,0,0
0:01.569,565,),0,0,0
0:01.589,572,(,0,0,1
0:01.672,602,N,0,0,0
0:01.769,637,),0,0,1
0:01.775,639,(,0,0,2
0:01.858,669,t,0,0,1
0:01.994,718,),0,0,2
0:02.325,837,(,0,0,0
0:02.358,849,p,0,0,0
0:02.417,870,),0,0,0
0:02.514,905,(,0,0,1
0:02.564,923,N,0,0,0
0:02.594,934,),0,0,1
0:02.817,1014,(,0,0,2
0:02.872,1034,t,0,0,0
0:02.961,1066,),0,0,2
0:03.386,1219,(,0,0,1
0:03.447,1241,N,0,0,0
0:03.492,1257,),0,0,1
0:03.600,1296,t,0,0,2
0:03.761,1354,),0,0,2
0:03.867,1392,(,0,0,1
0:03.969,1429,N,0,0,0
0:04.072,1466,),0,0,1
0:04.131,1487,(,0,0,2
0:04.183,1506,t,0,0,1
0:04.319,1555,),0,0,2
0:04.703,1693,(,0,0,0
0:04.783,1722,p,0,0,0
0:04.864,1751,),0,0,0
0:04.961,1786,(,0,0,1
0:05.011,1804,N,0,0,0
0:05.039,1814,),0,0,1
0:05.122,1844,(,0,0,2
0:05.142,1851,t,0,0,4
0:05.319,1915,t,0,0,4
0:05.408,1947,),0,0,2
0:05.431,1955,(,0,0,0
0:05.500,1980,p,0,0,0
0:05.528,1990,),0,0,0
0:05.683,2046,(,0,0,1
0:05.731,2063,N,0,0,0
0:05.772,2078,),0,0,1
0:05.908,2127,(,0,0,2
0:06.006,2162,t,0,0,0
0:06.083,2190,),0,0,2
0:06.311,2272,(,0,0,0
0:06.336,2281,p,0,0,0
0:06.456,2324,),0,0,0
0:06.500,2340,(,0,0,1
0:06.544,2356,N,0,0,0
0:06.586,2371,),0,0,1
0:06.728,2422,(,0,0,2
0:06.817,2454,t,0,0,0
0:06.892,2481,),0,0,2
0:06.906,2486,(,0,0,1
0:06.994,2518,N,0,0,0
0:07.094,2554,),0,0,1
0:07.100,2556,(,0,0,2
0:07.192,2589,t,0,0,1
0:07.303,2629,),0,0,2
0:07.786,2803,(,0,0,1
0:07.847,2825,N,0,0,0
0:07.886,2839,),0,0,1
0:08.006,2882,(,0,0,2
0:08.142,2931,t,0,0,0
0:08.217,2958,),0,0,2
0:08.450,3042,(,0,0,1
0:08.508,3063,N,0,0,0
0:08.556,3080,),0,0,1
0:08.697,3131,(,0,0,2
0:08.794,3166,t,0,0,0
0:08.869,3193,),0,0,2
0:09.742,3507,(,0,0,1
0:09.792,3525,N,0,0,0
0:09.828,3538,),0,0,1
0:09.950,3582,(,0,0,2
0:10.081,3629,t,0,0,0
0:10.175,3663,),0,0,2
0:10.481,3773,(,0,0,1
0:10.547,3797,N,0,0,0
0:10.594,3814,),0,0,1
0:10.733,3864,(,0,0,2
0:10.828,3898,t,0,0,0
0:10.925,3933,),0,0,2
0:11.186,4027,(,0,0,0
0:11.208,4035,p,0,0,0
0:11.244,4048,),0,0,0
0:11.383,4098,(,0,0,1
0:11.467,4128,N,0,0,0
0:11.503,4141,),0,0,1
0:11.639,4190,(,0,0,2
0:11.742,4227,t,0,0,0
0:11.864,4271,),0,0,2
0:12.164,4379,(,0,0,0
0:12.233,4404,p,0,0,0
0:12.281,4421,),0,0,0
0:12.403,4465,(,0,0,1
0:12.467,4488,N,0,0,0
0:12.511,4504,),0,0,1
0:12.600,4536,(,0,0,2
0:12.747,4589,t,0,0,5
0:12.842,4623,t,0,0,5
0:12.914,4649,),0,0,2
0:13.392,4821,(,0,0,1
0:13.439,4838,N,0,0,0
0:13.472,4850,),0,0,1
0:13.608,4899,(,0,0,2
0:13.692,4929,t,0,0,0
0:13.806,4970,),0,0,2
0:13.878,4996,(,0,0,0
0:13.931,5015,p,0,0,0
0:13.997,5039,),0,0,0
0:14.097,5075,(,0,0,1
0:14.142,5091,N,0,0,0
0:14.186,5107,),0,0,1
0:14.322,5156,(,0,0,2
0:14.408,5187,t,0,0,0
0:14.486,5215,),0,0,2
0:14.794,5326,(,0,0,1
0:14.872,5354,N,0,0,0
0:14.900,5364,),0,0,1
0:15.031,5411,t,0,0,2
0:15.147,5453,),0,0,2
0:15.283,5502,(,0,0,1
0:15.378,5536,N,0,0,0
0:15.481,5573,),0,0,1
0:15.528,5590,(,0,0,2
0:15.581,5609,t,0,0,1
0:15.731,5663,),0,0,2
0:16.192,5829,(,0,0,1
0:16.244,5848,N,0,0,0
0:16.289,5864,),0,0,1
0:16.442,5919,(,0,0,2
0:16.547,5957,t,0,0,0
0:16.625,5985,),0,0,2
0:16.894,6082,(,0,0,1
0:16.939,6098,N,0,0,0
0:16.983,6114,),0,0,1
0:17.103,6157,(,0,0,2
0:17.211,6196,t,0,0,0
0:17.319,6235,),0,0,2
0:17.561,6322,(,0,0,1
0:17.639,6350,N,0,0,0
0:17.683,6366,),0,0,1
0:17.761,6394,t,0,0,2
0:17.900,6444,),0,0,2
0:18.000,6480,(,0,0,1
0:18.086,6511,N,0,0,0
0:18.186,6547,),0,0,1
0:18.256,6572,t,0,0,2
0:18.389,6620,),0,0,2
0:18.856,6788,(,0,0,0
0:18.922,6812,p,0,0,0
0:18.986,6835,),0,0,0
0:19.061,6862,(,0,0,1
0:19.108,6879,N,0,0,0
0:19.144,6892,),0,0,1
0:19.311,6952,(,0,0,2
0:19.394,6982,t,0,0,0
0:19.478,7012,),0,0,2
0:19.767,7116,(,0,0,0
0:19.786,7123,p,0,0,0
0:19.814,7133,),0,0,0
0:19.992,7197,(,0,0,1
0:20.039,7214,N,0,0,0
0:20.081,7229,),0,0,1
0:20.192,7269,(,0,0,2
0:20.289,7304,t,0,0,0
0:20.417,7350,),0,0,2
0:20.608,7419,(,0,0,0
0:20.642,7431,p,0,0,0
0:20.672,7442,),0,0,0
0:20.814,7493,(,0,0,1
0:20.864,7511,N,0,0,0
0:20.908,7527,),0,0,1
0:21.033,7572,t,0,0,2
0:21.142,7611,),0,0,2
0:21.275,7659,(,0,0,1
0:21.356,7688,N,0,0,0
0:21.458,7725,),0,0,1
0:21.497,7739,(,0,0,2
0:21.567,7764,t,0,0,1
0:21.703,7813,),0,0,2
0:22.367,8052,(,0,0,1
0:22.419,8071,N,0,0,0
0:22.461,8086,),0,0,1
0:22.600,8136,(,0,0,2
0:22.700,8172,t,0,0,0
0:22.794,8206,),0,0,2
0:23.008,8283,(,0,0,1
0:23.056,8300,N,0,0,0
0:23.100,8316,),0,0,1
0:23.250,8370,(,0,0,2
0:23.336,8401,t,0,0,0
0:23.428,8434,),0,0,2
0:23.689,8528,(,0,0,1
0:23.736,8545,N,0,0,0
0:23.781,8561,),0,0,1
0:23.883,8598,(,0,0,2
0:24.006,8642,t,0,0,5
0:24.092,8673,t,0,0,5
0:24.142,8691,),0,0,2
0:24.442,8799,(,0,0,1
0:24.489,8816,N,0,0,0
0:24.531,8831,),0,0,1
0:24.650,8874,(,0,0,2
0:24.761,8914,t,0,0,0
0:24.853,8947,),0,0,2
0:25.625,9225,(,0,0,1
0:25.683,9246,N,0,0,0
0:25.719,9259,),0,0,1
0:25.847,9305,(,0,0,2
0:25.972,9350,t,0,0,0
0:26.075,9387,),0,0,2
0:26.133,9408,(,0,0,0
0:26.178,9424,p,0,0,0
0:26.217,9438,),0,0,0
0:26.367,9492,(,0,0,1
0:26.428,9514,N,0,0,0
0:26.469,9529,),0,0,1
0:26.606,9578,(,0,0,2
0:26.711,9616,t,0,0,0
0:26.803,9649,),0,0,2
0:27.117,9762,(,0,0,1
0:27.181,9785,N,0,0,0
0:27.222,9800,),0,0,1
0:27.369,9853,(,0,0,2
0:27.458,9885,t,0,0,0
0:27.539,9914,),0,0,2
0:28.011,10084,(,0,0,1
0:28.061,10102,N,0,0,0
0:28.103,10117,),0,0,1
0:28.242,10167,(,0,0,2
0:28.353,10207,t,0,0,0
0:28.431,10235,),0,0,2
0:28.764,10355,(,0,0,1
0:28.817,10374,N,0,0,0
0:28.861,10390,),0,0,1
0:29.003,10441,(,0,0,2
0:29.103,10477,t,0,0,0
0:29.192,10509,),0,0,2
0:29.492,10617,(,0,0,1
0:29.556,10640,N,0,0,0
0:29.594,10654,),0,0,1
0:29.719,10699,t,0,0,2
0:29.831,10739,),0,0,2
0:29.944,10780,(,0,0,1
0:30.042,10815,N,0,0,0
0:30.142,10851,),0,0,1
0:30.194,10870,(,0,0,2
0:30.258,10893,t,0,0,1
0:30.372,10934,),0,0,2
0:30.850,11106,(,0,0,1
0:30.903,11125,N,0,0,0
0:30.942,11139,),0,0,1
0:31.097,11195,(,0,0,2
0:31.200,11232,t,0,0,5
0:31.283,11262,t,0,0,5
0:31.325,11277,),0,0,2
0:31.550,11358,(,0,0,1
0:31.619,11383,N,0,0,0
0:31.647,11393,),0,0,1
0:31.814,11453,(,0,0,2
0:31.892,11481,t,0,0,5
0:31.981,11513,t,0,0,5
0:32.033,11532,),0,0,2
0:32.381,11657,(,0,0,1
0:32.439,11678,N,0,0,0
0:32.475,11691,),0,0,1
0:32.592,11733,t,0,0,2
0:32.728,11782,),0,0,2
0:32.831,11819,(,0,0,1
0:32.917,11850,N,0,0,0
0:33.011,11884,),0,0,1
0:33.017,11886,(,0,0,2
0:33.117,11922,t,0,0,1
0:33.236,11965,),0,0,2
0:33.694,12130,(,0,0,1
0:33.742,12147,N,0,0,0
0:33.786,12163,),0,0,1
0:33.919,12211,(,0,0,2
0:34.069,12265,t,0,0,0
0:34.147,12293,),0,0,2
0:34.356,12368,(,0,0,1
0:34.417,12390,N,0,0,0
0:34.458,12405,),0,0,1
0:34.597,12455,(,0,0,2
0:34.717,12498,t,0,0,5
0:34.806,12530,t,0,0,5
0:34.844,12544,),0,0,2
0:35.331,12719,(,0,0,1
0:35.394,12742,N,0,0,0
0:35.433,12756,),0,0,1
0:35.575,12807,(,0,0,2
0:35.692,12849,t,0,0,0
0:35.775,12879,),0,0,2
0:36.133,13008,(,0,0,1
0:36.181,13025,N,0,0,0
0:36.225,13041,),0,0,1
0:36.239,13046,(,0,0,2
0:36.308,13071,t,0,0,1
0:36.442,13119,),0,0,2
0:36.447,13121,(,0,0,0
0:36.464,13127,p,0,0,0
0:36.531,13151,),0,0,0
0:36.583,13170,(,0,0,1
0:36.678,13204,N,0,0,0
0:36.775,13239,),0,0,1
0:36.806,13250,(,0,0,2
0:36.872,13274,t,0,0,1
0:36.978,13312,),0,0,2
0:37.442,13479,(,0,0,1
0:37.486,13495,N,0,0,0
0:37.528,13510,),0,0,1
0:37.669,13561,(,0,0,2
0:37.764,13595,t,0,0,5
0:37.850,13626,t,0,0,5
0:37.892,13641,),0,0,2
0:38.108,13719,(,0,0,1
0:38.156,13736,N,0,0,0
0:38.203,13753,),0,0,1
0:38.342,13803,(,0,0,2
0:38.447,13841,t,0,0,0
0:38.522,13868,),0,0,2
0:38.833,13980,(,0,0,1
0:38.881,13997,N,0,0,0
0:38.925,14013,),0,0,1
0:39.053,14059,(,0,0,2
0:39.167,14100,t,0,0,5
0:39.275,14139,t,0,0,5
0:39.336,14161,),0,0,2
0:39.511,14224,(,0,0,1
0:39.564,14243,N,0,0,0
0:39.611,14260,),0,0,1
0:39.744,14308,(,0,0,2
0:39.858,14349,t,0,0,5
0:39.947,14381,t,0,0,5
0:39.994,14398,),0,0,2
0:40.344,14524,(,0,0,1
0:40.394,14542,N,0,0,0
0:40.439,14558,),0,0,1
0:40.594,14614,(,0,0,2
0:40.692,14649,t,0,0,0
0:40.772,14678,),0,0,2
0:41.069,14785,(,0,0,1
0:41.114,14801,N,0,0,0
0:41.158,14817,),0,0,1
0:41.261,14854,t,0,0,2
0:41.394,14902,),0,0,2
0:41.486,14935,(,0,0,1
0:41.572,14966,N,0,0,0
0:41.672,15002,),0,0,1
0:41.678,15004,(,0,0,2
0:41.750,15030,t,0,0,1
0:41.894,15082,),0,0,2
0:42.542,15315,(,0,0,1
0:42.592,15333,N,0,0,0
0:42.631,15347,),0,0,1
0:42.758,15393,(,0,0,2
0:42.883,15438,t,0,0,0
0:42.961,15466,),0,0,2
0:43.033,15492,(,0,0,0
0:43.069,15505,p,0,0,0
0:43.136,15529,),0,0,0
0:43.186,15547,(,0,0,1
0:43.236,15565,N,0,0,0
0:43.281,15581,),0,0,1
0:43.406,15626,(,0,0,2
0:43.517,15666,t,0,0,5
0:43.600,15696,t,0,0,5
0:43.661,15718,),0,0,2
0:43.933,15816,(,0,0,1
0:43.981,15833,N,0,0,0
0:44.022,15848,),0,0,1
0:44.169,15901,(,0,0,2
0:44.283,15942,t,0,0,0
0:44.375,15975,),0,0,2
0:44.628,16066,(,0,0,1
0:44.678,16084,N,0,0,0
0:44.722,16100,),0,0,1
0:44.847,16145,(,0,0,2
0:44.958,16185,t,0,0,0
0:45.028,16210,),0,0,2
0:45.867,16512,(,0,0,1
0:45.939,16538,N,0,0,0
0:45.975,16551,),0,0,1
0:46.125,16605,(,0,0,2
0:46.244,16648,t,0,0,0
0:46.328,16678,),0,0,2
0:46.967,16908,(,0,0,1
0:47.017,16926,N,0,0,0
0:47.056,16940,),0,0,1
0:47.139,16970,(,0,0,2
0:47.322,17036,t,0,0,0
0:47.406,17066,),0,0,2
0:47.522,17108,(,0,0,0
0:47.592,17133,p,0,0,0
0:47.631,17147,),0,0,0
0:47.722,17180,(,0,0,1
0:47.769,17197,N,0,0,0
0:47.811,17212,),0,0,1
0:47.922,17252,(,0,0,2
0:48.044,17296,t,0,0,5
0:48.122,17324,t,0,0,5
0:48.186,17347,),0,0,2
0:48.364,17411,(,0,0,1
0:48.408,17427,N,0,0,0
0:48.450,17442,),0,0,1
0:48.569,17485,(,0,0,2
0:48.672,17522,t,0,0,0
0:48.767,17556,),0,0,2
0:49.072,17666,(,0,0,1
0:49.117,17682,N,0,0,0
0:49.156,17696,),0,0,1
0:49.272,17738,(,0,0,2
0:49.381,17777,t,0,0,0
0:49.453,17803,),0,0,2
0:49.700,17892,(,0,0,1
0:49.747,17909,N,0,0,0
0:49.792,17925,),0,0,1
0:49.892,17961,(,0,0,2
0:50.033,18012,t,0,0,0
0:50.119,18043,),0,0,2
0:50.519,18187,(,0,0,1
0:50.569,18205,N,0,0,0
0:50.608,18219,),0,0,1
0:50.722,18260,(,0,0,2
0:50.858,18309,t,0,0,5
0:50.961,18346,t,0,0,5
0:51.042,18375,),0,0,2
0:51.236,18445,(,0,0,1
0:51.286,18463,N,0,0,0
0:51.331,18479,),0,0,1
0:51.422,18512,(,0,0,2
0:51.575,18567,t,0,0,0
0:51.644,18592,),0,0,2
0:52.044,18736,(,0,0,1
0:52.103,18757,N,0,0,0
0:52.144,18772,),0,0,1
0:52.286,18823,(,0,0,2
0:52.397,18863,t,0,0,0
0:52.481,18893,),0,0,2
0:52.917,19050,(,0,0,1
0:52.972,19070,N,0,0,0
0:53.014,19085,),0,0,1
0:53.128,19126,t,0,0,2
0:53.253,19171,),0,0,2
0:53.281,19181,(,0,0,0
0:53.369,19213,p,0,0,0
0:53.408,19227,),0,0,0
0:53.431,19235,(,0,0,1
0:53.514,19265,N,0,0,0
0:53.614,19301,),0,0,1
0:53.669,19321,(,0,0,2
0:53.736,19345,t,0,0,1
0:53.839,19382,),0,0,2
0:54.492,19617,(,0,0,1
0:54.547,19637,N,0,0,0
0:54.586,19651,),0,0,1
0:54.664,19679,(,0,0,2
0:54.694,19690,t,0,0,4
0:54.831,19739,t,0,0,4
0:54.919,19771,),0,0,2
0:55.147,19853,(,0,0,1
0:55.189,19868,N,0,0,0
0:55.231,19883,),0,0,1
0:55.317,19914,(,0,0,2
0:55.447,19961,t,0,0,5
0:55.531,19991,t,0,0,5
0:55.578,20008,),0,0,2
0:55.914,20129,(,0,0,1
0:55.961,20146,N,0,0,0
0:55.997,20159,),0,0,1
0:56.139,20210,(,0,0,0
0:56.236,20245,p,0,0,0
0:56.289,20264,),0,0,0
0:56.303,20269,(,0,0,1
0:56.369,20293,N,0,0,0
0:56.442,20319,),0,0,1
0:56.447,20321,(,0,0,2
0:56.578,20368,t,0,0,1
0:56.700,20412,),0,0,2
0:57.319,20635,(,0,0,1
0:57.367,20652,N,0,0,0
0:57.408,20667,),0,0,1
0:57.608,20739,(,0,0,2
0:57.678,20764,t,0,0,0
0:57.747,20789,),0,0,2
0:58.033,20892,(,0,0,1
0:58.083,20910,N,0,0,0
0:58.131,20927,),0,0,1
0:58.250,20970,(,0,0,2
0:58.367,21012,t,0,0,0
0:58.442,21039,),0,0,2
0:58.953,21223,(,0,0,1
0:59.006,21242,N,0,0,0
0:59.047,21257,),0,0,1
0:59.197,21311,(,0,0,2
0:59.306,21350,t,0,0,5
0:59.408,21387,t,0,0,5
0:59.461,21406,),0,0,2
0:59.644,21472,(,0,0,1
0:59.692,21489,N,0,0,0
0:59.733,21504,),0,0,1
0:59.844,21544,(,0,0,2
0:59.961,21586,t,0,0,5
1:00.058,21621,t,0,0,5
1:00.119,21643,),0,0,2
1:00.381,21737,(,0,0,1
1:00.431,21755,N,0,0,0
1:00.472,21770,),0,0,1
1:00.586,21811,(,0,0,2
1:00.697,21851,t,0,0,5
1:00.789,21884,t,0,0,5
1:00.825,21897,),0,0,2
1:01.008,21963,(,0,0,1
1:01.053,21979,N,0,0,0
1:01.092,21993,),0,0,1
1:01.183,22026,(,0,0,2
1:01.303,22069,t,0,0,5
1:01.400,22104,t,0,0,5
1:01.450,22122,),0,0,2
1:01.714,22217,(,0,0,1
1:01.767,22236,N,0,0,0
1:01.806,22250,),0,0,1
1:01.894,22282,t,0,0,2
1:02.039,22334,),0,0,2
1:02.131,22367,(,0,0,1
1:02.217,22398,N,0,0,0
1:02.319,22435,),0,0,1
1:02.325,22437,(,0,0,2
1:02.392,22461,t,0,0,1
1:02.547,22517,),0,0,2
1:03.089,22712,(,0,0,1
1:03.139,22730,N,0,0,0
1:03.175,22743,),0,0,1
1:03.342,22803,(,0,0,2
1:03.442,22839,t,0,0,0
1:03.531,22871,),0,0,2
1:03.817,22974,(,0,0,1
1:03.864,22991,N,0,0,0
1:03.911,23008,),0,0,1
1:04.011,23044,(,0,0,2
1:04.169,23101,t,0,0,5
1:04.261,23134,t,0,0,5
1:04.364,23171,),0,0,2
1:04.733,23304,(,0,0,1
1:04.794,23326,N,0,0,0
1:04.833,23340,),0,0,1
1:04.981,23393,(,0,0,2
1:05.094,23434,t,0,0,5
1:05.189,23468,t,0,0,5
1:05.228,23482,),0,0,2
1:05.953,23743,(,0,0,1
1:06.011,23764,N,0,0,0
1:06.053,23779,),0,0,1
1:06.172,23822,(,0,0,2
1:06.297,23867,t,0,0,0
1:06.389,23900,),0,0,2
1:06.633,23988,(,0,0,0
1:06.672,24002,p,0,0,0
1:06.739,24026,),0,0,0
1:06.911,24088,(,0,0,1
1:06.956,24104,N,0,0,0
1:06.997,24119,),0,0,1
1:07.119,24163,(,0,0,2
1:07.231,24203,t,0,0,0
1:07.311,24232,),0,0,2
1:07.619,24343,(,0,0,1
1:07.667,24360,N,0,0,0
1:07.706,24374,),0,0,1
1:07.822,24416,(,0,0,2
1:07.922,24452,t,0,0,0
1:08.006,24482,),0,0,2
1:08.283,24582,(,0,0,1
1:08.333,24600,N,0,0,0
1:08.378,24616,),0,0,1
1:08.461,24646,(,0,0,2
1:08.622,24704,t,0,0,5
1:08.714,24737,t,0,0,5
1:08.775,24759,),0,0,2
1:09.053,24859,(,0,0,1
1:09.108,24879,N,0,0,0
1:09.150,24894,),0,0,1
1:09.283,24942,(,0,0,2
1:09.408,24987,t,0,0,0
1:09.497,25019,),0,0,2
1:09.919,25171,(,0,0,1
1:09.989,25196,N,0,0,0
1:10.028,25210,),0,0,1
1:10.150,25254,t,0,0,2
1:10.264,25295,),0,0,2
1:10.417,25350,(,0,0,1
1:10.500,25380,N,0,0,0
1:10.603,25417,),0,0,1
1:10.647,25433,(,0,0,2
1:10.714,25457,t,0,0,1
1:10.819,25495,),0,0,2
1:11.331,25679,(,0,0,1
1:11.389,25700,N,0,0,0
1:11.428,25714,),0,0,1
1:11.569,25765,(,0,0,2
1:11.681,25805,t,0,0,0
1:11.761,25834,),0,0,2
1:12.031,25931,(,0,0,1
1:12.078,25948,N,0,0,0
1:12.119,25963,),0,0,1
1:12.219,25999,(,0,0,2
1:12.356,26048,t,0,0,5
1:12.444,26080,t,0,0,5
1:12.522,26108,),0,0,2
1:12.678,26164,(,0,0,1
1:12.725,26181,N,0,0,0
1:12.764,26195,),0,0,1
1:12.936,26257,(,0,0,2
1:12.989,26276,t,0,0,0
1:13.058,26301,),0,0,2
1:13.083,26310,(,0,0,1
1:13.169,26341,N,0,0,0
1:13.269,26377,),0,0,1
1:13.275,26379,(,0,0,2
1:13.331,26399,t,0,0,4
1:13.492,26457,t,0,0,4
1:13.522,26468,),0,0,2
1:13.681,26525,(,0,0,0
1:13.711,26536,p,0,0,0
1:13.739,26546,),0,0,0
1:13.900,26604,(,0,0,1
1:13.942,26619,N,0,0,0
1:13.983,26634,),0,0,1
1:14.192,26709,(,0,0,2
1:14.247,26729,t,0,0,0
1:14.319,26755,),0,0,2
1:14.350,26766,(,0,0,0
1:14.414,26789,p,0,0,0
1:14.464,26807,),0,0,0
1:14.578,26848,(,0,0,1
1:14.631,26867,N,0,0,0
1:14.672,26882,),0,0,1
1:14.778,26920,(,0,0,2
1:14.917,26970,t,0,0,5
1:15.000,27000,t,0,0,5
1:15.053,27019,),0,0,2
1:15.353,27127,(,0,0,1
1:15.403,27145,N,0,0,0
1:15.439,27158,),0,0,1
1:15.553,27199,t,0,0,2
1:15.686,27247,),0,0,2
1:15.778,27280,(,0,0,1
1:15.861,27310,N,0,0,0
1:15.961,27346,),0,0,1
1:15.967,27348,(,0,0,2
1:16.058,27381,t,0,0,1
1:16.194,27430,),0,0,2
1:16.861,27670,(,0,0,1
1:16.917,27690,N,0,0,0
1:16.953,27703,),0,0,1
1:17.108,27759,(,0,0,2
1:17.222,27800,t,0,0,0
1:17.325,27837,),0,0,2
1:17.608,27939,(,0,0,1
1:17.656,27956,N,0,0,0
1:17.700,27972,),0,0,1
1:17.817,28014,(,0,0,2
1:17.917,28050,t,0,0,0
1:17.994,28078,),0,0,2
1:18.239,28166,(,0,0,1
1:18.289,28184,N,0,0,0
1:18.331,28199,),0,0,1
1:18.433,28236,(,0,0,2
1:18.561,28282,t,0,0,0
1:18.647,28313,),0,0,2
1:18.875,28395,(,0,0,1
1:18.922,28412,N,0,0,0
1:18.964,28427,),0,0,1
1:19.139,28490,(,0,0,0
1:19.186,28507,p,0,0,0
1:19.247,28529,),0,0,0
1:19.269,28537,(,0,0,1
1:19.353,28567,N,0,0,0
1:19.450,28602,),0,0,1
1:19.456,28604,(,0,0,2
1:19.519,28627,t,0,0,1
1:19.647,28673,),0,0,2
1:20.664,29039,(,0,0,1
1:20.717,29058,N,0,0,0
1:20.756,29072,),0,0,1
1:20.953,29143,(,0,0,2
1:21.064,29183,t,0,0,0
1:21.178,29224,),0,0,2
1:21.403,29305,(,0,0,1
1:21.453,29323,N,0,0,0
1:21.497,29339,),0,0,1
1:21.617,29382,(,0,0,2
1:21.747,29429,t,0,0,0
1:21.831,29459,),0,0,2
1:22.247,29609,(,0,0,1
1:22.303,29629,N,0,0,0
1:22.347,29645,),0,0,1
1:22.497,29699,(,0,0,2
1:22.589,29732,t,0,0,0
1:22.669,29761,),0,0,2
1:23.139,29930,(,0,0,1
1:23.186,29947,N,0,0,0
1:23.225,29961,),0,0,1
1:23.294,29986,t,0,0,2
1:23.472,30050,),0,0,2
1:23.586,30091,(,0,0,1
1:23.667,30120,N,0,0,0
1:23.769,30157,),0,0,1
1:23.817,30174,(,0,0,2
1:23.872,30194,t,0,0,1
1:24.008,30243,),0,0,2
1:24.303,30349,(,0,0,0
1:24.339,30362,p,0,0,0
1:24.439,30398,),0,0,0
1:24.472,30410,(,0,0,1
1:24.517,30426,N,0,0,0
1:24.561,30442,),0,0,1
1:24.653,30475,(,0,0,2
1:24.781,30521,t,0,0,5
1:24.894,30562,t,0,0,5
1:24.942,30579,),0,0,2
1:25.119,30643,(,0,0,1
1:25.167,30660,N,0,0,0
1:25.211,30676,),0,0,1
1:25.336,30721,(,0,0,2
1:25.433,30756,t,0,0,0
1:25.519,30787,),0,0,2
1:25.550,30798,(,0,0,0
1:25.619,30823,p,0,0,0
1:25.664,30839,),0,0,0
1:25.708,30855,(,0,0,1
1:25.772,30878,N,0,0,0
1:25.814,30893,),0,0,1
1:25.906,30926,(,0,0,2
1:26.036,30973,t,0,0,5
1:26.131,31007,t,0,0,5
1:26.197,31031,),0,0,2
1:26.400,31104,(,0,0,1
1:26.453,31123,N,0,0,0
1:26.497,31139,),0,0,1
1:26.619,31183,(,0,0,2
1:26.722,31220,t,0,0,0
1:26.822,31256,),0,0,2
1:27.361,31450,(,0,0,0
1:27.456,31484,p,0,0,0
1:27.517,31506,),0,0,0
1:27.581,31529,(,0,0,1
1:27.628,31546,N,0,0,0
1:27.672,31562,),0,0,1
1:27.797,31607,(,0,0,2
1:27.931,31655,t,0,0,0
1:28.006,31682,),0,0,2
1:28.267,31776,(,0,0,1
1:28.311,31792,N,0,0,0
1:28.358,31809,),0,0,1
1:28.478,31852,(,0,0,2
1:28.583,31890,t,0,0,0
1:28.689,31928,),0,0,2
1:29.050,32058,(,0,0,0
1:29.075,32067,p,0,0,0
1:29.106,32078,),0,0,0
1:29.278,32140,(,0,0,1
1:29.333,32160,N,0,0,0
1:29.378,32176,),0,0,1
1:29.489,32216,(,0,0,2
1:29.614,32261,t,0,0,0
1:29.708,32295,),0,0,2
1:30.017,32406,(,0,0,1
1:30.097,32435,N,0,0,0
1:30.142,32451,),0,0,1
1:30.239,32486,t,0,0,2
1:30.356,32528,),0,0,2
1:30.494,32578,(,0,0,1
1:30.589,32612,N,0,0,0
1:30.697,32651,),0,0,1
1:30.819,32695,(,0,0,2
1:30.900,32724,t,0,0,0
1:30.958,32745,),0,0,2
1:31.564,32963,(,0,0,1
1:31.639,32990,N,0,0,0
1:31.678,33004,),0,0,1
1:31.808,33051,(,0,0,2
1:31.906,33086,t,0,0,0
1:31.983,33114,),0,0,2
1:32.311,33232,(,0,0,1
1:32.386,33259,N,0,0,0
1:32.428,33274,),0,0,1
1:32.475,33291,t,0,0,2
1:32.650,33354,),0,0,2
1:32.778,33400,(,0,0,1
1:32.861,33430,N,0,0,0
1:32.969,33469,),0,0,1
1:32.975,33471,(,0,0,2
1:33.058,33501,t,0,0,4
1:33.186,33547,t,0,0,4
1:33.225,33561,),0,0,2
1:33.481,33653,(,0,0,0
1:33.542,33675,p,0,0,0
1:33.608,33699,),0,0,0
1:33.692,33729,(,0,0,1
1:33.744,33748,N,0,0,0
1:33.786,33763,),0,0,1
1:33.869,33793,(,0,0,2
1:34.031,33851,t,0,0,0
1:34.114,33881,),0,0,2
1:34.425,33993,(,0,0,1
1:34.475,34011,N,0,0,0
1:34.519,34027,),0,0,1
1:34.647,34073,(,0,0,2
1:34.764,34115,t,0,0,5
1:34.864,34151,t,0,0,5
1:34.897,34163,),0,0,2
1:35.156,34256,(,0,0,1
1:35.211,34276,N,0,0,0
1:35.256,34292,),0,0,1
1:35.392,34341,(,0,0,2
1:35.497,34379,t,0,0,5
1:35.594,34414,t,0,0,5
1:35.661,34438,),0,0,2
1:35.839,34502,(,0,0,1
1:35.886,34519,N,0,0,0
1:35.928,34534,),0,0,1
1:36.058,34581,(,0,0,2
1:36.147,34613,t,0,0,0
1:36.217,34638,),0,0,2
1:36.239,34646,(,0,0,1
1:36.322,34676,N,0,0,0
1:36.419,34711,),0,0,1
1:36.425,34713,(,0,0,2
1:36.497,34739,t,0,0,1
1:36.617,34782,),0,0,2
1:36.942,34899,(,0,0,0
1:36.986,34915,p,0,0,0
1:37.064,34943,),0,0,0
1:37.086,34951,(,0,0,1
1:37.131,34967,N,0,0,0
1:37.158,34977,),0,0,1
1:37.278,35020,(,0,0,2
1:37.400,35064,t,0,0,0
1:37.478,35092,),0,0,2
1:37.561,35122,(,0,0,0
1:37.597,35135,p,0,0,0
1:37.656,35156,),0,0,0
1:37.775,35199,(,0,0,1
1:37.850,35226,N,0,0,0
1:37.889,35240,),0,0,1
1:38.006,35282,(,0,0,2
1:38.119,35323,t,0,0,5
1:38.214,35357,t,0,0,5
1:38.300,35388,),0,0,2
1:39.025,35649,(,0,0,1
1:39.083,35670,N,0,0,0
1:39.114,35681,),0,0,1
1:39.286,35743,(,0,0,2
1:39.394,35782,t,0,0,0
1:39.503,35821,),0,0,2
1:39.508,35823,(,0,0,0
1:39.519,35827,p,0,0,0
1:39.553,35839,),0,0,0
1:39.753,35911,(,0,0,1
1:39.800,35928,N,0,0,0
1:39.847,35945,),0,0,1
1:39.975,35991,(,0,0,2
1:40.072,36026,t,0,0,0
1:40.172,36062,),0,0,2
1:40.503,36181,(,0,0,1
1:40.556,36200,N,0,0,0
1:40.597,36215,),0,0,1
1:40.672,36242,t,0,0,2
1:40.828,36298,),0,0,2
1:40.861,36310,(,0,0,0
1:40.931,36335,p,0,0,0
1:40.978,36352,),0,0,0
1:40.994,36358,(,0,0,1
1:41.083,36390,N,0,0,0
1:41.183,36426,),0,0,1
1:41.231,36443,(,0,0,2
1:41.292,36465,t,0,0,1
1:41.400,36504,),0,0,2
1:42.072,36746,(,0,0,1
1:42.131,36767,N,0,0,0
1:42.158,36777,),0,0,1
1:42.308,36831,(,0,0,2
1:42.419,36871,t,0,0,0
1:42.494,36898,),0,0,2
1:42.519,36907,(,0,0,0
1:42.600,36936,p,0,0,0
1:42.681,36965,),0,0,0
1:42.731,36983,(,0,0,1
1:42.778,37000,N,0,0,0
1:42.822,37016,),0,0,1
1:42.925,37053,(,0,0,2
1:43.039,37094,t,0,0,5
1:43.133,37128,t,0,0,5
1:43.183,37146,),0,0,2
1:43.389,37220,(,0,0,1
1:43.447,37241,N,0,0,0
1:43.489,37256,),0,0,1
1:43.575,37287,t,0,0,2
1:43.714,37337,),0,0,2
1:43.817,37374,(,0,0,1
1:43.894,37402,N,0,0,0
1:43.992,37437,),0,0,1
1:44.033,37452,(,0,0,2
1:44.083,37470,t,0,0,1
1:44.203,37513,),0,0,2
1:44.789,37724,(,0,0,0
1:44.831,37739,p,0,0,0
1:44.869,37753,),0,0,0
1:45.064,37823,(,0,0,1
1:45.136,37849,N,0,0,0
1:45.175,37863,),0,0,1
1:45.328,37918,(,0,0,2
1:45.447,37961,t,0,0,0
1:45.539,37994,),0,0,2
1:45.775,38079,(,0,0,1
1:45.828,38098,N,0,0,0
1:45.872,38114,),0,0,1
1:46.025,38169,(,0,0,2
1:46.108,38199,t,0,0,0
1:46.197,38231,),0,0,2
1:46.644,38392,(,0,0,1
1:46.725,38421,N,0,0,0
1:46.756,38432,),0,0,1
1:46.903,38485,(,0,0,2
1:47.008,38523,t,0,0,0
1:47.108,38559,),0,0,2
1:47.261,38614,(,0,0,0
1:47.306,38630,p,0,0,0
1:47.353,38647,),0,0,0
1:47.425,38673,(,0,0,1
1:47.475,38691,N,0,0,0
1:47.517,38706,),0,0,1
1:47.642,38751,(,0,0,2
1:47.747,38789,t,0,0,0
1:47.822,38816,),0,0,2
1:48.117,38922,(,0,0,1
1:48.167,38940,N,0,0,0
1:48.206,38954,),0,0,1
1:48.319,38995,(,0,0,2
1:48.436,39037,t,0,0,0
1:48.517,39066,),0,0,2
1:48.933,39216,(,0,0,1
1:49.011,39244,N,0,0,0
1:49.044,39256,),0,0,1
1:49.161,39298,(,0,0,2
1:49.275,39339,t,0,0,5
1:49.394,39382,t,0,0,5
1:49.456,39404,),0,0,2
1:49.625,39465,(,0,0,0
1:49.692,39489,p,0,0,0
1:49.758,39513,),0,0,0
1:49.833,39540,(,0,0,1
1:49.883,39558,N,0,0,0
1:49.919,39571,),0,0,1
1:50.028,39610,t,0,0,2
1:50.139,39650,),0,0,2
1:50.239,39686,(,0,0,1
1:50.325,39717,N,0,0,0
1:50.425,39753,),0,0,1
1:50.514,39785,t,0,0,2
1:50.653,39835,),0,0,2
1:50.850,39906,(,0,0,0
1:50.883,39918,p,0,0,0
1:50.925,39933,),0,0,0
1:51.103,39997,(,0,0,1
1:51.156,40016,N,0,0,0
1:51.192,40029,),0,0,1
1:51.339,40082,(,0,0,2
1:51.461,40126,t,0,0,0
1:51.558,40161,),0,0,2
1:51.783,40242,(,0,0,1
1:51.842,40263,N,0,0,0
1:51.883,40278,),0,0,1
1:52.008,40323,(,0,0,2
1:52.114,40361,t,0,0,0
1:52.197,40391,),0,0,2
1:52.278,40420,(,0,0,0
1:52.311,40432,p,0,0,0
1:52.344,40444,),0,0,0
1:52.450,40482,(,0,0,1
1:52.514,40505,N,0,0,0
1:52.558,40521,),0,0,1
1:52.647,40553,t,0,0,2
1:52.803,40609,),0,0,2
1:52.908,40647,(,0,0,1
1:53.003,40681,N,0,0,0
1:53.114,40721,),0,0,1
1:53.119,40723,(,0,0,2
1:53.189,40748,t,0,0,1
1:53.325,40797,),0,0,2
1:53.622,40904,(,0,0,0
1:53.686,40927,p,0,0,0
1:53.747,40949,),0,0,0
1:53.867,40992,(,0,0,1
1:53.936,41017,N,0,0,0
1:53.964,41027,),0,0,1
1:54.119,41083,(,0,0,2
1:54.225,41121,t,0,0,0
1:54.300,41148,),0,0,2
1:54.758,41313,(,0,0,1
1:54.836,41341,N,0,0,0
1:54.872,41354,),0,0,1
1:55.003,41401,(,0,0,2
1:55.108,41439,t,0,0,0
1:55.200,41472,),0,0,2
1:55.408,41547,(,0,0,1
1:55.461,41566,N,0,0,0
1:55.486,41575,),0,0,1
1:55.631,41627,(,0,0,2
1:55.714,41657,t,0,0,0
1:55.792,41685,),0,0,2
1:55.797,41687,(,0,0,0
1:55.814,41693,p,0,0,0
1:55.875,41715,),0,0,0
1:55.994,41758,(,0,0,1
1:56.053,41779,N,0,0,0
1:56.089,41792,),0,0,1
1:56.150,41814,(,0,0,2
1:56.183,41826,t,0,0,1
1:56.314,41873,),0,0,2
1:56.433,41916,(,0,0,1
1:56.531,41951,N,0,0,0
1:56.636,41989,),0,0,1
1:56.683,42006,(,0,0,2
1:56.747,42029,t,0,0,1
1:56.853,42067,),0,0,2
1:57.508,42303,(,0,0,1
1:57.589,42332,N,0,0,0
1:57.622,42344,),0,0,1
1:57.778,42400,(,0,0,2
1:57.908,42447,t,0,0,0
1:58.000,42480,),0,0,2
1:58.431,42635,(,0,0,1
1:58.481,42653,N,0,0,0
1:58.519,42667,),0,0,1
1:58.653,42715,(,0,0,0
1:58.775,42759,p,0,0,0
1:58.831,42779,),0,0,0
1:58.872,42794,(,0,0,1
1:58.961,42826,N,0,0,0
1:59.069,42865,),0,0,1
1:59.075,42867,(,0,0,2
1:59.150,42894,t,0,0,1
1:59.275,42939,),0,0,2
1:59.722,43100,(,0,0,1
1:59.797,43127,N,0,0,0
1:59.833,43140,),0,0,1
1:59.967,43188,(,0,0,2
2:00.083,43230,t,0,0,0
2:00.158,43257,),0,0,2
2:00.389,43340,(,0,0,1
2:00.450,43362,N,0,0,0
2:00.486,43375,),0,0,1
2:00.625,43425,(,0,0,2
2:00.714,43457,t,0,0,0
2:00.794,43486,),0,0,2
2:01.014,43565,(,0,0,1
2:01.078,43588,N,0,0,0
2:01.106,43598,),0,0,1
2:01.228,43642,(,0,0,2
2:01.328,43678,t,0,0,0
2:01.422,43712,),0,0,2
2:01.603,43777,(,0,0,1
2:01.683,43806,N,0,0,0
2:01.711,43816,),0,0,1
2:01.844,43864,(,0,0,2
2:01.958,43905,t,0,0,5
2:02.050,43938,t,0,0,5
2:02.097,43955,),0,0,2
2:02.111,43960,(,0,0,0
2:02.139,43970,p,0,0,0
2:02.236,44005,),0,0,0
2:02.267,44016,(,0,0,1
2:02.336,44041,N,0,0,0
2:02.364,44051,),0,0,1
2:02.508,44103,(,0,0,2
2:02.617,44142,t,0,0,0
2:02.706,44174,),0,0,2
2:02.897,44243,(,0,0,0
2:02.950,44262,p,0,0,0
2:03.000,44280,),0,0,0
2:03.083,44310,(,0,0,1
2:03.153,44335,N,0,0,0
2:03.183,44346,),0,0,1
2:03.267,44376,t,0,0,2
2:03.431,44435,),0,0,2
2:03.536,44473,(,0,0,1
2:03.633,44508,N,0,0,0
2:03.758,44553,),0,0,1
2:03.836,44581,t,0,0,2
2:04.006,44642,),0,0,2
2:04.475,44811,(,0,0,1
2:04.553,44839,N,0,0,0
2:04.583,44850,),0,0,1
2:04.708,44895,(,0,0,2
2:04.847,44945,t,0,0,5
2:04.933,44976,t,0,0,5
2:05.008,45003,),0,0,2
2:05.244,45088,(,0,0,1
2:05.311,45112,N,0,0,0
2:05.339,45122,),0,0,1
2:05.456,45164,t,0,0,2
2:05.569,45205,),0,0,2
2:05.697,45251,(,0,0,1
2:05.817,45294,N,0,0,0
2:05.931,45335,),0,0,1
2:05.936,45337,(,0,0,2
2:06.028,45370,t,0,0,1
2:06.142,45411,),0,0,2
2:06.647,45593,(,0,0,1
2:06.711,45616,N,0,0,0
2:06.742,45627,),0,0,1
2:06.881,45677,(,0,0,2
2:06.978,45712,t,0,0,0
2:07.081,45749,),0,0,2
2:07.136,45769,(,0,0,0
2:07.181,45785,p,0,0,0
2:07.256,45812,),0,0,0
2:07.325,45837,(,0,0,1
2:07.394,45862,N,0,0,0
2:07.425,45873,),0,0,1
2:07.517,45906,(,0,0,2
2:07.661,45958,t,0,0,5
2:07.758,45993,t,0,0,5
2:07.842,46023,),0,0,2
2:08.097,46115,(,0,0,1
2:08.197,46151,N,0,0,0
2:08.228,46162,),0,0,1
2:08.292,46185,(,0,0,2
2:08.339,46202,t,0,0,1
2:08.436,46237,),0,0,2
2:08.550,46278,(,0,0,1
2:08.650,46314,N,0,0,0
2:08.772,46358,),0,0,1
2:08.778,46360,(,0,0,2
2:08.872,46394,t,0,0,1
2:09.000,46440,),0,0,2
2:09.467,46608,(,0,0,1
2:09.536,46633,N,0,0,0
2:09.569,46645,),0,0,1
2:09.703,46693,(,0,0,2
2:09.839,46742,t,0,0,0
2:09.936,46777,),0,0,2
2:10.217,46878,(,0,0,1
2:10.292,46905,N,0,0,0
2:10.331,46919,),0,0,1
2:10.436,46957,(,0,0,2
2:10.544,46996,t,0,0,0
2:10.653,47035,),0,0,2
2:10.686,47047,(,0,0,0
2:10.767,47076,p,0,0,0
2:10.808,47091,),0,0,0
2:10.892,47121,(,0,0,1
2:10.958,47145,N,0,0,0
2:11.000,47160,),0,0,1
2:11.142,47211,(,0,0,2
2:11.236,47245,t,0,0,0
2:11.317,47274,),0,0,2
2:11.594,47374,(,0,0,1
2:11.656,47396,N,0,0,0
2:11.683,47406,),0,0,1
2:11.778,47440,t,0,0,2
2:11.928,47494,),0,0,2
2:12.025,47529,(,0,0,1
2:12.108,47559,N,0,0,0
2:12.219,47599,),0,0,1
2:12.225,47601,(,0,0,2
2:12.289,47624,t,0,0,1
2:12.414,47669,),0,0,2
2:12.678,47764,(,0,0,0
2:12.708,47775,p,0,0,0
2:12.736,47785,),0,0,0
2:12.908,47847,(,0,0,1
2:12.958,47865,N,0,0,0
2:12.997,47879,),0,0,1
2:13.117,47922,(,0,0,2
2:13.239,47966,t,0,0,5
2:13.314,47993,t,0,0,5
2:13.392,48021,),0,0,2
2:13.442,48039,(,0,0,0
2:13.508,48063,p,0,0,0
2:13.547,48077,),0,0,0
2:13.642,48111,(,0,0,1
2:13.697,48131,N,0,0,0
2:13.733,48144,),0,0,1
2:13.914,48209,(,0,0,0
2:13.961,48226,p,0,0,0
2:14.042,48255,),0,0,0
2:14.064,48263,(,0,0,1
2:14.175,48303,N,0,0,0
2:14.281,48341,),0,0,1
2:14.286,48343,(,0,0,2
2:14.378,48376,t,0,0,1
2:14.492,48417,),0,0,2
2:14.842,48543,(,0,0,1
2:14.911,48568,N,0,0,0
2:14.947,48581,),0,0,1
2:15.108,48639,(,0,0,2
2:15.206,48674,t,0,0,0
2:15.297,48707,),0,0,2
2:15.383,48738,(,0,0,0
2:15.436,48757,p,0,0,0
2:15.483,48774,),0,0,0
2:15.619,48823,(,0,0,1
2:15.683,48846,N,0,0,0
2:15.714,48857,),0,0,1
2:15.894,48922,(,0,0,2
2:15.989,48956,t,0,0,0
2:16.064,48983,),0,0,2
2:16.478,49132,(,0,0,1
2:16.539,49154,N,0,0,0
2:16.578,49168,),0,0,1
2:16.692,49209,t,0,0,2
2:16.806,49250,),0,0,2
2:16.808,49251,(,0,0,0
2:16.819,49255,p,0,0,0
2:16.900,49284,),0,0,0
2:16.947,49301,(,0,0,1
2:17.036,49333,N,0,0,0
2:17.147,49373,),0,0,1
2:17.153,49375,(,0,0,2
2:17.231,49403,t,0,0,1
2:17.353,49447,),0,0,2
2:17.764,49595,(,0,0,1
2:17.847,49625,N,0,0,0
2:17.883,49638,),0,0,1
2:17.986,49675,(,0,0,2
2:18.133,49728,t,0,0,0
2:18.219,49759,),0,0,2
2:18.406,49826,(,0,0,1
2:18.461,49846,N,0,0,0
2:18.503,49861,),0,0,1
2:18.575,49887,(,0,0,2
2:18.725,49941,t,0,0,5
2:18.814,49973,t,0,0,5
2:18.864,49991,),0,0,2
2:18.997,50039,(,0,0,1
2:19.072,50066,N,0,0,0
2:19.100,50076,),0,0,1
2:19.192,50109,t,0,0,2
2:19.339,50162,),0,0,2
2:19.428,50194,(,0,0,1
2:19.519,50227,N,0,0,0
2:19.614,50261,),0,0,1
2:19.619,50263,(,0,0,2
2:19.706,50294,t,0,0,1
2:19.806,50330,),0,0,2
2:20.383,50538,(,0,0,1
2:20.461,50566,N,0,0,0
2:20.492,50577,),0,0,1
2:20.575,50607,(,0,0,2
2:20.606,50618,t,0,0,4
2:20.761,50674,t,0,0,4
2:20.850,50706,),0,0,2
2:21.500,50940,(,0,0,0
2:21.567,50964,p,0,0,0
2:21.650,50994,),0,0,0
2:21.747,51029,(,0,0,1
2:21.822,51056,N,0,0,0
2:21.850,51066,),0,0,1
2:21.994,51118,(,0,0,2
2:22.111,51160,t,0,0,0
2:22.203,51193,),0,0,2
2:22.567,51324,(,0,0,0
2:22.594,51334,p,0,0,0
2:22.639,51350,),0,0,0
2:22.653,51355,(,0,0,1
2:22.714,51377,N,0,0,0
2:22.758,51393,),0,0,1
2:22.867,51432,t,0,0,2
2:22.978,51472,),0,0,2
2:23.092,51513,(,0,0,1
2:23.178,51544,N,0,0,0
2:23.278,51580,),0,0,1
2:23.283,51582,(,0,0,2
2:23.372,51614,t,0,0,1
2:23.508,51663,),0,0,2
2:23.933,51816,(,0,0,1
2:24.006,51842,N,0,0,0
2:24.042,51855,),0,0,1
2:24.200,51912,(,0,0,2
2:24.289,51944,t,0,0,5
2:24.389,51980,t,0,0,5
2:24.433,51996,),0,0,2
2:24.753,52111,(,0,0,1
2:24.814,52133,N,0,0,0
2:24.856,52148,),0,0,1
2:24.914,52169,(,0,0,2
2:24.953,52183,t,0,0,1
2:25.081,52229,),0,0,2
2:25.178,52264,(,0,0,1
2:25.281,52301,N,0,0,0
2:25.378,52336,),0,0,1
2:25.383,52338,(,0,0,2
2:25.467,52368,t,0,0,1
2:25.594,52414,),0,0,2
2:25.778,52480,(,0,0,0
2:25.803,52489,p,0,0,0
2:25.831,52499,),0,0,0
2:26.058,52581,(,0,0,1
2:26.106,52598,N,0,0,0
2:26.144,52612,),0,0,1
2:26.333,52680,(,0,0,2
2:26.400,52704,t,0,0,5
2:26.489,52736,t,0,0,5
2:26.572,52766,),0,0,2
2:26.808,52851,(,0,0,1
2:26.858,52869,N,0,0,0
2:26.903,52885,),0,0,1
2:27.028,52930,(,0,0,2
2:27.128,52966,t,0,0,0
2:27.217,52998,),0,0,2
2:27.478,53092,(,0,0,1
2:27.531,53111,N,0,0,0
2:27.575,53127,),0,0,1
2:27.703,53173,(,0,0,2
2:27.814,53213,t,0,0,5
2:27.897,53243,t,0,0,5
2:27.956,53264,),0,0,2
2:28.158,53337,(,0,0,0
2:28.197,53351,p,0,0,0
2:28.228,53362,),0,0,0
2:28.439,53438,(,0,0,1
2:28.494,53458,N,0,0,0
2:28.533,53472,),0,0,1
2:28.683,53526,(,0,0,2
2:28.778,53560,t,0,0,5
2:28.900,53604,t,0,0,5
2:28.942,53619,),0,0,2
2:28.958,53625,(,0,0,0
2:29.000,53640,p,0,0,0
2:29.044,53656,),0,0,0
2:29.169,53701,(,0,0,1
2:29.244,53728,N,0,0,0
2:29.286,53743,),0,0,1
2:29.431,53795,(,0,0,2
2:29.531,53831,t,0,0,0
2:29.572,53846,),0,0,2
2:29.678,53884,(,0,0,0
2:29.714,53897,p,0,0,0
2:29.744,53908,),0,0,0
2:29.872,53954,(,0,0,1
2:29.947,53981,N,0,0,0
2:29.983,53994,),0,0,1
2:30.081,54029,(,0,0,2
2:30.211,54076,t,0,0,5
2:30.353,54127,t,0,0,5
2:30.397,54143,),0,0,2
2:30.656,54236,(,0,0,1
2:30.703,54253,N,0,0,0
2:30.739,54266,),0,0,1
2:30.886,54319,(,0,0,2
2:30.969,54349,t,0,0,0
2:31.036,54373,),0,0,2
2:31.394,54502,(,0,0,0
2:31.436,54517,p,0,0,0
2:31.467,54528,),0,0,0
2:31.664,54599,(,0,0,1
2:31.719,54619,N,0,0,0
2:31.756,54632,),0,0,1
2:31.872,54674,(,0,0,2
2:31.981,54713,t,0,0,0
2:32.072,54746,),0,0,2
2:32.158,54777,(,0,0,0
2:32.194,54790,p,0,0,0
2:32.225,54801,),0,0,0
2:32.356,54848,(,0,0,1
2:32.406,54866,N,0,0,0
2:32.447,54881,),0,0,1
2:32.564,54923,(,0,0,2
2:32.653,54955,t,0,0,0
2:32.725,54981,),0,0,2
2:32.861,55030,(,0,0,0
2:32.889,55040,p,0,0,0
2:32.914,55049,),0,0,0
2:32.989,55076,(,0,0,1
2:33.061,55102,N,0,0,0
2:33.106,55118,),0,0,1
2:33.217,55158,t,0,0,2
2:33.331,55199,),0,0,2
2:33.450,55242,(,0,0,1
2:33.544,55276,N,0,0,0
2:33.644,55312,),0,0,1
2:33.650,55314,(,0,0,2
2:33.742,55347,t,0,0,1
2:33.867,55392,),0,0,2
2:34.444,55600,(,0,0,1
2:34.500,55620,N,0,0,0
2:34.542,55635,),0,0,1
2:34.661,55678,(,0,0,2
2:34.794,55726,t,0,0,0
2:34.867,55752,),0,0,2
2:34.953,55783,(,0,0,0
2:34.978,55792,p,0,0,0
2:35.008,55803,),0,0,0
2:35.128,55846,(,0,0,1
2:35.186,55867,N,0,0,0
2:35.231,55883,),0,0,1
2:35.372,55934,(,0,0,2
2:35.456,55964,t,0,0,5
2:35.556,56000,t,0,0,5
2:35.611,56020,),0,0,2
2:35.889,56120,(,0,0,1
2:35.950,56142,N,0,0,0
2:35.994,56158,),0,0,1
2:36.122,56204,(,0,0,2
2:36.208,56235,t,0,0,0
2:36.283,56262,),0,0,2
2:36.286,56263,(,0,0,0
2:36.314,56273,p,0,0,0
2:36.353,56287,),0,0,0
2:36.497,56339,(,0,0,1
2:36.544,56356,N,0,0,0
2:36.586,56371,),0,0,1
2:36.672,56402,(,0,0,2
2:36.803,56449,t,0,0,5
2:36.922,56492,t,0,0,5
2:36.969,56509,),0,0,2
2:37.067,56544,(,0,0,0
2:37.092,56553,p,0,0,0
2:37.128,56566,),0,0,0
2:37.311,56632,(,0,0,1
2:37.356,56648,N,0,0,0
2:37.392,56661,),0,0,1
2:37.544,56716,(,0,0,2
2:37.622,56744,t,0,0,0
2:37.708,56775,),0,0,2
2:37.833,56820,(,0,0,0
2:37.861,56830,p,0,0,0
2:37.925,56853,),0,0,0
2:37.964,56867,(,0,0,1
2:38.036,56893,N,0,0,0
2:38.075,56907,),0,0,1
2:38.203,56953,(,0,0,2
2:38.292,56985,t,0,0,0
2:38.369,57013,),0,0,2
2:39.244,57328,(,0,0,1
2:39.306,57350,N,0,0,0
2:39.336,57361,),0,0,1
2:39.478,57412,(,0,0,2
2:39.603,57457,t,0,0,0
2:39.711,57496,),0,0,2
2:39.969,57589,(,0,0,1
2:40.025,57609,N,0,0,0
2:40.056,57620,),0,0,1
2:40.197,57671,(,0,0,2
2:40.294,57706,t,0,0,0
2:40.392,57741,),0,0,2
2:40.608,57819,(,0,0,1
2:40.667,57840,N,0,0,0
2:40.697,57851,),0,0,1
2:40.789,57884,t,0,0,2
2:40.928,57934,),0,0,2
2:41.069,57985,(,0,0,1
2:41.158,58017,N,0,0,0
2:41.261,58054,),0,0,1
2:41.297,58067,(,0,0,2
2:41.369,58093,t,0,0,1
2:41.481,58133,),0,0,2
2:42.011,58324,(,0,0,1
2:42.061,58342,N,0,0,0
2:42.089,58352,),0,0,1
2:42.253,58411,(,0,0,2
2:42.342,58443,t,0,0,0
2:42.411,58468,),0,0,2
2:42.625,58545,(,0,0,1
2:42.697,58571,N,0,0,0
2:42.725,58581,),0,0,1
2:42.856,58628,(,0,0,2
2:42.953,58663,t,0,0,0
2:43.050,58698,),0,0,2
2:43.053,58699,(,0,0,0
2:43.064,58703,p,0,0,0
2:43.139,58730,),0,0,0
2:43.278,58780,(,0,0,1
2:43.358,58809,N,0,0,0
2:43.386,58819,),0,0,1
2:43.483,58854,t,0,0,2
2:43.631,58907,),0,0,2
2:43.719,58939,(,0,0,1
2:43.800,58968,N,0,0,0
2:43.900,59004,),0,0,1
2:43.906,59006,(,0,0,2
2:43.981,59033,t,0,0,1
2:44.103,59077,),0,0,2
2:44.386,59179,(,0,0,0
2:44.422,59192,p,0,0,0
2:44.478,59212,),0,0,0
2:44.547,59237,(,0,0,1
2:44.614,59261,N,0,0,0
2:44.656,59276,),0,0,1
2:44.811,59332,(,0,0,2
2:44.911,59368,t,0,0,0
2:44.997,59399,),0,0,2
2:45.214,59477,(,0,0,1
2:45.261,59494,N,0,0,0
2:45.297,59507,),0,0,1
2:45.428,59554,(,0,0,2
2:45.525,59589,t,0,0,5
2:45.622,59624,t,0,0,5
2:45.689,59648,),0,0,2
2:45.958,59745,(,0,0,1
2:46.039,59774,N,0,0,0
2:46.075,59787,),0,0,1
2:46.192,59829,(,0,0,2
2:46.317,59874,t,0,0,0
2:46.406,59906,),0,0,2
2:46.703,60013,(,0,0,1
2:46.767,60036,N,0,0,0
2:46.797,60047,),0,0,1
2:46.956,60104,(,0,0,2
2:47.053,60139,t,0,0,5
2:47.153,60175,t,0,0,5
2:47.217,60198,),0,0,2
2:47.881,60437,(,0,0,1
2:47.933,60456,N,0,0,0
2:47.972,60470,),0,0,1
2:48.097,60515,(,0,0,2
2:48.211,60556,t,0,0,0
2:48.303,60589,),0,0,2
2:48.372,60614,(,0,0,0
2:48.431,60635,p,0,0,0
2:48.475,60651,),0,0,0
2:48.503,60661,(,0,0,1
2:48.583,60690,N,0,0,0
2:48.622,60704,),0,0,1
2:48.753,60751,(,0,0,2
2:48.842,60783,t,0,0,0
2:48.931,60815,),0,0,2
2:48.933,60816,(,0,0,0
2:48.947,60821,p,0,0,0
2:49.014,60845,),0,0,0
2:49.219,60919,(,0,0,1
2:49.269,60937,N,0,0,0
2:49.314,60953,),0,0,1
2:49.400,60984,t,0,0,2
2:49.536,61033,),0,0,2
2:49.628,61066,(,0,0,1
2:49.708,61095,N,0,0,0
2:49.803,61129,),0,0,1
2:49.808,61131,(,0,0,2
2:49.894,61162,t,0,0,1
2:50.036,61213,),0,0,2
2:50.475,61371,(,0,0,1
2:50.594,61414,N,0,0,0
2:50.647,61433,),0,0,1
2:50.700,61452,(,0,0,2
2:50.800,61488,t,0,0,1
2:50.950,61542,),0,0,2
2:51.161,61618,(,0,0,0
2:51.200,61632,p,0,0,0
2:51.239,61646,),0,0,0
2:51.378,61696,(,0,0,1
2:51.450,61722,N,0,0,0
2:51.494,61738,),0,0,1
2:51.572,61766,(,0,0,2
2:51.606,61778,t,0,0,1
2:51.725,61821,),0,0,2
2:51.728,61822,(,0,0,0
2:51.736,61825,p,0,0,0
2:51.808,61851,),0,0,0
2:51.842,61863,(,0,0,1
2:51.931,61895,N,0,0,0
2:52.039,61934,),0,0,1
2:52.044,61936,(,0,0,2
2:52.117,61962,t,0,0,1
2:52.261,62014,),0,0,2
2:52.992,62277,(,0,0,0
2:53.025,62289,p,0,0,0
2:53.058,62301,),0,0,0
2:53.147,62333,(,0,0,1
2:53.194,62350,N,0,0,0
2:53.239,62366,),0,0,1
2:53.375,62415,(,0,0,2
2:53.503,62461,t,0,0,0
2:53.586,62491,),0,0,2
2:53.719,62539,(,0,0,0
2:53.756,62552,p,0,0,0
2:53.789,62564,),0,0,0
2:53.931,62615,(,0,0,1
2:53.992,62637,N,0,0,0
2:54.033,62652,),0,0,1
2:54.136,62689,t,0,0,2
2:54.247,62729,),0,0,2
2:54.361,62770,(,0,0,1
2:54.444,62800,N,0,0,0
2:54.536,62833,),0,0,1
2:54.542,62835,(,0,0,2
2:54.625,62865,t,0,0,1
2:54.736,62905,),0,0,2
2:55.300,63108,(,0,0,1
2:55.347,63125,N,0,0,0
2:55.386,63139,),0,0,1
2:55.481,63173,(,0,0,2
2:55.622,63224,t,0,0,5
2:55.714,63257,t,0,0,5
2:55.756,63272,),0,0,2
2:55.953,63343,(,0,0,1
2:56.006,63362,N,0,0,0
2:56.050,63378,),0,0,1
2:56.158,63417,(,0,0,2
2:56.294,63466,t,0,0,0
2:56.378,63496,),0,0,2
2:56.594,63574,(,0,0,1
2:56.644,63592,N,0,0,0
2:56.686,63607,),0,0,1
2:56.811,63652,(,0,0,2
2:56.908,63687,t,0,0,0
2:56.997,63719,),0,0,2
2:57.281,63821,(,0,0,1
2:57.336,63841,N,0,0,0
2:57.381,63857,),0,0,1
2:57.419,63871,(,0,0,2
2:57.478,63892,t,0,0,1
2:57.619,63943,),0,0,2
2:57.708,63975,(,0,0,1
2:57.808,64011,N,0,0,0
2:57.922,64052,),0,0,1
2:57.928,64054,(,0,0,2
2:58.022,64088,t,0,0,1
2:58.133,64128,),0,0,2
2:58.553,64279,(,0,0,1
2:58.608,64299,N,0,0,0
2:58.656,64316,),0,0,1
2:58.781,64361,(,0,0,2
2:58.903,64405,t,0,0,0
2:59.000,64440,),0,0,2
2:59.222,64520,(,0,0,1
2:59.272,64538,N,0,0,0
2:59.308,64551,),0,0,1
2:59.517,64626,(,0,0,2
2:59.564,64643,t,0,0,0
2:59.631,64667,),0,0,2
2:59.636,64669,(,0,0,0
2:59.650,64674,p,0,0,0
2:59.703,64693,),0,0,0
2:59.861,64750,(,0,0,1
2:59.911,64768,N,0,0,0
2:59.950,64782,),0,0,1
3:00.064,64823,(,0,0,2
3:00.175,64863,t,0,0,0
3:00.239,64886,),0,0,2
3:00.256,64892,(,0,0,1
3:00.344,64924,N,0,0,0
3:00.442,64959,),0,0,1
3:00.447,64961,(,0,0,2
3:00.517,64986,t,0,0,1
3:00.689,65048,),0,0,2
3:01.036,65173,(,0,0,0
3:01.069,65185,p,0,0,0
3:01.106,65198,),0,0,0
3:01.175,65223,(,0,0,1
3:01.228,65242,N,0,0,0
3:01.269,65257,),0,0,1
3:01.406,65306,(,0,0,2
3:01.519,65347,t,0,0,0
3:01.589,65372,),0,0,2
3:01.808,65451,(,0,0,1
3:01.853,65467,N,0,0,0
3:01.894,65482,),0,0,1
3:02.003,65521,(,0,0,2
3:02.136,65569,t,0,0,5
3:02.222,65600,t,0,0,5
3:02.267,65616,),0,0,2
3:02.506,65702,(,0,0,1
3:02.556,65720,N,0,0,0
3:02.597,65735,),0,0,1
3:02.719,65779,(,0,0,2
3:02.842,65823,t,0,0,0
3:02.903,65845,),0,0,2
3:02.931,65855,(,0,0,1
3:03.022,65888,N,0,0,0
3:03.131,65927,),0,0,1
3:03.136,65929,(,0,0,2
3:03.233,65964,t,0,0,1
3:03.367,66012,),0,0,2
3:04.056,66260,(,0,0,1
3:04.131,66287,N,0,0,0
3:04.169,66301,),0,0,1
3:04.333,66360,(,0,0,2
3:04.442,66399,t,0,0,0
3:04.536,66433,),0,0,2
3:05.317,66714,(,0,0,1
3:05.394,66742,N,0,0,0
3:05.433,66756,),0,0,1
3:05.589,66812,(,0,0,2
3:05.692,66849,t,0,0,0
3:05.758,66873,),0,0,2
3:06.178,67024,(,0,0,1
3:06.231,67043,N,0,0,0
3:06.272,67058,),0,0,1
3:06.331,67079,(,0,0,2
3:06.364,67091,t,0,0,1
3:06.483,67134,),0,0,2
3:06.486,67135,(,0,0,0
3:06.497,67139,p,0,0,0
3:06.567,67164,),0,0,0
3:06.597,67175,(,0,0,1
3:06.683,67206,N,0,0,0
3:06.786,67243,),0,0,1
3:06.792,67245,(,0,0,2
3:06.861,67270,t,0,0,1
3:06.981,67313,),0,0,2
3:07.336,67441,(,0,0,0
3:07.372,67454,p,0,0,0
3:07.464,67487,),0,0,0
3:07.486,67495,(,0,0,1
3:07.533,67512,N,0,0,0
3:07.569,67525,),0,0,1
3:07.700,67572,(,0,0,2
3:07.822,67616,t,0,0,0
3:07.925,67653,),0,0,2
3:08.172,67742,(,0,0,1
3:08.219,67759,N,0,0,0
3:08.261,67774,),0,0,1
3:08.403,67825,(,0,0,2
3:08.492,67857,t,0,0,0
3:08.578,67888,),0,0,2
3:08.914,68009,(,0,0,1
3:08.989,68036,N,0,0,0
3:09.033,68052,),0,0,1
3:09.086,68071,t,0,0,2
3:09.269,68137,),0,0,2
3:09.381,68177,(,0,0,1
3:09.475,68211,N,0,0,0
3:09.581,68249,),0,0,1
3:09.586,68251,(,0,0,2
3:09.683,68286,t,0,0,1
3:09.828,68338,),0,0,2
3:09.986,68395,(,0,0,0
3:10.044,68416,p,0,0,0
3:10.092,68433,),0,0,0
3:10.222,68480,(,0,0,1
3:10.286,68503,N,0,0,0
3:10.331,68519,),0,0,1
3:10.506,68582,(,0,0,2
3:10.589,68612,t,0,0,0
3:10.661,68638,),0,0,2
3:11.344,68884,(,0,0,0
3:11.400,68904,p,0,0,0
3:11.439,68918,),0,0,0
3:11.567,68964,(,0,0,1
3:11.617,68982,N,0,0,0
3:11.653,68995,),0,0,1
3:11.789,69044,(,0,0,2
3:11.892,69081,t,0,0,0
3:11.972,69110,),0,0,2
3:12.308,69231,(,0,0,0
3:12.364,69251,p,0,0,0
3:12.458,69285,),0,0,0
3:12.489,69296,(,0,0,1
3:12.539,69314,N,0,0,0
3:12.572,69326,),0,0,1
3:12.692,69369,(,0,0,2
3:12.797,69407,t,0,0,0
3:12.903,69445,),0,0,2
3:12.906,69446,(,0,0,0
3:12.917,69450,p,0,0,0
3:12.944,69460,),0,0,0
3:13.167,69540,(,0,0,1
3:13.211,69556,N,0,0,0
3:13.253,69571,),0,0,1
3:13.378,69616,(,0,0,2
3:13.472,69650,t,0,0,0
3:13.547,69677,),0,0,2
3:14.397,69983,(,0,0,1
3:14.447,70001,N,0,0,0
3:14.483,70014,),0,0,1
3:14.633,70068,(,0,0,2
3:14.731,70103,t,0,0,0
3:14.831,70139,),0,0,2
3:15.283,70302,(,0,0,1
3:15.344,70324,N,0,0,0
3:15.383,70338,),0,0,1
3:15.531,70391,(,0,0,2
3:15.642,70431,t,0,0,0
3:15.731,70463,),0,0,2
3:15.739,70466,(,0,0,0
3:15.756,70472,p,0,0,0
3:15.831,70499,),0,0,0
3:15.936,70537,(,0,0,1
3:15.994,70558,N,0,0,0
3:16.039,70574,),0,0,1
3:16.186,70627,(,0,0,2
3:16.272,70658,t,0,0,0
3:16.347,70685,),0,0,2
3:16.683,70806,(,0,0,0
3:16.728,70822,p,0,0,0
3:16.822,70856,),0,0,0
3:16.869,70873,(,0,0,1
3:16.922,70892,N,0,0,0
3:16.953,70903,),0,0,1
3:17.064,70943,(,0,0,2
3:17.211,70996,t,0,0,5
3:17.317,71034,t,0,0,5
3:17.394,71062,),0,0,2
3:17.692,71169,(,0,0,1
3:17.753,71191,N,0,0,0
3:17.794,71206,),0,0,1
3:17.850,71226,(,0,0,2
3:17.886,71239,t,0,0,1
3:18.008,71283,),0,0,2
3:18.119,71323,(,0,0,1
3:18.214,71357,N,0,0,0
3:18.317,71394,),0,0,1
3:18.322,71396,(,0,0,2
3:18.383,71418,t,0,0,1
3:18.522,71468,),0,0,2
3:18.789,71564,(,0,0,0
3:18.836,71581,p,0,0,0
3:18.964,71627,),0,0,0
3:19.100,71676,(,0,0,1
3:19.153,71695,N,0,0,0
3:19.189,71708,),0,0,1
3:19.317,71754,(,0,0,2
3:19.431,71795,t,0,0,5
3:19.544,71836,t,0,0,5
3:19.592,71853,),0,0,2
3:19.758,71913,(,0,0,0
3:19.822,71936,p,0,0,0
3:19.867,71952,),0,0,0
3:19.983,71994,(,0,0,1
3:20.033,72012,N,0,0,0
3:20.081,72029,),0,0,1
3:20.203,72073,(,0,0,2
3:20.300,72108,t,0,0,0
3:20.411,72148,),0,0,2
3:20.764,72275,(,0,0,1
3:20.808,72291,N,0,0,0
3:20.856,72308,),0,0,1
3:20.992,72357,(,0,0,2
3:21.097,72395,t,0,0,0
3:21.197,72431,),0,0,2
3:21.542,72555,(,0,0,1
3:21.600,72576,N,0,0,0
3:21.647,72593,),0,0,1
3:21.775,72639,t,0,0,2
3:21.886,72679,),0,0,2
3:22.008,72723,(,0,0,1
3:22.100,72756,N,0,0,0
3:22.206,72794,),0,0,1
3:22.236,72805,(,0,0,2
3:22.306,72830,t,0,0,1
3:22.433,72876,),0,0,2
3:22.800,73008,(,0,0,0
3:22.844,73024,p,0,0,0
3:22.875,73035,),0,0,0
3:23.014,73085,(,0,0,1
3:23.075,73107,N,0,0,0
3:23.108,73119,),0,0,1
3:23.233,73164,(,0,0,2
3:23.375,73215,t,0,0,0
3:23.472,73250,),0,0,2
3:23.661,73318,(,0,0,1
3:23.728,73342,N,0,0,0
3:23.767,73356,),0,0,1
3:23.897,73403,(,0,0,2
3:23.989,73436,t,0,0,0
3:24.100,73476,),0,0,2
3:24.367,73572,(,0,0,1
3:24.428,73594,N,0,0,0
3:24.456,73604,),0,0,1
3:24.539,73634,t,0,0,2
3:24.683,73686,),0,0,2
3:24.686,73687,(,0,0,0
3:24.697,73691,p,0,0,0
3:24.756,73712,),0,0,0
3:24.797,73727,(,0,0,1
3:24.894,73762,N,0,0,0
3:25.006,73802,),0,0,1
3:25.033,73812,(,0,0,2
3:25.094,73834,t,0,0,1
3:25.214,73877,),0,0,2
3:25.736,74065,(,0,0,1
3:25.803,74089,N,0,0,0
3:25.833,74100,),0,0,1
3:25.981,74153,(,0,0,2
3:26.111,74200,t,0,0,0
3:26.200,74232,),0,0,2
3:27.169,74581,(,0,0,1
3:27.247,74609,N,0,0,0
3:27.286,74623,),0,0,1
3:27.428,74674,(,0,0,2
3:27.547,74717,t,0,0,0
3:27.650,74754,),0,0,2
3:27.967,74868,(,0,0,1
3:28.033,74892,N,0,0,0
3:28.064,74903,),0,0,1
3:28.181,74945,t,0,0,2
3:28.294,74986,),0,0,2
3:28.297,74987,(,0,0,0
3:28.308,74991,p,0,0,0
3:28.383,75018,),0,0,0
3:28.411,75028,(,0,0,1
3:28.506,75062,N,0,0,0
3:28.622,75104,),0,0,1
3:28.628,75106,(,0,0,2
3:28.706,75134,t,0,0,1
3:28.850,75186,),0,0,2
3:29.250,75330,(,0,0,1
3:29.325,75357,N,0,0,0
3:29.358,75369,),0,0,1
3:29.508,75423,(,0,0,2
3:29.625,75465,t,0,0,0
3:29.714,75497,),0,0,2
3:29.936,75577,(,0,0,1
3:29.997,75599,N,0,0,0
3:30.025,75609,),0,0,1
3:30.153,75655,(,0,0,2
3:30.253,75691,t,0,0,0
3:30.336,75721,),0,0,2
3:30.539,75794,(,0,0,1
3:30.619,75823,N,0,0,0
3:30.647,75833,),0,0,1
3:30.781,75881,(,0,0,2
3:30.875,75915,t,0,0,0
3:30.956,75944,),0,0,2
3:31.197,76031,(,0,0,1
3:31.242,76047,N,0,0,0
3:31.278,76060,),0,0,1
3:31.400,76104,(,0,0,2
3:31.489,76136,t,0,0,0
3:31.567,76164,),0,0,2
3:31.733,76224,(,0,0,0
3:31.769,76237,p,0,0,0
3:31.803,76249,),0,0,0
3:31.900,76284,(,0,0,1
3:31.950,76302,N,0,0,0
3:31.986,76315,),0,0,1
3:32.089,76352,(,0,0,2
3:32.228,76402,t,0,0,0
3:32.311,76432,),0,0,2
3:32.603,76537,(,0,0,1
3:32.669,76561,N,0,0,0
3:32.697,76571,),0,0,1
3:32.817,76614,t,0,0,2
3:32.944,76660,),0,0,2
3:33.119,76723,(,0,0,1
3:33.219,76759,N,0,0,0
3:33.322,76796,),0,0,1
3:33.328,76798,(,0,0,2
3:33.408,76827,t,0,0,1
3:33.539,76874,),0,0,2
3:33.961,77026,(,0,0,0
3:34.022,77048,p,0,0,0
3:34.133,77088,),0,0,0
3:34.153,77095,(,0,0,1
3:34.211,77116,N,0,0,0
3:34.250,77130,),0,0,1
3:34.375,77175,(,0,0,2
3:34.503,77221,t,0,0,0
3:34.611,77260,),0,0,2
3:34.636,77269,(,0,0,0
3:34.708,77295,p,0,0,0
3:34.772,77318,),0,0,0
3:34.925,77373,(,0,0,1
3:34.989,77396,N,0,0,0
3:35.031,77411,),0,0,1
3:35.158,77457,(,0,0,2
3:35.278,77500,t,0,0,5
3:35.383,77538,t,0,0,5
3:35.444,77560,),0,0,2
3:35.714,77657,(,0,0,1
3:35.764,77675,N,0,0,0
3:35.806,77690,),0,0,1
3:36.044,77776,(,0,0,2
3:36.133,77808,t,0,0,1
3:36.242,77847,),0,0,2
3:36.764,78035,(,0,0,0
3:36.814,78053,p,0,0,0
3:36.881,78077,),0,0,0
3:36.911,78088,(,0,0,1
3:36.964,78107,N,0,0,0
3:37.000,78120,),0,0,1
3:37.106,78158,(,0,0,2
3:37.236,78205,t,0,0,0
3:37.314,78233,),0,0,2
3:37.503,78301,(,0,0,1
3:37.556,78320,N,0,0,0
3:37.583,78330,),0,0,1
3:37.719,78379,(,0,0,2
3:37.817,78414,t,0,0,5
3:37.906,78446,t,0,0,5
3:37.992,78477,),0,0,2
3:38.172,78542,(,0,0,1
3:38.222,78560,N,0,0,0
3:38.261,78574,),0,0,1
3:38.347,78605,t,0,0,2
3:38.506,78662,),0,0,2
3:38.603,78697,(,0,0,1
3:38.703,78733,N,0,0,0
3:38.811,78772,),0,0,1
3:38.858,78789,(,0,0,2
3:38.903,78805,t,0,0,1
3:39.050,78858,),0,0,2
3:39.517,79026,(,0,0,1
3:39.597,79055,N,0,0,0
3:39.636,79069,),0,0,1
3:39.775,79119,(,0,0,2
3:39.908,79167,t,0,0,0
3:39.989,79196,),0,0,2
3:40.239,79286,(,0,0,1
3:40.292,79305,N,0,0,0
3:40.333,79320,),0,0,1
3:40.442,79359,(,0,0,2
3:40.558,79401,t,0,0,5
3:40.656,79436,t,0,0,5
3:40.706,79454,),0,0,2
3:41.022,79568,(,0,0,0
3:41.083,79590,p,0,0,0
3:41.158,79617,),0,0,0
3:41.267,79656,(,0,0,1
3:41.314,79673,N,0,0,0
3:41.350,79686,),0,0,1
3:41.464,79727,(,0,0,2
3:41.600,79776,t,0,0,5
3:41.692,79809,t,0,0,5
3:41.733,79824,),0,0,2
3:41.997,79919,(,0,0,1
3:42.058,79941,N,0,0,0
3:42.100,79956,),0,0,1
3:42.244,80008,(,0,0,0
3:42.328,80038,p,0,0,0
3:42.394,80062,),0,0,0
3:42.433,80076,(,0,0,1
3:42.542,80115,N,0,0,0
3:42.639,80150,),0,0,1
3:42.644,80152,(,0,0,2
3:42.739,80186,t,0,0,1
3:42.831,80219,),0,0,2
3:43.369,80413,(,0,0,1
3:43.425,80433,N,0,0,0
3:43.461,80446,),0,0,1
3:43.572,80486,(,0,0,2
3:43.703,80533,t,0,0,0
3:43.775,80559,),0,0,2
3:43.969,80629,(,0,0,1
3:44.033,80652,N,0,0,0
3:44.078,80668,),0,0,1
3:44.214,80717,(,0,0,2
3:44.325,80757,t,0,0,5
3:44.417,80790,t,0,0,5
3:44.464,80807,),0,0,2
3:44.611,80860,(,0,0,1
3:44.669,80881,N,0,0,0
3:44.697,80891,),0,0,1
3:44.833,80940,(,0,0,2
3:44.942,80979,t,0,0,0
3:45.033,81012,),0,0,2
3:45.456,81164,(,0,0,1
3:45.542,81195,N,0,0,0
3:45.581,81209,),0,0,1
3:45.686,81247,t,0,0,2
3:45.842,81303,),0,0,2
3:45.936,81337,(,0,0,1
3:46.025,81369,N,0,0,0
3:46.131,81407,),0,0,1
3:46.164,81419,(,0,0,2
3:46.214,81437,t,0,0,1
3:46.347,81485,),0,0,2
3:46.636,81589,(,0,0,0
3:46.694,81610,p,0,0,0
3:46.747,81629,),0,0,0
3:46.939,81698,(,0,0,1
3:46.989,81716,N,0,0,0
3:47.028,81730,),0,0,1
3:47.161,81778,(,0,0,2
3:47.294,81826,t,0,0,0
3:47.358,81849,),0,0,2
3:47.717,81978,(,0,0,0
3:47.739,81986,p,0,0,0
3:47.803,82009,),0,0,0
3:47.847,82025,(,0,0,1
3:47.906,82046,N,0,0,0
3:47.944,82060,),0,0,1
3:47.961,82066,(,0,0,2
3:48.019,82087,t,0,0,1
3:48.181,82145,),0,0,2
3:48.267,82176,(,0,0,1
3:48.356,82208,N,0,0,0
3:48.453,82243,),0,0,1
3:48.458,82245,(,0,0,2
3:48.531,82271,t,0,0,1
3:48.650,82314,),0,0,2
3:48.989,82436,(,0,0,0
3:49.011,82444,p,0,0,0
3:49.039,82454,),0,0,0
3:49.183,82506,(,0,0,1
3:49.250,82530,N,0,0,0
3:49.281,82541,),0,0,1
3:49.431,82595,(,0,0,2
3:49.531,82631,t,0,0,0
3:49.611,82660,),0,0,2
3:49.839,82742,(,0,0,1
3:49.900,82764,N,0,0,0
3:49.931,82775,),0,0,1
3:50.058,82821,(,0,0,2
3:50.181,82865,t,0,0,5
3:50.267,82896,t,0,0,5
3:50.300,82908,),0,0,2
3:50.353,82927,(,0,0,0
3:50.386,82939,p,0,0,0
3:50.442,82959,),0,0,0
3:50.464,82967,(,0,0,1
3:50.514,82985,N,0,0,0
3:50.542,82995,),0,0,1
3:50.647,83033,(,0,0,2
3:50.781,83081,t,0,0,5
3:50.875,83115,t,0,0,5
3:50.947,83141,),0,0,2
3:51.158,83217,(,0,0,1
3:51.225,83241,N,0,0,0
3:51.264,83255,),0,0,1
3:51.353,83287,t,0,0,2
3:51.514,83345,),0,0,2
3:51.614,83381,(,0,0,1
3:51.697,83411,N,0,0,0
3:51.800,83448,),0,0,1
3:51.806,83450,(,0,0,2
3:51.889,83480,t,0,0,1
3:52.011,83524,),0,0,2
3:52.539,83714,(,0,0,1
3:52.619,83743,N,0,0,0
3:52.647,83753,),0,0,1
3:52.808,83811,(,0,0,2
3:52.919,83851,t,0,0,0
3:52.989,83876,),0,0,2
3:53.189,83948,(,0,0,1
3:53.236,83965,N,0,0,0
3:53.264,83975,),0,0,1
3:53.394,84022,(,0,0,2
3:53.533,84072,t,0,0,0
3:53.608,84099,),0,0,2
3:53.792,84165,(,0,0,0
3:53.828,84178,p,0,0,0
3:53.864,84191,),0,0,0
3:54.006,84242,(,0,0,1
3:54.064,84263,N,0,0,0
3:54.094,84274,),0,0,1
3:54.225,84321,(,0,0,2
3:54.336,84361,t,0,0,0
3:54.431,84395,),0,0,2
3:54.819,84535,(,0,0,1
3:54.892,84561,N,0,0,0
3:54.928,84574,),0,0,1
3:55.044,84616,(,0,0,2
3:55.142,84651,t,0,0,0
3:55.206,84674,),0,0,2
3:55.242,84687,(,0,0,1
3:55.322,84716,N,0,0,0
3:55.428,84754,),0,0,1
3:55.481,84773,t,0,0,2
3:55.617,84822,),0,0,2
3:55.883,84918,(,0,0,0
3:55.956,84944,p,0,0,0
3:56.022,84968,),0,0,0
3:56.192,85029,(,0,0,1
3:56.253,85051,N,0,0,0
3:56.294,85066,),0,0,1
3:56.339,85082,(,0,0,2
3:56.406,85106,t,0,0,4
3:56.556,85160,t,0,0,4
3:56.642,85191,),0,0,2
3:56.875,85275,(,0,0,1
3:56.936,85297,N,0,0,0
3:56.983,85314,),0,0,1
3:57.178,85384,(,0,0,2
3:57.247,85409,t,0,0,5
3:57.342,85443,t,0,0,5
3:57.397,85463,),0,0,2
3:57.589,85532,(,0,0,1
3:57.642,85551,N,0,0,0
3:57.689,85568,),0,0,1
3:57.817,85614,t,0,0,2
3:57.908,85647,),0,0,2
3:57.911,85648,(,0,0,0
3:57.925,85653,p,0,0,0
3:57.986,85675,),0,0,0
3:58.039,85694,(,0,0,1
3:58.136,85729,N,0,0,0
3:58.247,85769,),0,0,1
3:58.253,85771,(,0,0,2
3:58.361,85810,t,0,0,1
3:58.483,85854,),0,0,2
3:58.906,86006,(,0,0,1
3:58.983,86034,N,0,0,0
3:59.011,86044,),0,0,1
3:59.147,86093,(,0,0,2
3:59.272,86138,t,0,0,5
3:59.378,86176,t,0,0,5
3:59.439,86198,),0,0,2
3:59.614,86261,(,0,0,1
3:59.664,86279,N,0,0,0
3:59.700,86292,),0,0,1
3:59.822,86336,(,0,0,2
3:59.919,86371,t,0,0,0
4:00.000,86400,),0,0,2
4:00.003,86401,(,0,0,0
4:00.022,86408,p,0,0,0
4:00.067,86424,),0,0,0
4:00.250,86490,(,0,0,1
4:00.303,86509,N,0,0,0
4:00.331,86519,),0,0,1
4:00.414,86549,t,0,0,2
4:00.556,86600,),0,0,2
4:00.664,86639,(,0,0,1
4:00.750,86670,N,0,0,0
4:00.847,86705,),0,0,1
4:00.853,86707,(,0,0,2
4:00.931,86735,t,0,0,1
4:01.047,86777,),0,0,2
4:01.508,86943,(,0,0,1
4:01.564,86963,N,0,0,0
4:01.592,86973,),0,0,1
4:01.728,87022,(,0,0,2
4:01.842,87063,t,0,0,0
4:01.925,87093,),0,0,2
4:01.997,87119,(,0,0,0
4:02.036,87133,p,0,0,0
4:02.136,87169,),0,0,0
4:02.189,87188,(,0,0,1
4:02.275,87219,N,0,0,0
4:02.319,87235,),0,0,1
4:02.433,87276,(,0,0,2
4:02.567,87324,t,0,0,0
4:02.653,87355,),0,0,2
4:03.186,87547,(,0,0,1
4:03.244,87568,N,0,0,0
4:03.275,87579,),0,0,1
4:03.436,87637,t,0,0,2
4:03.550,87678,),0,0,2
4:03.647,87713,(,0,0,1
4:03.742,87747,N,0,0,0
4:03.856,87788,),0,0,1
4:04.681,88085,(,0,0,1
4:04.742,88107,N,0,0,0
4:04.786,88123,),0,0,1
4:04.903,88165,(,0,0,2
4:05.028,88210,t,0,0,0
4:05.108,88239,),0,0,2
4:05.150,88254,(,0,0,0
4:05.214,88277,p,0,0,0
4:05.297,88307,),0,0,0
4:05.314,88313,(,0,0,1
4:05.378,88336,N,0,0,0
4:05.422,88352,),0,0,1
4:05.556,88400,(,0,0,2
4:05.656,88436,t,0,0,5
4:05.739,88466,t,0,0,5
4:05.806,88490,),0,0,2
4:06.044,88576,(,0,0,1
4:06.097,88595,N,0,0,0
4:06.125,88605,),0,0,1
4:06.233,88644,t,0,0,2
4:06.372,88694,),0,0,2
4:06.467,88728,(,0,0,1
4:06.547,88757,N,0,0,0
4:06.647,88793,),0,0,1
4:06.653,88795,(,0,0,2
4:06.708,88815,t,0,0,1
4:06.853,88867,),0,0,2
4:07.625,89145,(,0,0,1
4:07.692,89169,N,0,0,0
4:07.725,89181,),0,0,1
4:07.833,89220,t,0,0,2
4:07.972,89270,),0,0,2
4:07.997,89279,(,0,0,0
4:08.064,89303,p,0,0,0
4:08.106,89318,),0,0,0
4:08.133,89328,(,0,0,1
4:08.172,89342,N,0,0,0
4:08.414,89429,),0,0,1
4:08.417,89430,t,0,0,3
4:08.550,89478,),0,0,2
4:08.825,89577,(,0,0,0
4:08.903,89605,p,0,0,0
4:08.981,89633,),0,0,0
4:09.006,89642,(,0,0,1
4:09.075,89667,N,0,0,0
4:09.119,89683,),0,0,1
4:09.342,89763,(,0,0,2
4:09.394,89782,t,0,0,0
4:09.464,89807,),0,0,2
4:09.731,89903,(,0,0,1
4:09.786,89923,N,0,0,0
4:09.814,89933,),0,0,1
4:09.908,89967,(,0,0,2
4:10.056,90020,t,0,0,5
4:10.147,90053,t,0,0,5
4:10.219,90079,),0,0,2
4:10.869,90313,(,0,0,1
4:10.944,90340,N,0,0,0
4:10.972,90350,),0,0,1
4:11.083,90390,(,0,0,2
4:11.233,90444,t,0,0,0
4:11.319,90475,),0,0,2
4:11.572,90566,(,0,0,1
4:11.631,90587,N,0,0,0
4:11.675,90603,),0,0,1
4:11.792,90645,(,0,0,2
4:11.892,90681,t,0,0,0
4:11.989,90716,),0,0,2
4:12.214,90797,(,0,0,1
4:12.269,90817,N,0,0,0
4:12.308,90831,),0,0,1
4:12.414,90869,(,0,0,2
4:12.525,90909,t,0,0,0
4:12.622,90944,),0,0,2
4:12.628,90946,(,0,0,0
4:12.639,90950,p,0,0,0
4:12.714,90977,),0,0,0
4:12.911,91048,(,0,0,1
4:12.967,91068,N,0,0,0
4:12.994,91078,),0,0,1
4:13.119,91123,(,0,0,2
4:13.222,91160,t,0,0,0
4:13.308,91191,),0,0,2
4:13.528,91270,(,0,0,1
4:13.581,91289,N,0,0,0
4:13.608,91299,),0,0,1
4:13.733,91344,(,0,0,2
4:13.831,91379,t,0,0,0
4:13.908,91407,),0,0,2
4:13.911,91408,(,0,0,0
4:13.931,91415,p,0,0,0
4:13.989,91436,),0,0,0
4:14.108,91479,(,0,0,1
4:14.167,91500,N,0,0,0
4:14.197,91511,),0,0,1
4:14.322,91556,(,0,0,2
4:14.439,91598,t,0,0,0
4:14.519,91627,),0,0,2
4:14.525,91629,(,0,0,0
4:14.544,91636,p,0,0,0
4:14.628,91666,),0,0,0
4:14.722,91700,(,0,0,1
4:14.789,91724,N,0,0,0
4:14.828,91738,),0,0,1
4:14.956,91784,(,0,0,2
4:15.078,91828,t,0,0,0
4:15.172,91862,),0,0,2
4:15.367,91932,(,0,0,1
4:15.458,91965,N,0,0,0
4:15.489,91976,),0,0,1
4:15.639,92030,(,0,0,2
4:15.758,92073,t,0,0,0
4:15.839,92102,),0,0,2
4:15.975,92151,(,0,0,0
4:16.053,92179,p,0,0,0
4:16.153,92215,),0,0,0
4:16.186,92227,(,0,0,1
4:16.244,92248,N,0,0,0
4:16.275,92259,),0,0,1
4:16.414,92309,(,0,0,2
4:16.528,92350,t,0,0,0
4:16.622,92384,),0,0,2
4:16.700,92412,(,0,0,0
4:16.742,92427,p,0,0,0
4:16.789,92444,),0,0,0
4:16.914,92489,(,0,0,1
4:16.972,92510,N,0,0,0
4:17.011,92524,),0,0,1
4:17.111,92560,t,0,0,2
4:17.219,92599,),0,0,2
4:17.342,92643,(,0,0,1
4:17.433,92676,N,0,0,0
4:17.556,92720,),0,0,1
4:17.561,92722,(,0,0,2
4:17.636,92749,t,0,0,1
4:17.772,92798,),0,0,2
4:17.844,92824,(,0,0,0
4:17.922,92852,p,0,0,0
4:17.986,92875,),0,0,0
4:18.175,92943,(,0,0,1
4:18.261,92974,N,0,0,0
4:18.292,92985,),0,0,1
4:18.408,93027,(,0,0,2
4:18.525,93069,t,0,0,0
4:18.608,93099,),0,0,2
4:18.611,93100,(,0,0,0
4:18.669,93121,p,0,0,0
4:18.747,93149,),0,0,0
4:18.817,93174,(,0,0,1
4:18.867,93192,N,0,0,0
4:18.894,93202,),0,0,1
4:19.003,93241,(,0,0,2
4:19.108,93279,t,0,0,0
4:19.194,93310,),0,0,2
4:19.406,93386,(,0,0,1
4:19.483,93414,N,0,0,0
4:19.511,93424,),0,0,1
4:19.578,93448,t,0,0,2
4:19.739,93506,),0,0,2
4:19.856,93548,(,0,0,1
4:19.972,93590,N,0,0,0
4:20.089,93632,),0,0,1
4:20.175,93663,t,0,0,2
4:20.289,93704,),0,0,2
4:21.000,93960,(,0,0,1
4:21.064,93983,N,0,0,0
4:21.094,93994,),0,0,1
4:21.236,94045,(,0,0,2
4:21.367,94092,t,0,0,0
4:21.467,94128,),0,0,2
4:21.711,94216,(,0,0,1
4:21.764,94235,N,0,0,0
4:21.808,94251,),0,0,1
4:21.936,94297,(,0,0,2
4:22.036,94333,t,0,0,0
4:22.117,94362,),0,0,2
4:22.356,94448,(,0,0,1
4:22.439,94478,N,0,0,0
4:22.483,94494,),0,0,1
4:22.550,94518,t,0,0,2
4:22.697,94571,),0,0,2
4:22.806,94610,(,0,0,1
4:22.900,94644,N,0,0,0
4:23.019,94687,),0,0,1
4:23.025,94689,(,0,0,2
4:23.083,94710,t,0,0,1
4:23.222,94760,),0,0,2
4:23.731,94943,(,0,0,1
4:23.817,94974,N,0,0,0
4:23.856,94988,),0,0,1
4:23.967,95028,(,0,0,2
4:24.106,95078,t,0,0,0
4:24.186,95107,),0,0,2
4:24.403,95185,(,0,0,1
4:24.450,95202,N,0,0,0
4:24.497,95219,),0,0,1
4:24.619,95263,(,0,0,2
4:24.714,95297,t,0,0,0
4:24.794,95326,),0,0,2
4:24.958,95385,(,0,0,0
4:24.997,95399,p,0,0,0
4:25.058,95421,),0,0,0
4:25.092,95433,(,0,0,1
4:25.153,95455,N,0,0,0
4:25.189,95468,),0,0,1
4:25.306,95510,(,0,0,2
4:25.414,95549,t,0,0,0
4:25.500,95580,),0,0,2
4:25.842,95703,(,0,0,1
4:25.894,95722,N,0,0,0
4:25.931,95735,),0,0,1
4:26.056,95780,(,0,0,2
4:26.164,95819,t,0,0,5
4:26.253,95851,t,0,0,5
4:26.306,95870,),0,0,2
4:26.503,95941,(,0,0,1
4:26.550,95958,N,0,0,0
4:26.592,95973,),0,0,1
4:26.694,96010,(,0,0,2
4:26.819,96055,t,0,0,0
4:26.911,96088,),0,0,2
4:26.942,96099,(,0,0,0
4:27.014,96125,p,0,0,0
4:27.075,96147,),0,0,0
4:27.136,96169,(,0,0,1
4:27.189,96188,N,0,0,0
4:27.225,96201,),0,0,1
4:27.361,96250,(,0,0,2
4:27.447,96281,t,0,0,0
4:27.525,96309,),0,0,2
4:27.583,96330,(,0,0,1
4:27.675,96363,N,0,0,0
4:27.789,96404,),0,0,1
4:27.794,96406,(,0,0,2
4:27.881,96437,t,0,0,1
4:28.017,96486,),0,0,2
4:28.567,96684,(,0,0,1
4:28.647,96713,N,0,0,0
4:28.678,96724,),0,0,1
4:28.822,96776,(,0,0,2
4:28.939,96818,t,0,0,0
4:29.019,96847,),0,0,2
4:29.242,96927,(,0,0,1
4:29.294,96946,N,0,0,0
4:29.322,96956,),0,0,1
4:29.444,97000,(,0,0,2
4:29.569,97045,t,0,0,0
4:29.664,97079,),0,0,2
4:29.983,97194,(,0,0,1
4:30.047,97217,N,0,0,0
4:30.075,97227,),0,0,1
4:30.225,97281,(,0,0,2
4:30.325,97317,t,0,0,0
4:30.403,97345,),0,0,2
4:30.572,97406,(,0,0,0
4:30.633,97428,p,0,0,0
4:30.667,97440,),0,0,0
4:30.769,97477,(,0,0,1
4:30.844,97504,N,0,0,0
4:30.881,97517,),0,0,1
4:30.933,97536,t,0,0,2
4:31.092,97593,),0,0,2
4:31.203,97633,(,0,0,1
4:31.297,97667,N,0,0,0
4:31.400,97704,),0,0,1
4:31.406,97706,(,0,0,2
4:31.492,97737,t,0,0,1
4:31.606,97778,),0,0,2
4:32.164,97979,(,0,0,1
4:32.211,97996,N,0,0,0
4:32.242,98007,),0,0,1
4:32.350,98046,(,0,0,2
4:32.494,98098,t,0,0,0
4:32.592,98133,),0,0,2
4:32.806,98210,(,0,0,1
4:32.861,98230,N,0,0,0
4:32.903,98245,),0,0,1
4:33.033,98292,(,0,0,2
4:33.131,98327,t,0,0,0
4:33.217,98358,),0,0,2
4:33.383,98418,(,0,0,1
4:33.458,98445,N,0,0,0
4:33.486,98455,),0,0,1
4:33.589,98492,(,0,0,2
4:33.744,98548,t,0,0,0
4:33.842,98583,),0,0,2
4:33.961,98626,(,0,0,0
4:34.006,98642,p,0,0,0
4:34.047,98657,),0,0,0
4:34.072,98666,(,0,0,1
4:34.119,98683,N,0,0,0
4:34.164,98699,),0,0,1
4:34.275,98739,(,0,0,2
4:34.394,98782,t,0,0,0
4:34.464,98807,),0,0,2
4:34.547,98837,(,0,0,1
4:34.642,98871,N,0,0,0
4:34.744,98908,),0,0,1
4:34.772,98918,(,0,0,2
4:34.858,98949,t,0,0,1
4:34.969,98989,),0,0,2
4:38.294,100186,(,0,0,0
4:38.400,100224,p,0,0,0
4:38.464,100247,),0,0,0
4:38.550,100278,(,0,0,1
4:38.614,100301,N,0,0,0
4:38.658,100317,),0,0,1
4:38.675,100323,(,0,0,2
4:39.069,100465,t,0,0,1
4:39.442,100599,),0,0,2
4:40.439,100958,(,0,0,0
4:40.511,100984,p,0,0,0
4:40.589,101012,),0,0,0
4:40.647,101033,(,0,0,1
4:40.725,101061,N,0,0,0
4:40.772,101078,),0,0,1
4:40.786,101083,(,0,0,2
4:40.925,101133,t,0,0,1
4:41.039,101174,),0,0,2
4:43.789,102164,(,0,0,0
4:43.881,102197,p,0,0,0
4:43.956,102224,),0,0,0
4:44.058,102261,(,0,0,1
4:44.139,102290,N,0,0,0
4:44.194,102310,),0,0,1
4:44.222,102320,(,0,0,2
4:44.631,102467,t,0,0,1
4:44.972,102590,),0,0,2
4:45.906,102926,(,0,0,0
4:46.006,102962,p,0,0,0
4:46.075,102987,),0,0,0
4:46.178,103024,(,0,0,1
4:46.250,103050,N,0,0,0
4:46.300,103068,),0,0,1
4:46.322,103076,(,0,0,2
4:46.697,103211,t,0,0,1
4:47.086,103351,),0,0,2
4:48.778,103960,(,0,0,0
4:48.853,103987,p,0,0,0
4:48.908,104007,),0,0,0
4:48.967,104028,(,0,0,1
4:49.036,104053,N,0,0,0
4:49.078,104068,),0,0,1
4:49.111,104080,(,0,0,2
4:49.214,104117,t,0,0,1
4:49.311,104152,),0,0,2
4:50.872,104714,(,0,0,0
4:50.964,104747,p,0,0,0
4:51.031,104771,),0,0,0
4:51.083,104790,(,0,0,1
4:51.156,104816,N,0,0,0
4:51.203,104833,),0,0,1
4:51.225,104841,(,0,0,2
4:51.328,104878,t,0,0,1
4:51.486,104935,),0,0,2
4:53.283,105582,(,0,0,0
4:53.356,105608,p,0,0,0
4:53.433,105636,),0,0,0
4:53.469,105649,(,0,0,1
4:53.547,105677,N,0,0,0
4:53.594,105694,),0,0,1
4:53.608,105699,(,0,0,2
4:53.725,105741,t,0,0,1
4:53.864,105791,),0,0,2
4:55.661,106438,(,0,0,0
4:55.731,106463,p,0,0,0
4:55.794,106486,),0,0,0
4:55.925,106533,(,0,0,1
4:55.961,106546,N,0,0,0
4:55.986,106555,),0,0,1
4:56.544,106756,(,0,0,2
4:56.581,106769,t,0,0,0
4:56.619,106783,),0,0,2
4:56.772,106838,(,0,0,0
4:56.878,106876,p,0,0,0
4:56.931,106895,),0,0,0
4:56.989,106916,(,0,0,1
4:57.064,106943,N,0,0,0
4:57.111,106960,),0,0,1
4:57.125,106965,(,0,0,2
4:57.514,107105,t,0,0,1
4:57.897,107243,),0,0,2
4:59.428,107794,(,0,0,0
4:59.503,107821,p,0,0,0
4:59.567,107844,),0,0,0
4:59.619,107863,(,0,0,1
4:59.694,107890,N,0,0,0
4:59.739,107906,),0,0,1
4:59.769,107917,(,0,0,2
4:59.886,107959,t,0,0,4
5:00.356,108128,t,0,0,4
5:00.558,108201,),0,0,2
5:01.525,108549,(,0,0,0
5:01.608,108579,p,0,0,0
5:01.672,108602,),0,0,0
5:01.728,108622,(,0,0,1
5:01.800,108648,N,0,0,0
5:01.847,108665,),0,0,1
5:01.858,108669,(,0,0,2
5:02.244,108808,t,0,0,1
5:02.608,108939,),0,0,2
5:05.892,110121,(,0,0,0
5:05.969,110149,p,0,0,0
5:06.039,110174,),0,0,0
5:06.081,110189,(,0,0,1
5:06.153,110215,N,0,0,0
5:06.197,110231,),0,0,1
5:06.214,110237,(,0,0,2
5:06.603,110377,t,0,0,1
5:06.981,110513,),0,0,2
5:08.528,111070,(,0,0,1
5:08.564,111083,N,0,0,0
5:08.589,111092,),0,0,1
5:09.250,111330,(,0,0,2
5:09.286,111343,t,0,0,0
5:09.328,111358,),0,0,2
5:10.150,111654,(,0,0,0
5:10.225,111681,p,0,0,0
5:10.328,111718,),0,0,0
5:10.506,111782,(,0,0,1
5:10.578,111808,N,0,0,0
5:10.625,111825,),0,0,1
5:10.644,111832,(,0,0,2
5:10.775,111879,t,0,0,1
5:10.906,111926,),0,0,2
5:12.547,112517,(,0,0,0
5:12.639,112550,p,0,0,0
5:12.708,112575,),0,0,0
5:12.750,112590,(,0,0,1
5:12.822,112616,N,0,0,0
5:12.867,112632,),0,0,1
5:13.503,112861,(,0,0,2
5:13.536,112873,t,0,0,0
5:13.572,112886,),0,0,2
5:15.122,113444,(,0,0,0
5:15.211,113476,p,0,0,0
5:15.283,113502,),0,0,0
5:15.369,113533,(,0,0,1
5:15.439,113558,N,0,0,0
5:15.489,113576,),0,0,1
5:15.506,113582,(,0,0,2
5:15.889,113720,t,0,0,1
5:16.250,113850,),0,0,2
5:17.211,114196,(,0,0,0
5:17.286,114223,p,0,0,0
5:17.358,114249,),0,0,0
5:17.575,114327,(,0,0,1
5:17.611,114340,N,0,0,0
5:17.639,114350,),0,0,1
5:18.353,114607,(,0,0,2
5:18.386,114619,t,0,0,0
5:18.425,114633,),0,0,2
5:21.711,115816,(,0,0,0
5:21.794,115846,p,0,0,0
5:21.881,115877,),0,0,0
5:21.986,115915,(,0,0,1
5:22.022,115928,N,0,0,0
5:22.050,115938,),0,0,1
5:22.619,116143,(,0,0,2
5:22.653,116155,t,0,0,0
5:22.694,116170,),0,0,2
5:22.822,116216,(,0,0,0
5:22.925,116253,p,0,0,0
5:22.981,116273,),0,0,0
5:23.081,116309,(,0,0,1
5:23.158,116337,N,0,0,0
5:23.203,116353,),0,0,1
5:23.881,116597,(,0,0,2
5:23.914,116609,t,0,0,0
5:23.950,116622,),0,0,2
5:27.803,118009,(,0,0,0
5:27.894,118042,p,0,0,0
5:27.975,118071,),0,0,0
5:28.036,118093,(,0,0,1
5:28.106,118118,N,0,0,0
5:28.153,118135,),0,0,1
5:28.169,118141,(,0,0,2
5:28.283,118182,t,0,0,1
5:28.403,118225,),0,0,2
5:32.667,119760,(,0,0,0
5:32.775,119799,p,0,0,0
5:32.839,119822,),0,0,0
5:32.886,119839,(,0,0,1
5:32.958,119865,N,0,0,0
5:33.006,119882,),0,0,1
5:33.025,119889,(,0,0,2
5:33.139,119930,t,0,0,1
5:33.297,119987,),0,0,2
5:36.525,121149,(,0,0,0
5:36.600,121176,p,0,0,0
5:36.672,121202,),0,0,0
5:36.711,121216,(,0,0,1
5:36.781,121241,N,0,0,0
5:36.822,121256,),0,0,1
5:36.833,121260,(,0,0,2
5:36.958,121305,t,0,0,1
5:37.067,121344,),0,0,2
5:42.489,123296,(,0,0,0
5:42.544,123316,p,0,0,0
5:42.581,123329,),0,0,0
5:42.747,123389,(,0,0,1
5:42.783,123402,N,0,0,0
5:42.811,123412,),0,0,1
5:43.389,123620,(,0,0,2
5:43.422,123632,t,0,0,0
5:43.458,123645,),0,0,2
5:45.219,124279,(,0,0,0
5:45.253,124291,p,0,0,0
5:45.292,124305,),0,0,0
5:45.364,124331,(,0,0,1
5:45.400,124344,N,0,0,0
5:45.431,124355,),0,0,1
5:46.033,124572,(,0,0,2
5:46.069,124585,t,0,0,0
5:46.108,124599,),0,0,2
5:49.947,125981,(,0,0,0
5:50.025,126009,p,0,0,0
5:50.097,126035,),0,0,0
5:50.156,126056,(,0,0,1
5:50.228,126082,N,0,0,0
5:50.272,126098,),0,0,1
5:50.303,126109,(,0,0,2
5:50.406,126146,t,0,0,1
5:50.539,126194,),0,0,2
5:50.989,126356,(,0,0,0
5:51.003,126361,p,0,0,0
5:51.039,126374,),0,0,0
5:51.167,126420,(,0,0,1
5:51.200,126432,N,0,0,0
5:51.228,126442,),0,0,1
5:51.792,126645,(,0,0,2
5:51.828,126658,t,0,0,0
5:51.869,126673,),0,0,2
5:54.164,127499,(,0,0,0
5:54.206,127514,p,0,0,0
5:54.261,127534,),0,0,0
5:54.461,127606,(,0,0,1
5:54.494,127618,N,0,0,0
5:54.522,127628,),0,0,1
5:54.625,127665,(,0,0,2
5:54.778,127720,t,0,0,5
5:54.869,127753,t,0,0,5
5:54.925,127773,),0,0,2
5:56.542,128355,(,0,0,0
5:56.633,128388,p,0,0,0
5:56.656,128396,),0,0,0
5:56.847,128465,(,0,0,1
5:56.922,128492,N,0,0,0
5:56.975,128511,),0,0,1
5:56.992,128517,(,0,0,2
5:57.114,128561,t,0,0,1
5:57.247,128609,),0,0,2
6:02.839,130622,(,0,0,0
6:02.922,130652,p,0,0,0
6:02.994,130678,),0,0,0
6:03.067,130704,(,0,0,1
6:03.147,130733,N,0,0,0
6:03.203,130753,),0,0,1
6:03.208,130755,(,0,0,2
6:03.383,130818,t,0,0,1
6:03.528,130870,),0,0,2
6:03.817,130974,(,0,0,0
6:03.869,130993,p,0,0,0
6:03.919,131011,),0,0,0
6:04.125,131085,(,0,0,1
6:04.164,131099,N,0,0,0
6:04.192,131109,),0,0,1
6:04.869,131353,(,0,0,2
6:04.903,131365,t,0,0,0
6:04.944,131380,),0,0,2
6:07.183,132186,(,0,0,1
6:07.217,132198,N,0,0,0
6:07.242,132207,),0,0,1
6:07.778,132400,(,0,0,2
6:07.814,132413,t,0,0,0
6:07.856,132428,),0,0,2
6:10.411,133348,(,0,0,1
6:10.450,133362,N,0,0,0
6:10.475,133371,),0,0,1
6:10.625,133425,(,0,0,2
6:10.739,133466,t,0,0,0
6:10.817,133494,),0,0,2
6:13.061,134302,(,0,0,0
6:13.147,134333,p,0,0,0
6:13.206,134354,),0,0,0
6:13.261,134374,(,0,0,1
6:13.336,134401,N,0,0,0
6:13.378,134416,),0,0,1
6:14.056,134660,(,0,0,2
6:14.092,134673,t,0,0,0
6:14.133,134688,),0,0,2
6:16.542,135555,(,0,0,0
6:16.603,135577,p,0,0,0
6:16.700,135612,),0,0,0
6:16.858,135669,(,0,0,1
6:16.894,135682,N,0,0,0
6:16.919,135691,),0,0,1
6:17.314,135833,(,0,0,2
6:17.369,135853,t,0,0,0
6:17.492,135897,),0,0,2
6:20.547,136997,(,0,0,0
6:20.589,137012,p,0,0,0
6:20.678,137044,),0,0,0
6:20.728,137062,(,0,0,1
6:20.764,137075,N,0,0,0
6:20.792,137085,),0,0,1
6:21.408,137307,(,0,0,2
6:21.444,137320,t,0,0,0
6:21.486,137335,),0,0,2
6:22.331,137639,(,0,0,0
6:22.419,137671,p,0,0,0
6:22.486,137695,),0,0,0
6:22.528,137710,(,0,0,1
6:22.606,137738,N,0,0,0
6:22.653,137755,),0,0,1
6:22.667,137760,(,0,0,2
6:22.808,137811,t,0,0,1
6:22.936,137857,),0,0,2
6:24.489,138416,(,0,0,0
6:24.564,138443,p,0,0,0
6:24.625,138465,),0,0,0
6:24.689,138488,(,0,0,1
6:24.758,138513,N,0,0,0
6:24.803,138529,),0,0,1
6:24.836,138541,(,0,0,2
6:25.183,138666,t,0,0,1
6:25.581,138809,),0,0,2
6:26.914,139289,(,0,0,0
6:26.961,139306,p,0,0,0
6:27.017,139326,),0,0,0
6:27.069,139345,(,0,0,1
6:27.114,139361,N,0,0,0
6:27.144,139372,),0,0,1
6:27.697,139571,(,0,0,2
6:27.731,139583,t,0,0,0
6:27.772,139598,),0,0,2
6:29.575,140247,(,0,0,0
6:29.628,140266,p,0,0,0
6:29.675,140283,),0,0,0
6:29.844,140344,(,0,0,1
6:29.881,140357,N,0,0,0
6:29.906,140366,),0,0,1
6:29.958,140385,(,0,0,2
6:30.000,140400,t,0,0,4
6:30.158,140457,t,0,0,4
6:30.242,140487,),0,0,2
6:30.333,140520,(,0,0,0
6:30.375,140535,p,0,0,0
6:30.453,140563,),0,0,0
6:30.500,140580,(,0,0,1
6:30.536,140593,N,0,0,0
6:30.564,140603,),0,0,1
6:31.072,140786,(,0,0,2
6:31.106,140798,t,0,0,0
6:31.147,140813,),0,0,2
6:32.400,141264,(,0,0,1
6:32.436,141277,N,0,0,0
6:32.464,141287,),0,0,1
6:32.597,141335,(,0,0,2
6:32.708,141375,t,0,0,0
6:32.797,141407,),0,0,2
6:33.342,141603,(,0,0,1
6:33.383,141618,N,0,0,0
6:33.414,141629,),0,0,1
6:33.578,141688,(,0,0,2
6:33.681,141725,t,0,0,5
6:33.797,141767,t,0,0,5
6:33.844,141784,),0,0,2
6:34.036,141853,(,0,0,0
6:34.081,141869,p,0,0,0
6:34.175,141903,),0,0,0
6:34.208,141915,(,0,0,1
6:34.250,141930,N,0,0,0
6:34.281,141941,),0,0,1
6:34.692,142089,(,0,0,2
6:34.753,142111,t,0,0,0
6:34.806,142130,),0,0,2
6:35.631,142427,(,0,0,0
6:35.669,142441,p,0,0,0
6:35.714,142457,),0,0,0
6:35.744,142468,(,0,0,1
6:35.781,142481,N,0,0,0
6:35.806,142490,),0,0,1
6:35.936,142537,(,0,0,2
6:36.061,142582,t,0,0,0
6:36.128,142606,),0,0,2
6:36.181,142625,(,0,0,0
6:36.222,142640,p,0,0,0
6:36.303,142669,),0,0,0
6:36.381,142697,(,0,0,1
6:36.414,142709,N,0,0,0
6:36.439,142718,),0,0,1
6:36.550,142758,(,0,0,2
6:36.667,142800,t,0,0,0
6:36.747,142829,),0,0,2
6:36.919,142891,(,0,0,0
6:36.956,142904,p,0,0,0
6:36.983,142914,),0,0,0
6:37.017,142926,(,0,0,1
6:37.053,142939,N,0,0,0
6:37.078,142948,),0,0,1
6:37.197,142991,(,0,0,2
6:37.325,143037,t,0,0,0
6:37.406,143066,),0,0,2
6:37.408,143067,(,0,0,0
6:37.419,143071,p,0,0,0
6:37.472,143090,),0,0,0
6:37.636,143149,(,0,0,1
6:37.669,143161,N,0,0,0
6:37.694,143170,),0,0,1
6:38.064,143303,(,0,0,2
6:38.125,143325,t,0,0,0
6:38.236,143365,),0,0,2
6:38.700,143532,(,0,0,0
6:38.753,143551,p,0,0,0
6:38.811,143572,),0,0,0
6:38.900,143604,(,0,0,1
6:38.939,143618,N,0,0,0
6:38.964,143627,),0,0,1
6:39.133,143688,(,0,0,2
6:39.231,143723,t,0,0,0
6:39.314,143753,),0,0,2
6:39.656,143876,(,0,0,1
6:39.694,143890,N,0,0,0
6:39.719,143899,),0,0,1
6:39.894,143962,(,0,0,2
6:39.986,143995,t,0,0,0
6:40.056,144020,),0,0,2
6:40.325,144117,(,0,0,1
6:40.361,144130,N,0,0,0
6:40.389,144140,),0,0,1
6:40.517,144186,(,0,0,2
6:40.642,144231,t,0,0,0
6:40.711,144256,),0,0,2
6:40.944,144340,(,0,0,1
6:40.978,144352,N,0,0,0
6:41.006,144362,),0,0,1
6:41.403,144505,(,0,0,2
6:41.461,144526,t,0,0,0
6:41.586,144571,),0,0,2
6:41.908,144687,(,0,0,0
6:41.947,144701,p,0,0,0
6:41.997,144719,),0,0,0
6:42.208,144795,(,0,0,1
6:42.244,144808,N,0,0,0
6:42.272,144818,),0,0,1
6:42.411,144868,(,0,0,2
6:42.525,144909,t,0,0,0
6:42.603,144937,),0,0,2
6:42.650,144954,(,0,0,0
6:42.683,144966,p,0,0,0
6:42.736,144985,),0,0,0
6:42.956,145064,(,0,0,1
6:42.992,145077,N,0,0,0
6:43.014,145085,),0,0,1
6:43.403,145225,(,0,0,2
6:43.461,145246,t,0,0,0
6:43.511,145264,),0,0,2
6:44.308,145551,(,0,0,1
6:44.347,145565,N,0,0,0
6:44.375,145575,),0,0,1
6:44.589,145652,(,0,0,2
6:44.653,145675,t,0,0,0
6:44.733,145704,),0,0,2
6:44.889,145760,(,0,0,0
6:44.894,145762,p,0,0,0
6:44.942,145779,),0,0,0
6:45.103,145837,(,0,0,1
6:45.139,145850,N,0,0,0
6:45.164,145859,),0,0,1
6:45.578,146008,(,0,0,2
6:45.639,146030,t,0,0,0
6:45.697,146051,),0,0,2
6:46.639,146390,(,0,0,1
6:46.678,146404,N,0,0,0
6:46.706,146414,),0,0,1
6:46.811,146452,t,0,0,2
6:46.969,146509,),0,0,2
6:47.061,146542,(,0,0,0
6:47.111,146560,p,0,0,0
6:47.169,146581,),0,0,0
6:47.272,146618,(,0,0,1
6:47.306,146630,N,0,0,0
6:47.333,146640,),0,0,1
6:47.472,146690,(,0,0,2
6:47.575,146727,t,0,0,0
6:47.642,146751,),0,0,2
6:47.933,146856,(,0,0,1
6:47.969,146869,N,0,0,0
6:47.994,146878,),0,0,1
6:48.147,146933,(,0,0,2
6:48.233,146964,t,0,0,0
6:48.294,146986,),0,0,2
6:48.569,147085,(,0,0,1
6:48.603,147097,N,0,0,0
6:48.631,147107,),0,0,1
6:48.783,147162,(,0,0,2
6:48.883,147198,t,0,0,0
6:48.953,147223,),0,0,2
6:48.986,147235,(,0,0,0
6:49.031,147251,p,0,0,0
6:49.106,147278,),0,0,0
6:49.142,147291,(,0,0,1
6:49.175,147303,N,0,0,0
6:49.200,147312,),0,0,1
6:49.350,147366,(,0,0,2
6:49.425,147393,t,0,0,0
6:49.494,147418,),0,0,2
6:49.708,147495,(,0,0,0
6:49.811,147532,p,0,0,0
6:49.844,147544,),0,0,0
6:49.911,147568,(,0,0,1
6:49.947,147581,N,0,0,0
6:49.975,147591,),0,0,1
6:50.378,147736,(,0,0,2
6:50.422,147752,t,0,0,1
6:50.639,147830,),0,0,2
6:51.117,148002,(,0,0,0
6:51.131,148007,p,0,0,0
6:51.175,148023,),0,0,0
6:51.319,148075,(,0,0,1
6:51.358,148089,N,0,0,0
6:51.386,148099,),0,0,1
6:51.489,148136,(,0,0,2
6:51.514,148145,t,0,0,1
6:51.669,148201,),0,0,2
6:51.694,148210,(,0,0,0
6:51.775,148239,p,0,0,0
6:51.811,148252,),0,0,0
6:51.964,148307,(,0,0,1
6:52.000,148320,N,0,0,0
6:52.028,148330,),0,0,1
6:52.231,148403,(,0,0,2
6:52.300,148428,t,0,0,0
6:52.361,148450,),0,0,2
6:52.608,148539,(,0,0,1
6:52.644,148552,N,0,0,0
6:52.669,148561,),0,0,1
6:52.789,148604,(,0,0,2
6:52.928,148654,t,0,0,0
6:52.986,148675,),0,0,2
6:53.281,148781,(,0,0,1
6:53.317,148794,N,0,0,0
6:53.342,148803,),0,0,1
6:53.486,148855,(,0,0,2
6:53.597,148895,t,0,0,0
6:53.672,148922,),0,0,2
6:53.903,149005,(,0,0,1
6:53.939,149018,N,0,0,0
6:53.964,149027,),0,0,1
6:54.158,149097,(,0,0,2
6:54.206,149114,t,0,0,0
6:54.272,149138,),0,0,2
6:54.567,149244,(,0,0,1
6:54.600,149256,N,0,0,0
6:54.669,149281,),0,0,1
6:55.014,149405,(,0,0,2
6:55.067,149424,t,0,0,0
6:55.117,149442,),0,0,2
6:55.761,149674,(,0,0,0
6:55.825,149697,p,0,0,0
6:55.878,149716,),0,0,0
6:55.911,149728,(,0,0,1
6:55.947,149741,N,0,0,0
6:55.975,149751,),0,0,1
6:56.111,149800,(,0,0,2
6:56.236,149845,t,0,0,0
6:56.319,149875,),0,0,2
6:56.342,149883,(,0,0,0
6:56.403,149905,p,0,0,0
6:56.469,149929,),0,0,0
6:56.636,149989,(,0,0,1
6:56.669,150001,N,0,0,0
6:56.694,150010,),0,0,1
6:57.139,150170,(,0,0,2
6:57.200,150192,t,0,0,0
6:57.325,150237,),0,0,2
7:01.069,151585,(,0,0,1
7:01.106,151598,N,0,0,0
7:01.133,151608,),0,0,1
7:01.264,151655,(,0,0,2
7:01.397,151703,t,0,0,0
7:01.475,151731,),0,0,2
7:01.517,151746,(,0,0,0
7:01.564,151763,p,0,0,0
7:01.603,151777,),0,0,0
7:01.744,151828,(,0,0,1
7:01.778,151840,N,0,0,0
7:01.806,151850,),0,0,1
7:01.947,151901,(,0,0,2
7:02.044,151936,t,0,0,0
7:02.136,151969,),0,0,2
7:02.403,152065,(,0,0,0
7:02.453,152083,p,0,0,0
7:02.522,152108,),0,0,0
7:02.625,152145,(,0,0,1
7:02.661,152158,N,0,0,0
7:02.692,152169,),0,0,1
7:03.083,152310,(,0,0,2
7:03.142,152331,t,0,0,0
7:03.261,152374,),0,0,2
7:04.111,152680,(,0,0,1
7:04.150,152694,N,0,0,0
7:04.175,152703,),0,0,1
7:04.314,152753,(,0,0,2
7:04.447,152801,t,0,0,0
7:04.514,152825,),0,0,2
7:04.572,152846,(,0,0,0
7:04.650,152874,p,0,0,0
7:04.711,152896,),0,0,0
7:04.833,152940,(,0,0,1
7:04.867,152952,N,0,0,0
7:04.894,152962,),0,0,1
7:05.314,153113,(,0,0,2
7:05.369,153133,t,0,0,0
7:05.419,153151,),0,0,2
7:06.064,153383,(,0,0,1
7:06.100,153396,N,0,0,0
7:06.125,153405,),0,0,1
7:06.286,153463,(,0,0,2
7:06.375,153495,t,0,0,5
7:06.464,153527,t,0,0,5
7:06.497,153539,),0,0,2
7:06.564,153563,(,0,0,0
7:06.642,153591,p,0,0,0
7:06.686,153607,),0,0,0
7:06.767,153636,(,0,0,1
7:06.803,153649,N,0,0,0
7:06.825,153657,),0,0,1
7:07.381,153857,(,0,0,2
7:07.414,153869,t,0,0,0
7:07.453,153883,),0,0,2
7:09.381,154577,(,0,0,1
7:09.419,154591,N,0,0,0
7:09.444,154600,),0,0,1
7:09.586,154651,(,0,0,2
7:09.706,154694,t,0,0,0
7:09.756,154712,),0,0,2
7:10.022,154808,(,0,0,1
7:10.058,154821,N,0,0,0
7:10.086,154831,),0,0,1
7:11.956,155504,(,0,0,0
7:12.017,155526,p,0,0,0
7:12.086,155551,),0,0,0
7:12.139,155570,(,0,0,1
7:12.172,155582,N,0,0,0
7:12.197,155591,),0,0,1
7:12.831,155819,(,0,0,2
7:12.864,155831,t,0,0,0
7:12.903,155845,),0,0,2
7:13.678,156124,(,0,0,1
7:13.711,156136,N,0,0,0
7:13.736,156145,),0,0,1
7:14.094,156274,(,0,0,2
7:14.150,156294,t,0,0,0
7:14.261,156334,),0,0,2
7:14.897,156563,(,0,0,0
7:14.944,156580,p,0,0,0
7:14.994,156598,),0,0,0
7:15.156,156656,(,0,0,1
7:15.194,156670,N,0,0,0
7:15.219,156679,),0,0,1
7:15.361,156730,(,0,0,2
7:15.500,156780,t,0,0,0
7:15.600,156816,),0,0,2
7:15.892,156921,(,0,0,1
7:15.928,156934,N,0,0,0
7:15.953,156943,),0,0,1
7:16.067,156984,(,0,0,2
7:16.203,157033,t,0,0,5
7:16.300,157068,t,0,0,5
7:16.342,157083,),0,0,2
7:16.422,157112,(,0,0,0
7:16.458,157125,p,0,0,0
7:16.511,157144,),0,0,0
7:16.589,157172,(,0,0,1
7:16.628,157186,N,0,0,0
7:16.653,157195,),0,0,1
7:16.714,157217,(,0,0,2
7:16.750,157230,t,0,0,1
7:16.900,157284,),0,0,2
7:16.928,157294,(,0,0,0
7:17.003,157321,p,0,0,0
7:17.033,157332,),0,0,0
7:17.200,157392,(,0,0,1
7:17.236,157405,N,0,0,0
7:17.261,157414,),0,0,1
7:17.683,157566,(,0,0,2
7:17.742,157587,t,0,0,0
7:17.864,157631,),0,0,2
7:18.431,157835,(,0,0,1
7:18.464,157847,N,0,0,0
7:18.486,157855,),0,0,1
7:18.611,157900,(,0,0,2
7:18.725,157941,t,0,0,0
7:18.811,157972,),0,0,2
7:18.839,157982,(,0,0,0
7:18.897,158003,p,0,0,0
7:18.950,158022,),0,0,0
7:19.006,158042,(,0,0,1
7:19.039,158054,N,0,0,0
7:19.067,158064,),0,0,1
7:19.200,158112,(,0,0,2
7:19.294,158146,t,0,0,0
7:19.378,158176,),0,0,2
7:19.400,158184,(,0,0,0
7:19.467,158208,p,0,0,0
7:19.533,158232,),0,0,0
7:19.647,158273,(,0,0,1
7:19.681,158285,N,0,0,0
7:19.706,158294,),0,0,1
7:19.825,158337,(,0,0,2
7:19.953,158383,t,0,0,0
7:20.025,158409,),0,0,2
7:20.439,158558,(,0,0,0
7:20.469,158569,p,0,0,0
7:20.539,158594,),0,0,0
7:20.572,158606,(,0,0,1
7:20.608,158619,N,0,0,0
7:20.636,158629,),0,0,1
7:20.714,158657,t,0,0,2
7:20.886,158719,),0,0,2
7:20.917,158730,(,0,0,0
7:20.986,158755,p,0,0,0
7:21.031,158771,),0,0,0
7:21.197,158831,(,0,0,1
7:21.233,158844,N,0,0,0
7:21.261,158854,),0,0,1
7:21.403,158905,(,0,0,2
7:21.528,158950,t,0,0,0
7:21.603,158977,),0,0,2
7:21.664,158999,(,0,0,0
7:21.717,159018,p,0,0,0
7:21.778,159040,),0,0,0
7:21.908,159087,(,0,0,1
7:21.944,159100,N,0,0,0
7:21.972,159110,),0,0,1
7:22.117,159162,(,0,0,2
7:22.211,159196,t,0,0,0
7:22.281,159221,),0,0,2
7:22.586,159331,(,0,0,1
7:22.622,159344,N,0,0,0
7:22.647,159353,),0,0,1
7:22.744,159388,(,0,0,2
7:22.897,159443,t,0,0,0
7:22.986,159475,),0,0,2
7:22.989,159476,(,0,0,0
7:23.000,159480,p,0,0,0
7:23.075,159507,),0,0,0
7:23.267,159576,(,0,0,1
7:23.303,159589,N,0,0,0
7:23.328,159598,),0,0,1
7:23.461,159646,(,0,0,2
7:23.586,159691,t,0,0,0
7:23.664,159719,),0,0,2
7:23.906,159806,(,0,0,1
7:23.939,159818,N,0,0,0
7:23.964,159827,),0,0,1
7:24.106,159878,(,0,0,2
7:24.197,159911,t,0,0,0
7:24.267,159936,),0,0,2
7:24.536,160033,(,0,0,1
7:24.572,160046,N,0,0,0
7:24.597,160055,),0,0,1
7:24.711,160096,(,0,0,2
7:24.847,160145,t,0,0,0
7:24.914,160169,),0,0,2
7:24.917,160170,(,0,0,0
7:25.050,160218,p,0,0,0
7:25.083,160230,),0,0,0
7:25.119,160243,(,0,0,1
7:25.150,160254,N,0,0,0
7:25.175,160263,),0,0,1
7:25.658,160437,t,0,0,2
7:25.756,160472,),0,0,2
7:30.536,162193,(,0,0,1
7:30.572,162206,N,0,0,0
7:30.600,162216,),0,0,1
7:30.747,162269,(,0,0,2
7:30.839,162302,t,0,0,0
7:30.906,162326,),0,0,2
7:30.908,162327,(,0,0,0
7:30.992,162357,p,0,0,0
7:31.044,162376,),0,0,0
7:31.144,162412,(,0,0,1
7:31.175,162423,N,0,0,0
7:31.200,162432,),0,0,1
7:31.378,162496,(,0,0,2
7:31.439,162518,t,0,0,5
7:31.547,162557,t,0,0,5
7:31.572,162566,),0,0,2
7:31.744,162628,(,0,0,1
7:31.778,162640,N,0,0,0
7:31.803,162649,),0,0,1
7:32.064,162743,(,0,0,2
7:32.136,162769,t,0,0,1
7:32.289,162824,),0,0,2
7:39.300,165348,(,0,0,0
7:39.378,165376,p,0,0,0
7:39.467,165408,),0,0,0
7:39.542,165435,(,0,0,1
7:39.578,165448,N,0,0,0
7:39.608,165459,),0,0,1
7:39.850,165546,(,0,0,2
7:39.889,165560,t,0,0,0
7:39.950,165582,),0,0,2
7:40.178,165664,(,0,0,1
7:40.211,165676,N,0,0,0
7:40.236,165685,),0,0,1
7:40.397,165743,(,0,0,2
7:40.481,165773,t,0,0,5
7:40.564,165803,t,0,0,5
7:40.606,165818,),0,0,2
7:40.642,165831,(,0,0,0
7:40.769,165877,p,0,0,0
7:40.814,165893,),0,0,0
7:40.847,165905,(,0,0,1
7:40.883,165918,N,0,0,0
7:40.908,165927,),0,0,1
7:41.239,166046,t,0,0,2
7:41.347,166085,),0,0,2
8:50.517,190986,(,0,0,0
8:50.558,191001,p,0,0,0
8:50.619,191023,),0,0,0
8:50.722,191060,(,0,0,1
8:50.761,191074,N,0,0,0
8:50.786,191083,),0,0,1
8:52.242,191607,(,0,0,1
8:52.278,191620,N,0,0,0
8:52.306,191630,),0,0,1
8:52.456,191684,(,0,0,2
8:52.567,191724,t,0,0,0
8:52.681,191765,),0,0,2
8:52.714,191777,(,0,0,0
8:52.794,191806,p,0,0,0
8:52.856,191828,),0,0,0
8:52.933,191856,(,0,0,1
8:52.967,191868,N,0,0,0
8:52.994,191878,),0,0,1
8:53.114,191921,(,0,0,2
8:53.244,191968,t,0,0,5
8:53.314,191993,t,0,0,5
8:53.361,192010,),0,0,2
8:53.686,192127,(,0,0,1
8:53.722,192140,N,0,0,0
8:53.750,192150,),0,0,1
8:54.069,192265,t,0,0,2
8:54.169,192301,),0,0,2
8:55.386,192739,(,0,0,0
8:55.444,192760,p,0,0,0
8:55.531,192791,),0,0,0
8:55.644,192832,(,0,0,1
8:55.678,192844,N,0,0,0
8:55.703,192853,),0,0,1
8:55.831,192899,(,0,0,2
8:55.939,192938,t,0,0,0
8:56.039,192974,),0,0,2
8:56.278,193060,(,0,0,0
8:56.300,193068,p,0,0,0
8:56.317,193074,),0,0,0
8:56.564,193163,(,0,0,1
8:56.600,193176,N,0,0,0
8:56.628,193186,),0,0,1
8:56.789,193244,(,0,0,2
8:56.894,193282,t,0,0,0
8:56.969,193309,),0,0,2
8:57.028,193330,(,0,0,0
8:57.100,193356,p,0,0,0
8:57.175,193383,),0,0,0
8:57.267,193416,(,0,0,1
8:57.303,193429,N,0,0,0
8:57.331,193439,),0,0,1
8:57.467,193488,(,0,0,2
8:57.575,193527,t,0,0,5
8:57.669,193561,t,0,0,5
8:57.750,193590,),0,0,2
8:58.986,194035,(,0,0,0
8:59.033,194052,p,0,0,0
8:59.100,194076,),0,0,0
8:59.222,194120,(,0,0,1
8:59.256,194132,N,0,0,0
8:59.283,194142,),0,0,1
8:59.342,194163,(,0,0,2
8:59.408,194187,t,0,0,4
8:59.536,194233,t,0,0,4
8:59.594,194254,),0,0,2
8:59.692,194289,(,0,0,0
8:59.742,194307,p,0,0,0
8:59.803,194329,),0,0,0
8:59.908,194367,(,0,0,1
8:59.944,194380,N,0,0,0
8:59.972,194390,),0,0,1
9:00.103,194437,(,0,0,2
9:00.217,194478,t,0,0,0
9:00.281,194501,),0,0,2
9:00.561,194602,(,0,0,0
9:00.597,194615,p,0,0,0
9:00.692,194649,),0,0,0
9:00.756,194672,(,0,0,1
9:00.792,194685,N,0,0,0
9:00.817,194694,),0,0,1
9:00.933,194736,(,0,0,2
9:01.042,194775,t,0,0,0
9:01.147,194813,),0,0,2
9:01.203,194833,(,0,0,0
9:01.242,194847,p,0,0,0
9:01.319,194875,),0,0,0
9:01.469,194929,(,0,0,1
9:01.503,194941,N,0,0,0
9:01.528,194950,),0,0,1
9:01.647,194993,(,0,0,2
9:01.772,195038,t,0,0,5
9:01.867,195072,t,0,0,5
9:01.900,195084,),0,0,2
9:02.103,195157,(,0,0,1
9:02.133,195168,N,0,0,0
9:02.158,195177,),0,0,1
9:02.300,195228,(,0,0,2
9:02.400,195264,t,0,0,0
9:02.464,195287,),0,0,2
9:02.525,195309,(,0,0,0
9:02.581,195329,p,0,0,0
9:02.678,195364,),0,0,0
9:02.722,195380,(,0,0,1
9:02.756,195392,N,0,0,0
9:02.783,195402,),0,0,1
9:03.047,195497,(,0,0,2
9:03.133,195528,t,0,0,1
9:03.236,195565,),0,0,2
9:04.050,195858,(,0,0,1
9:04.086,195871,N,0,0,0
9:04.111,195880,),0,0,1
9:04.275,195939,(,0,0,2
9:04.369,195973,t,0,0,0
9:04.439,195998,),0,0,2
9:04.703,196093,(,0,0,1
9:04.736,196105,N,0,0,0
9:04.761,196114,),0,0,1
9:04.975,196191,(,0,0,2
9:05.019,196207,t,0,0,0
9:05.100,196236,),0,0,2
9:05.194,196270,(,0,0,0
9:05.250,196290,p,0,0,0
9:05.317,196314,),0,0,0
9:05.375,196335,(,0,0,1
9:05.411,196348,N,0,0,0
9:05.436,196357,),0,0,1
9:05.700,196452,(,0,0,2
9:05.761,196474,t,0,0,1
9:05.886,196519,),0,0,2
9:08.781,197561,(,0,0,1
9:08.814,197573,N,0,0,0
9:08.839,197582,),0,0,1
9:09.022,197648,(,0,0,2
9:09.103,197677,t,0,0,0
9:09.189,197708,),0,0,2
9:09.350,197766,(,0,0,0
9:09.397,197783,p,0,0,0
9:09.422,197792,),0,0,0
9:09.611,197860,(,0,0,1
9:09.647,197873,N,0,0,0
9:09.672,197882,),0,0,1
9:10.997,198359,(,0,0,1
9:11.036,198373,N,0,0,0
9:11.061,198382,),0,0,1
9:11.139,198410,(,0,0,2
9:11.181,198425,t,0,0,4
9:11.328,198478,t,0,0,4
9:11.386,198499,),0,0,2
9:11.833,198660,(,0,0,0
9:11.956,198704,p,0,0,0
9:11.997,198719,),0,0,0
9:12.011,198724,(,0,0,1
9:12.033,198732,N,0,0,0
9:12.114,198761,),0,0,1
9:12.206,198794,(,0,0,2
9:12.239,198806,t,0,0,0
9:12.281,198821,),0,0,2
9:12.367,198852,(,0,0,1
9:12.422,198872,N,0,0,0
9:12.575,198927,),0,0,1
9:12.775,198999,(,0,0,0
9:12.803,199009,p,0,0,0
9:12.833,199020,),0,0,0
9:12.908,199047,(,0,0,1
9:12.978,199072,N,0,0,0
9:13.131,199127,),0,0,1
9:13.447,199241,(,0,0,2
9:13.481,199253,t,0,0,0
9:13.519,199267,),0,0,2
9:13.700,199332,(,0,0,1
9:13.839,199382,N,0,0,0
9:13.983,199434,(,0,0,0
9:14.008,199443,p,0,0,0
9:14.039,199454,),0,0,0
9:14.039,199454,),0,0,1
9:14.192,199509,(,0,0,1
9:14.214,199517,N,0,0,0
9:14.358,199569,),0,0,1
9:14.622,199664,(,0,0,2
9:14.656,199676,t,0,0,0
9:14.694,199690,),0,0,2
9:14.908,199767,(,0,0,0
9:14.956,199784,p,0,0,0
9:15.014,199805,),0,0,0
9:15.081,199829,(,0,0,1
9:15.158,199857,N,0,0,0
9:15.208,199875,),0,0,1
9:15.222,199880,(,0,0,2
9:15.378,199936,t,0,0,1
9:15.528,199990,),0,0,2
9:17.697,200771,(,0,0,0
9:17.747,200789,p,0,0,0
9:17.811,200812,),0,0,0
9:17.894,200842,(,0,0,1
9:17.961,200866,N,0,0,0
9:18.006,200882,),0,0,1
9:18.022,200888,(,0,0,2
9:18.150,200934,t,0,0,1
9:18.258,200973,),0,0,2
9:19.750,201510,(,0,0,0
9:19.831,201539,p,0,0,0
9:19.883,201558,),0,0,0
9:19.947,201581,(,0,0,1
9:20.022,201608,N,0,0,0
9:20.069,201625,),0,0,1
9:20.083,201630,(,0,0,2
9:20.208,201675,t,0,0,1
9:20.333,201720,),0,0,2
9:20.786,201883,(,0,0,0
9:20.817,201894,p,0,0,0
9:20.889,201920,),0,0,0
9:21.006,201962,(,0,0,1
9:21.039,201974,N,0,0,0
9:21.067,201984,),0,0,1
9:21.203,202033,(,0,0,2
9:21.350,202086,t,0,0,5
9:21.469,202129,t,0,0,5
9:21.528,202150,),0,0,2
9:21.533,202152,(,0,0,0
9:21.539,202154,p,0,0,0
9:21.597,202175,),0,0,0
9:21.786,202243,(,0,0,1
9:21.822,202256,N,0,0,0
9:21.847,202265,),0,0,1
9:22.469,202489,(,0,0,2
9:22.503,202501,t,0,0,0
9:22.542,202515,),0,0,2
9:23.464,202847,(,0,0,0
9:23.564,202883,p,0,0,0
9:23.619,202903,),0,0,0
9:23.678,202924,(,0,0,1
9:23.753,202951,N,0,0,0
9:23.797,202967,),0,0,1
9:23.831,202979,(,0,0,2
9:23.953,203023,t,0,0,1
9:24.081,203069,),0,0,2
9:24.478,203212,(,0,0,1
9:24.511,203224,N,0,0,0
9:24.536,203233,),0,0,1
9:25.078,203428,(,0,0,2
9:25.111,203440,t,0,0,0
9:25.150,203454,),0,0,2
9:25.283,203502,(,0,0,0
9:25.364,203531,p,0,0,0
9:25.422,203552,),0,0,0
9:25.650,203634,(,0,0,1
9:25.683,203646,N,0,0,0
9:25.708,203655,),0,0,1
9:25.822,203696,(,0,0,2
9:25.953,203743,t,0,0,0
9:26.031,203771,),0,0,2
9:26.122,203804,(,0,0,1
9:26.189,203828,N,0,0,0
9:26.233,203844,),0,0,1
9:26.881,204077,(,0,0,2
9:26.914,204089,t,0,0,0
9:26.953,204103,),0,0,2
9:30.033,205212,(,0,0,0
9:30.125,205245,p,0,0,0
9:30.181,205265,),0,0,0
9:30.275,205299,(,0,0,1
9:30.344,205324,N,0,0,0
9:30.386,205339,),0,0,1
9:31.100,205596,(,0,0,2
9:31.136,205609,t,0,0,0
9:31.178,205624,),0,0,2
9:32.050,205938,(,0,0,0
9:32.153,205975,p,0,0,0
9:32.206,205994,),0,0,0
9:32.269,206017,(,0,0,1
9:32.339,206042,N,0,0,0
9:32.383,206058,),0,0,1
9:32.400,206064,(,0,0,2
9:32.511,206104,t,0,0,1
9:32.642,206151,),0,0,2
9:34.892,206961,(,0,0,0
9:34.994,206998,p,0,0,0
9:35.053,207019,),0,0,0
9:35.169,207061,(,0,0,1
9:35.242,207087,N,0,0,0
9:35.289,207104,),0,0,1
9:35.300,207108,(,0,0,2
9:35.444,207160,t,0,0,1
9:35.544,207196,),0,0,2
9:35.983,207354,(,0,0,1
9:36.017,207366,N,0,0,0
9:36.044,207376,),0,0,1
9:36.597,207575,(,0,0,2
9:36.631,207587,t,0,0,0
9:36.667,207600,),0,0,2
9:37.439,207878,(,0,0,0
9:37.514,207905,p,0,0,0
9:37.572,207926,),0,0,0
9:37.644,207952,(,0,0,1
9:37.719,207979,N,0,0,0
9:37.761,207994,),0,0,1
9:37.775,207999,(,0,0,2
9:37.911,208048,t,0,0,1
9:38.019,208087,),0,0,2
9:40.375,208935,(,0,0,0
9:40.497,208979,p,0,0,0
9:40.547,208997,),0,0,0
9:40.597,209015,(,0,0,1
9:40.675,209043,N,0,0,0
9:40.722,209060,),0,0,1
9:40.739,209066,(,0,0,2
9:41.147,209213,t,0,0,1
9:41.494,209338,),0,0,2
9:42.378,209656,(,0,0,0
9:42.483,209694,p,0,0,0
9:42.528,209710,),0,0,0
9:42.625,209745,(,0,0,1
9:42.692,209769,N,0,0,0
9:42.744,209788,),0,0,1
9:43.356,210008,(,0,0,2
9:43.389,210020,t,0,0,0
9:43.428,210034,),0,0,2
9:47.511,211504,(,0,0,1
9:47.589,211532,N,0,0,0
9:47.633,211548,),0,0,1
9:47.667,211560,(,0,0,2
9:47.781,211601,t,0,0,1
9:47.897,211643,),0,0,2
9:50.003,212401,(,0,0,0
9:50.097,212435,p,0,0,0
9:50.150,212454,),0,0,0
9:50.258,212493,(,0,0,1
9:50.328,212518,N,0,0,0
9:50.375,212535,),0,0,1
9:50.983,212754,(,0,0,2
9:51.019,212767,t,0,0,0
9:51.058,212781,),0,0,2
9:52.567,213324,(,0,0,0
9:52.633,213348,p,0,0,0
9:52.700,213372,),0,0,0
9:52.789,213404,(,0,0,1
9:52.853,213427,N,0,0,0
9:52.900,213444,),0,0,1
9:52.914,213449,(,0,0,2
9:53.053,213499,t,0,0,1
9:53.169,213541,),0,0,2
9:54.853,214147,(,0,0,0
9:54.931,214175,p,0,0,0
9:54.978,214192,),0,0,0
9:55.050,214218,(,0,0,1
9:55.125,214245,N,0,0,0
9:55.167,214260,),0,0,1
9:55.178,214264,(,0,0,2
9:55.308,214311,t,0,0,1
9:55.431,214355,),0,0,2
9:56.061,214582,(,0,0,1
9:56.100,214596,N,0,0,0
9:56.128,214606,),0,0,1
9:56.697,214811,(,0,0,2
9:56.731,214823,t,0,0,0
9:56.772,214838,),0,0,2
9:59.853,215947,(,0,0,0
9:59.914,215969,p,0,0,0
10:00.008,216003,),0,0,0
10:00.053,216019,(,0,0,1
10:00.133,216048,N,0,0,0
10:00.178,216064,),0,0,1
10:00.839,216302,(,0,0,2
10:00.875,216315,t,0,0,0
10:00.914,216329,),0,0,2
10:02.928,217054,(,0,0,0
10:03.025,217089,p,0,0,0
10:03.089,217112,),0,0,0
10:03.161,217138,(,0,0,1
10:03.239,217166,N,0,0,0
10:03.283,217182,),0,0,1
10:03.300,217188,(,0,0,2
10:03.439,217238,t,0,0,1
10:03.556,217280,),0,0,2
10:05.881,218117,(,0,0,0
10:05.961,218146,p,0,0,0
10:06.036,218173,),0,0,0
10:06.097,218195,(,0,0,1
10:06.175,218223,N,0,0,0
10:06.219,218239,),0,0,1
10:06.892,218481,(,0,0,2
10:06.925,218493,t,0,0,0
10:06.967,218508,),0,0,2
10:08.175,218943,(,0,0,1
10:08.206,218954,N,0,0,0
10:08.231,218963,),0,0,1
10:08.867,219192,(,0,0,2
10:08.903,219205,t,0,0,0
10:08.944,219220,),0,0,2
10:10.256,219692,(,0,0,1
10:10.297,219707,N,0,0,0
10:10.328,219718,),0,0,1
10:10.486,219775,(,0,0,0
10:10.564,219803,p,0,0,0
10:10.631,219827,),0,0,0
10:10.706,219854,(,0,0,1
10:10.778,219880,N,0,0,0
10:10.822,219896,),0,0,1
10:10.839,219902,(,0,0,2
10:10.967,219948,t,0,0,1
10:11.078,219988,),0,0,2
10:14.300,221148,(,0,0,0
10:14.406,221186,p,0,0,0
10:14.472,221210,),0,0,0
10:14.556,221240,(,0,0,1
10:14.633,221268,N,0,0,0
10:14.683,221286,),0,0,1
10:14.697,221291,(,0,0,2
10:14.844,221344,t,0,0,1
10:14.964,221387,),0,0,2
10:15.594,221614,(,0,0,1
10:15.631,221627,N,0,0,0
10:15.656,221636,),0,0,1
10:16.303,221869,(,0,0,2
10:16.339,221882,t,0,0,0
10:16.375,221895,),0,0,2
10:17.808,222411,(,0,0,0
10:17.906,222446,p,0,0,0
10:17.961,222466,),0,0,0
10:18.044,222496,(,0,0,1
10:18.119,222523,N,0,0,0
10:18.164,222539,),0,0,1
10:18.178,222544,(,0,0,2
10:18.575,222687,t,0,0,1
10:18.922,222812,),0,0,2
10:19.503,223021,(,0,0,1
10:19.536,223033,N,0,0,0
10:19.561,223042,),0,0,1
10:20.119,223243,(,0,0,2
10:20.156,223256,t,0,0,0
10:20.194,223270,),0,0,2
10:21.236,223645,(,0,0,0
10:21.281,223661,p,0,0,0
10:21.328,223678,),0,0,0
10:21.367,223692,(,0,0,1
10:21.403,223705,N,0,0,0
10:21.431,223715,),0,0,1
10:21.586,223771,(,0,0,2
10:21.692,223809,t,0,0,5
10:22.111,223960,t,0,0,5
10:22.156,223976,),0,0,2
10:23.750,224550,(,0,0,1
10:23.786,224563,N,0,0,0
10:23.811,224572,),0,0,1
10:23.950,224622,(,0,0,2
10:24.056,224660,t,0,0,0
10:24.131,224687,),0,0,2
10:24.169,224701,(,0,0,0
10:24.258,224733,p,0,0,0
10:24.306,224750,),0,0,0
10:24.378,224776,(,0,0,1
10:24.414,224789,N,0,0,0
10:24.439,224798,),0,0,1
10:24.514,224825,t,0,0,2
10:24.644,224872,),0,0,2
10:24.778,224920,(,0,0,1
10:24.850,224946,N,0,0,0
10:24.894,224962,),0,0,1
10:24.908,224967,(,0,0,2
10:25.300,225108,t,0,0,1
10:25.656,225236,),0,0,2
10:35.139,228650,(,0,0,0
10:35.194,228670,p,0,0,0
10:35.281,228701,),0,0,0
10:35.314,228713,(,0,0,1
10:35.350,228726,N,0,0,0
10:35.378,228736,),0,0,1
10:35.881,228917,(,0,0,2
10:35.914,228929,t,0,0,0
10:35.953,228943,),0,0,2
10:41.617,230982,(,0,0,0
10:41.711,231016,p,0,0,0
10:41.781,231041,),0,0,0
10:41.831,231059,(,0,0,1
10:41.908,231087,N,0,0,0
10:41.956,231104,),0,0,1
10:41.986,231115,(,0,0,2
10:42.106,231158,t,0,0,1
10:42.211,231196,),0,0,2
10:44.731,232103,(,0,0,1
10:44.769,232117,N,0,0,0
10:44.794,232126,),0,0,1
10:45.461,232366,(,0,0,2
10:45.494,232378,t,0,0,0
10:45.536,232393,),0,0,2
10:47.992,233277,(,0,0,0
10:48.072,233306,p,0,0,0
10:48.128,233326,),0,0,0
10:48.208,233355,(,0,0,1
10:48.272,233378,N,0,0,0
10:48.314,233393,),0,0,1
10:48.344,233404,(,0,0,2
10:48.464,233447,t,0,0,1
10:48.569,233485,),0,0,2
10:49.039,233654,(,0,0,1
10:49.075,233667,N,0,0,0
10:49.100,233676,),0,0,1
10:49.661,233878,(,0,0,2
10:49.697,233891,t,0,0,0
10:49.736,233905,),0,0,2
10:50.581,234209,(,0,0,0
10:50.653,234235,p,0,0,0
10:50.711,234256,),0,0,0
10:50.781,234281,(,0,0,1
10:50.856,234308,N,0,0,0
10:50.906,234326,),0,0,1
10:50.925,234333,(,0,0,2
10:51.061,234382,t,0,0,1
10:51.178,234424,),0,0,2
10:52.233,234804,(,0,0,0
10:52.350,234846,p,0,0,0
10:52.408,234867,),0,0,0
10:52.531,234911,(,0,0,1
10:52.564,234923,N,0,0,0
10:52.589,234932,),0,0,1
10:53.247,235169,(,0,0,2
10:53.283,235182,t,0,0,0
10:53.322,235196,),0,0,2
10:55.025,235809,(,0,0,1
10:55.056,235820,N,0,0,0
10:55.081,235829,),0,0,1
10:55.742,236067,(,0,0,2
10:55.775,236079,t,0,0,0
10:55.817,236094,),0,0,2
10:55.947,236141,(,0,0,0
10:56.044,236176,p,0,0,0
10:56.097,236195,),0,0,0
10:56.178,236224,(,0,0,1
10:56.247,236249,N,0,0,0
10:56.292,236265,),0,0,1
10:56.303,236269,(,0,0,2
10:56.444,236320,t,0,0,1
10:56.550,236358,),0,0,2
10:57.894,236842,(,0,0,1
10:57.931,236855,N,0,0,0
10:57.958,236865,),0,0,1
10:58.031,236891,t,0,0,2
10:58.214,236957,),0,0,2
10:58.358,237009,(,0,0,1
10:58.436,237037,N,0,0,0
10:58.483,237054,),0,0,1
10:58.497,237059,(,0,0,2
10:58.647,237113,t,0,0,1
10:58.767,237156,),0,0,2
10:59.244,237328,(,0,0,1
10:59.283,237342,N,0,0,0
10:59.308,237351,),0,0,1
10:59.419,237391,(,0,0,2
10:59.578,237448,t,0,0,0
10:59.644,237472,),0,0,2
11:00.208,237675,(,0,0,1
11:00.244,237688,N,0,0,0
11:00.269,237697,),0,0,1
11:00.931,237935,(,0,0,2
11:00.964,237947,t,0,0,0
11:01.003,237961,),0,0,2
11:01.883,238278,(,0,0,0
11:01.989,238316,p,0,0,0
11:02.061,238342,),0,0,0
11:02.086,238351,(,0,0,1
11:02.164,238379,N,0,0,0
11:02.208,238395,),0,0,1
11:02.239,238406,(,0,0,2
11:02.353,238447,t,0,0,1
11:02.500,238500,),0,0,2
11:03.053,238699,(,0,0,1
11:03.089,238712,N,0,0,0
11:03.114,238721,),0,0,1
11:03.683,238926,(,0,0,2
11:03.719,238939,t,0,0,0
11:03.758,238953,),0,0,2
11:04.150,239094,(,0,0,0
11:04.197,239111,p,0,0,0
11:04.272,239138,),0,0,0
11:04.419,239191,(,0,0,1
11:04.461,239206,N,0,0,0
11:04.492,239217,),0,0,1
11:04.869,239353,(,0,0,2
11:04.928,239374,t,0,0,0
11:05.042,239415,),0,0,2
11:05.500,239580,(,0,0,0
11:05.625,239625,p,0,0,0
11:05.664,239639,),0,0,0
11:05.769,239677,(,0,0,1
11:05.803,239689,N,0,0,0
11:05.831,239699,),0,0,1
11:06.397,239903,(,0,0,2
11:06.428,239914,t,0,0,0
11:06.467,239928,),0,0,2
11:06.686,240007,(,0,0,0
11:06.767,240036,p,0,0,0
11:06.828,240058,),0,0,0
11:07.050,240138,(,0,0,1
11:07.083,240150,N,0,0,0
11:07.108,240159,),0,0,1
11:07.672,240362,(,0,0,2
11:07.706,240374,t,0,0,0
11:07.742,240387,),0,0,2
11:10.369,241333,(,0,0,1
11:10.408,241347,N,0,0,0
11:10.433,241356,),0,0,1
11:10.558,241401,(,0,0,2
11:10.692,241449,t,0,0,5
11:10.808,241491,t,0,0,5
11:10.867,241512,),0,0,2
11:10.983,241554,(,0,0,0
11:11.039,241574,p,0,0,0
11:11.119,241603,),0,0,0
11:11.153,241615,(,0,0,1
11:11.186,241627,N,0,0,0
11:11.214,241637,),0,0,1
11:11.622,241784,(,0,0,2
11:11.681,241805,t,0,0,5
11:11.886,241879,t,0,0,5
11:12.006,241922,),0,0,2
11:12.436,242077,(,0,0,1
11:12.467,242088,N,0,0,0
11:12.492,242097,),0,0,1
11:12.639,242150,(,0,0,2
11:12.733,242184,t,0,0,0
11:12.819,242215,),0,0,2
11:12.844,242224,(,0,0,0
11:12.900,242244,p,0,0,0
11:12.942,242259,),0,0,0
11:13.050,242298,(,0,0,1
11:13.081,242309,N,0,0,0
11:13.106,242318,),0,0,1
11:13.169,242341,(,0,0,2
11:13.192,242349,t,0,0,4
11:13.339,242402,t,0,0,4
11:13.422,242432,),0,0,2
11:13.425,242433,(,0,0,0
11:13.436,242437,p,0,0,0
11:13.508,242463,),0,0,0
11:13.633,242508,(,0,0,1
11:13.669,242521,N,0,0,0
11:13.694,242530,),0,0,1
11:13.819,242575,(,0,0,2
11:13.914,242609,t,0,0,0
11:14.014,242645,),0,0,2
11:14.017,242646,(,0,0,0
11:14.031,242651,p,0,0,0
11:14.103,242677,),0,0,0
11:14.211,242716,(,0,0,1
11:14.244,242728,N,0,0,0
11:14.267,242736,),0,0,1
11:14.697,242891,(,0,0,2
11:14.761,242914,t,0,0,5
11:14.975,242991,t,0,0,5
11:15.092,243033,),0,0,2
11:15.589,243212,(,0,0,1
11:15.622,243224,N,0,0,0
11:15.650,243234,),0,0,1
11:15.706,243254,(,0,0,2
11:15.747,243269,t,0,0,4
11:15.894,243322,t,0,0,4
11:15.983,243354,),0,0,2
11:16.019,243367,(,0,0,0
11:16.092,243393,p,0,0,0
11:16.178,243424,),0,0,0
11:16.336,243481,(,0,0,1
11:16.375,243495,N,0,0,0
11:16.403,243505,),0,0,1
11:16.864,243671,(,0,0,2
11:16.928,243694,t,0,0,5
11:17.133,243768,t,0,0,5
11:17.247,243809,),0,0,2
11:17.722,243980,(,0,0,1
11:17.758,243993,N,0,0,0
11:17.783,244002,),0,0,1
11:17.911,244048,(,0,0,2
11:18.017,244086,t,0,0,0
11:18.111,244120,),0,0,2
11:18.292,244185,(,0,0,0
11:18.325,244197,p,0,0,0
11:18.364,244211,),0,0,0
11:18.400,244224,(,0,0,1
11:18.428,244234,N,0,0,0
11:18.456,244244,),0,0,1
11:18.656,244316,(,0,0,2
11:18.700,244332,t,0,0,0
11:18.767,244356,),0,0,2
11:19.017,244446,(,0,0,1
11:19.050,244458,N,0,0,0
11:19.075,244467,),0,0,1
11:19.206,244514,(,0,0,2
11:19.300,244548,t,0,0,0
11:19.361,244570,),0,0,2
11:19.650,244674,(,0,0,1
11:19.683,244686,N,0,0,0
11:19.708,244695,),0,0,1
11:19.781,244721,(,0,0,2
11:19.808,244731,t,0,0,4
11:19.939,244778,t,0,0,4
11:20.017,244806,),0,0,2
11:20.253,244891,(,0,0,1
11:20.286,244903,N,0,0,0
11:20.308,244911,),0,0,1
11:20.431,244955,(,0,0,2
11:20.553,244999,t,0,0,0
11:20.617,245022,),0,0,2
11:20.803,245089,(,0,0,0
11:20.872,245114,p,0,0,0
11:20.944,245140,),0,0,0
11:21.000,245160,(,0,0,1
11:21.031,245171,N,0,0,0
11:21.056,245180,),0,0,1
11:21.453,245323,(,0,0,2
11:21.514,245345,t,0,0,0
11:21.658,245397,),0,0,2
11:22.031,245531,(,0,0,0
11:22.086,245551,p,0,0,0
11:22.189,245588,),0,0,0
11:22.250,245610,(,0,0,1
11:22.289,245624,N,0,0,0
11:22.314,245633,),0,0,1
11:22.508,245703,(,0,0,2
11:22.581,245729,t,0,0,0
11:22.653,245755,),0,0,2
11:22.917,245850,(,0,0,1
11:22.950,245862,N,0,0,0
11:22.978,245872,),0,0,1
11:23.067,245904,(,0,0,2
11:23.114,245921,t,0,0,4
11:23.233,245964,t,0,0,4
11:23.292,245985,),0,0,2
11:23.583,246090,(,0,0,1
11:23.617,246102,N,0,0,0
11:23.642,246111,),0,0,1
11:24.047,246257,(,0,0,2
11:24.103,246277,t,0,0,0
11:24.211,246316,),0,0,2
11:24.922,246572,(,0,0,1
11:24.956,246584,N,0,0,0
11:24.981,246593,),0,0,1
11:25.167,246660,(,0,0,2
11:25.231,246683,t,0,0,0
11:25.311,246712,),0,0,2
11:25.497,246779,(,0,0,1
11:25.528,246790,N,0,0,0
11:25.550,246798,),0,0,1
11:25.708,246855,(,0,0,2
11:25.794,246886,t,0,0,0
11:25.856,246908,),0,0,2
11:26.214,247037,(,0,0,1
11:26.247,247049,N,0,0,0
11:26.272,247058,),0,0,1
11:29.936,248377,(,0,0,1
11:29.969,248389,N,0,0,0
11:29.994,248398,),0,0,1
11:30.364,248531,(,0,0,2
11:30.417,248550,t,0,0,0
11:30.550,248598,),0,0,2
11:34.014,249845,(,0,0,1
11:34.047,249857,N,0,0,0
11:34.075,249867,),0,0,1
11:34.292,249945,(,0,0,2
11:34.325,249957,t,0,0,5
11:34.686,250087,t,0,0,5
11:34.747,250109,),0,0,2
11:36.833,250860,(,0,0,0
11:36.861,250870,p,0,0,0
11:36.908,250887,),0,0,0
11:36.942,250899,(,0,0,1
11:36.975,250911,N,0,0,0
11:37.000,250920,),0,0,1
11:37.603,251137,(,0,0,2
11:37.636,251149,t,0,0,0
11:37.675,251163,),0,0,2
11:38.014,251285,(,0,0,0
11:38.042,251295,p,0,0,0
11:38.089,251312,),0,0,0
11:38.211,251356,(,0,0,1
11:38.256,251372,N,0,0,0
11:38.278,251380,),0,0,1
11:38.417,251430,(,0,0,2
11:38.519,251467,t,0,0,0
11:38.581,251489,),0,0,2
11:38.775,251559,(,0,0,1
11:38.836,251581,N,0,0,0
11:38.861,251590,),0,0,1
11:39.278,251740,(,0,0,2
11:39.336,251761,t,0,0,0
11:39.453,251803,),0,0,2
11:41.686,252607,(,0,0,1
11:41.717,252618,N,0,0,0
11:41.744,252628,),0,0,1
11:42.228,252802,(,0,0,2
11:42.261,252814,t,0,0,0
11:42.297,252827,),0,0,2
11:42.528,252910,(,0,0,0
11:42.583,252930,p,0,0,0
11:42.647,252953,),0,0,0
11:42.783,253002,(,0,0,1
11:42.817,253014,N,0,0,0
11:42.839,253022,),0,0,1
11:42.972,253070,(,0,0,2
11:43.067,253104,t,0,0,0
11:43.122,253124,),0,0,2
11:43.217,253158,(,0,0,0
11:43.239,253166,p,0,0,0
11:43.261,253174,),0,0,0
11:43.367,253212,(,0,0,1
11:43.400,253224,N,0,0,0
11:43.422,253232,),0,0,1
11:43.800,253368,(,0,0,2
11:43.858,253389,t,0,0,0
11:43.908,253407,),0,0,2
11:46.858,254469,(,0,0,1
11:46.892,254481,N,0,0,0
11:46.917,254490,),0,0,1
11:46.986,254515,(,0,0,2
11:47.022,254528,t,0,0,4
11:47.161,254578,t,0,0,4
11:47.258,254613,),0,0,2
11:47.292,254625,(,0,0,0
11:47.364,254651,p,0,0,0
11:47.439,254678,),0,0,0
11:47.608,254739,(,0,0,1
11:47.642,254751,N,0,0,0
11:47.667,254760,),0,0,1
11:48.036,254893,(,0,0,2
11:48.094,254914,t,0,0,0
11:48.142,254931,),0,0,2
11:48.842,255183,(,0,0,1
11:48.875,255195,N,0,0,0
11:48.900,255204,),0,0,1
11:49.044,255256,(,0,0,2
11:49.139,255290,t,0,0,5
11:49.219,255319,t,0,0,5
11:49.278,255340,),0,0,2
11:49.958,255585,(,0,0,1
11:49.986,255595,N,0,0,0
11:50.011,255604,),0,0,1
11:50.147,255653,(,0,0,2
11:50.256,255692,t,0,0,0
11:50.325,255717,),0,0,2
11:50.658,255837,(,0,0,1
11:50.694,255850,N,0,0,0
11:50.719,255859,),0,0,1
11:50.869,255913,(,0,0,2
11:50.964,255947,t,0,0,5
11:51.053,255979,t,0,0,5
11:51.125,256005,),0,0,2
11:51.392,256101,(,0,0,1
11:51.428,256114,N,0,0,0
11:51.506,256142,),0,0,1
11:51.861,256270,(,0,0,2
11:51.917,256290,t,0,0,0
11:52.031,256331,),0,0,2
11:52.781,256601,(,0,0,1
11:52.817,256614,N,0,0,0
11:52.842,256623,),0,0,1
11:52.942,256659,(,0,0,2
11:52.969,256669,t,0,0,4
11:53.103,256717,t,0,0,4
11:53.172,256742,),0,0,2
11:53.550,256878,(,0,0,1
11:53.586,256891,N,0,0,0
11:53.611,256900,),0,0,1
11:54.011,257044,(,0,0,2
11:54.069,257065,t,0,0,0
11:54.189,257108,),0,0,2
11:54.811,257332,(,0,0,1
11:54.844,257344,N,0,0,0
11:54.872,257354,),0,0,1
11:55.028,257410,(,0,0,2
11:55.114,257441,t,0,0,0
11:55.178,257464,),0,0,2
11:55.408,257547,(,0,0,1
11:55.436,257557,N,0,0,0
11:55.461,257566,),0,0,1
11:55.650,257634,(,0,0,2
11:55.708,257655,t,0,0,0
11:55.764,257675,),0,0,2
11:56.042,257775,(,0,0,1
11:56.075,257787,N,0,0,0
11:56.097,257795,),0,0,1
11:56.275,257859,(,0,0,2
11:56.361,257890,t,0,0,0
11:56.411,257908,),0,0,2
11:56.417,257910,(,0,0,0
11:56.469,257929,p,0,0,0
11:56.514,257945,),0,0,0
11:56.661,257998,(,0,0,1
11:56.694,258010,N,0,0,0
11:56.764,258035,),0,0,1
11:56.825,258057,(,0,0,2
11:56.844,258064,t,0,0,4
11:56.964,258107,t,0,0,4
11:57.022,258128,),0,0,2
11:57.328,258238,(,0,0,1
11:57.367,258252,N,0,0,0
11:57.394,258262,),0,0,1
11:57.531,258311,(,0,0,2
11:57.664,258359,t,0,0,5
11:57.750,258390,t,0,0,5
11:57.781,258401,),0,0,2
11:58.022,258488,(,0,0,1
11:58.058,258501,N,0,0,0
11:58.086,258511,),0,0,1
11:58.228,258562,(,0,0,2
11:58.333,258600,t,0,0,0
11:58.406,258626,),0,0,2
11:58.550,258678,(,0,0,0
11:58.561,258682,p,0,0,0
11:58.594,258694,),0,0,0
11:58.700,258732,(,0,0,1
11:58.736,258745,N,0,0,0
11:58.761,258754,),0,0,1
11:59.014,258845,(,0,0,2
11:59.106,258878,t,0,0,1
11:59.222,258920,),0,0,2
11:59.919,259171,(,0,0,1
11:59.953,259183,N,0,0,0
11:59.978,259192,),0,0,1
12:00.100,259236,(,0,0,2
12:00.219,259279,t,0,0,0
12:00.286,259303,),0,0,2
12:00.528,259390,(,0,0,1
12:00.561,259402,N,0,0,0
12:00.589,259412,),0,0,1
12:00.719,259459,(,0,0,2
12:00.825,259497,t,0,0,5
12:00.892,259521,t,0,0,5
12:00.964,259547,),0,0,2
12:01.053,259579,(,0,0,0
12:01.081,259589,p,0,0,0
12:01.125,259605,),0,0,0
12:01.228,259642,(,0,0,1
12:01.261,259654,N,0,0,0
12:01.283,259662,),0,0,1
12:01.375,259695,(,0,0,2
12:01.406,259706,t,0,0,4
12:01.511,259744,t,0,0,4
12:01.589,259772,),0,0,2
12:01.681,259805,(,0,0,0
12:01.728,259822,p,0,0,0
12:01.786,259843,),0,0,0
12:01.858,259869,(,0,0,1
12:01.892,259881,N,0,0,0
12:01.917,259890,),0,0,1
12:02.044,259936,(,0,0,2
12:02.147,259973,t,0,0,5
12:02.228,260002,t,0,0,5
12:02.292,260025,),0,0,2
13:14.533,286032,(,0,0,1
13:14.569,286045,N,0,0,0
13:14.594,286054,),0,0,1
13:14.728,286102,(,0,0,2
13:14.842,286143,t,0,0,0
13:14.911,286168,),0,0,2
13:15.186,286267,(,0,0,1
13:15.217,286278,N,0,0,0
13:15.244,286288,),0,0,1
13:15.392,286341,(,0,0,2
13:15.503,286381,t,0,0,0
13:15.569,286405,),0,0,2
13:19.947,287981,(,0,0,1
13:19.981,287993,N,0,0,0
13:20.006,288002,),0,0,1
13:20.156,288056,(,0,0,2
13:20.247,288089,t,0,0,0
13:20.317,288114,),0,0,2
13:20.619,288223,(,0,0,1
13:20.650,288234,N,0,0,0
13:20.675,288243,),0,0,1
13:20.828,288298,(,0,0,2
13:20.925,288333,t,0,0,5
13:21.025,288369,t,0,0,5
13:21.092,288393,),0,0,2
13:24.978,289792,(,0,0,0
13:25.075,289827,p,0,0,0
13:25.133,289848,),0,0,0
13:25.167,289860,(,0,0,1
13:25.200,289872,N,0,0,0
13:25.258,289893,),0,0,1
13:25.375,289935,(,0,0,2
13:25.475,289971,t,0,0,0
13:25.539,289994,),0,0,2
13:26.781,290441,(,0,0,0
13:26.814,290453,p,0,0,0
13:26.847,290465,),0,0,0
13:26.953,290503,(,0,0,1
13:26.992,290517,N,0,0,0
13:27.019,290527,),0,0,1
13:27.156,290576,(,0,0,2
13:27.289,290624,t,0,0,0
13:27.356,290648,),0,0,2
13:27.683,290766,(,0,0,1
13:27.719,290779,N,0,0,0
13:27.744,290788,),0,0,1
13:27.889,290840,(,0,0,2
13:27.989,290876,t,0,0,0
13:28.092,290913,),0,0,2
13:28.094,290914,(,0,0,0
13:28.106,290918,p,0,0,0
13:28.189,290948,),0,0,0
13:28.375,291015,(,0,0,1
13:28.411,291028,N,0,0,0
13:28.436,291037,),0,0,1
13:28.589,291092,(,0,0,2
13:28.689,291128,t,0,0,5
13:28.800,291168,t,0,0,5
13:28.853,291187,),0,0,2
13:29.064,291263,(,0,0,1
13:29.097,291275,N,0,0,0
13:29.122,291284,),0,0,1
13:29.461,291406,t,0,0,2
13:29.553,291439,),0,0,2
13:31.419,292111,(,0,0,0
13:31.489,292136,p,0,0,0
13:31.531,292151,),0,0,0
13:31.678,292204,(,0,0,1
13:31.714,292217,N,0,0,0
13:31.736,292225,),0,0,1
13:31.928,292294,(,0,0,2
13:32.000,292320,t,0,0,0
13:32.061,292342,),0,0,2
13:32.614,292541,(,0,0,0
13:32.661,292558,p,0,0,0
13:32.700,292572,),0,0,0
13:32.803,292609,(,0,0,1
13:32.839,292622,N,0,0,0
13:32.864,292631,),0,0,1
13:33.089,292712,(,0,0,2
13:33.147,292733,t,0,0,0
13:33.247,292769,),0,0,2
13:33.264,292775,(,0,0,0
13:33.308,292791,p,0,0,0
13:33.361,292810,),0,0,0
13:33.508,292863,(,0,0,1
13:33.542,292875,N,0,0,0
13:33.567,292884,),0,0,1
13:33.719,292939,(,0,0,2
13:33.825,292977,t,0,0,0
13:33.911,293008,),0,0,2
13:34.181,293105,(,0,0,0
13:34.233,293124,p,0,0,0
13:34.297,293147,),0,0,0
13:34.333,293160,(,0,0,1
13:34.367,293172,N,0,0,0
13:34.392,293181,),0,0,1
13:34.531,293231,(,0,0,2
13:34.631,293267,t,0,0,0
13:34.736,293305,),0,0,2
13:35.142,293451,(,0,0,1
13:35.178,293464,N,0,0,0
13:35.203,293473,),0,0,1
13:35.536,293593,t,0,0,2
13:35.642,293631,),0,0,2
13:37.008,294123,(,0,0,1
13:37.042,294135,N,0,0,0
13:37.067,294144,),0,0,1
13:37.286,294223,(,0,0,2
13:37.342,294243,t,0,0,0
13:37.433,294276,),0,0,2
13:37.678,294364,(,0,0,1
13:37.708,294375,N,0,0,0
13:37.733,294384,),0,0,1
13:37.842,294423,(,0,0,2
13:37.958,294465,t,0,0,0
13:38.069,294505,),0,0,2
13:38.269,294577,(,0,0,1
13:38.306,294590,N,0,0,0
13:38.331,294599,),0,0,1
13:38.481,294653,(,0,0,2
13:38.581,294689,t,0,0,5
13:38.664,294719,t,0,0,5
13:38.750,294750,),0,0,2
13:38.803,294769,(,0,0,0
13:38.814,294773,p,0,0,0
13:38.889,294800,),0,0,0
13:38.933,294816,(,0,0,1
13:38.969,294829,N,0,0,0
13:38.994,294838,),0,0,1
13:39.258,294933,(,0,0,2
13:39.314,294953,t,0,0,1
13:39.431,294995,),0,0,2
13:39.933,295176,(,0,0,0
13:40.042,295215,p,0,0,0
13:40.069,295225,),0,0,0
13:40.219,295279,(,0,0,1
13:40.253,295291,N,0,0,0
13:40.278,295300,),0,0,1
13:40.419,295351,(,0,0,2
13:40.542,295395,t,0,0,0
13:40.625,295425,),0,0,2
13:40.906,295526,(,0,0,1
13:40.942,295539,N,0,0,0
13:40.967,295548,),0,0,1
13:41.114,295601,(,0,0,2
13:41.203,295633,t,0,0,0
13:41.303,295669,),0,0,2
13:41.547,295757,(,0,0,1
13:41.575,295767,N,0,0,0
13:41.600,295776,),0,0,1
13:41.742,295827,(,0,0,2
13:41.817,295854,t,0,0,0
13:41.892,295881,),0,0,2
13:44.608,296859,(,0,0,1
13:44.644,296872,N,0,0,0
13:44.694,296890,),0,0,1
13:44.819,296935,(,0,0,2
13:44.919,296971,t,0,0,0
13:45.019,297007,),0,0,2
13:47.536,297913,(,0,0,1
13:47.592,297933,N,0,0,0
13:47.619,297943,),0,0,1
13:47.758,297993,(,0,0,2
13:47.858,298029,t,0,0,0
13:47.936,298057,),0,0,2
13:48.822,298376,(,0,0,1
13:48.875,298395,N,0,0,0
13:48.903,298405,),0,0,1
13:48.981,298433,(,0,0,2
13:49.150,298494,t,0,0,5
13:49.242,298527,t,0,0,5
13:49.292,298545,),0,0,2
13:49.814,298733,(,0,0,1
13:49.864,298751,N,0,0,0
13:49.892,298761,),0,0,1
13:50.042,298815,(,0,0,2
13:50.122,298844,t,0,0,0
13:50.208,298875,),0,0,2
13:50.214,298877,(,0,0,0
13:50.256,298892,p,0,0,0
13:50.314,298913,),0,0,0
13:50.433,298956,(,0,0,1
13:50.478,298972,N,0,0,0
13:50.517,298986,),0,0,1
13:50.647,299033,(,0,0,2
13:50.736,299065,t,0,0,0
13:50.825,299097,),0,0,2
13:51.094,299194,(,0,0,0
13:51.156,299216,p,0,0,0
13:51.247,299249,),0,0,0
13:51.303,299269,(,0,0,1
13:51.356,299288,N,0,0,0
13:51.383,299298,),0,0,1
13:51.869,299473,(,0,0,2
13:51.931,299495,t,0,0,0
13:52.072,299546,),0,0,2
13:52.514,299705,(,0,0,0
13:52.542,299715,p,0,0,0
13:52.611,299740,),0,0,0
13:52.672,299762,(,0,0,1
13:52.719,299779,N,0,0,0
13:52.747,299789,),0,0,1
13:52.858,299829,(,0,0,2
13:52.997,299879,t,0,0,0
13:53.069,299905,),0,0,2
13:53.336,300001,(,0,0,1
13:53.381,300017,N,0,0,0
13:53.422,300032,),0,0,1
13:53.489,300056,(,0,0,2
13:53.522,300068,t,0,0,4
13:53.656,300116,t,0,0,4
13:53.731,300143,),0,0,2
13:53.958,300225,(,0,0,1
13:54.008,300243,N,0,0,0
13:54.047,300257,),0,0,1
13:54.414,300389,(,0,0,2
13:54.469,300409,t,0,0,0
13:54.519,300427,),0,0,2
13:55.100,300636,(,0,0,0
13:55.131,300647,p,0,0,0
13:55.211,300676,),0,0,0
13:55.236,300685,(,0,0,1
13:55.278,300700,N,0,0,0
13:55.306,300710,),0,0,1
13:55.442,300759,(,0,0,2
13:55.550,300798,t,0,0,0
13:55.642,300831,),0,0,2
13:55.981,300953,(,0,0,1
13:56.028,300970,N,0,0,0
13:56.069,300985,),0,0,1
13:56.419,301111,(,0,0,2
13:56.478,301132,t,0,0,0
13:56.528,301150,),0,0,2
13:57.275,301419,(,0,0,0
13:57.342,301443,p,0,0,0
13:57.408,301467,),0,0,0
13:57.500,301500,(,0,0,1
13:57.569,301525,N,0,0,0
13:57.600,301536,),0,0,1
13:57.761,301594,(,0,0,2
13:57.883,301638,t,0,0,0
13:57.958,301665,),0,0,2
13:58.203,301753,(,0,0,1
13:58.250,301770,N,0,0,0
13:58.294,301786,),0,0,1
13:58.364,301811,(,0,0,2
13:58.397,301823,t,0,0,4
13:58.522,301868,t,0,0,4
13:58.597,301895,),0,0,2
13:58.711,301936,(,0,0,0
13:58.753,301951,p,0,0,0
13:58.861,301990,),0,0,0
13:58.883,301998,(,0,0,1
13:58.953,302023,N,0,0,0
13:58.981,302033,),0,0,1
13:59.394,302182,(,0,0,2
13:59.450,302202,t,0,0,0
13:59.500,302220,),0,0,2
14:00.164,302459,(,0,0,1
14:00.228,302482,N,0,0,0
14:00.253,302491,),0,0,1
14:00.408,302547,(,0,0,2
14:00.503,302581,t,0,0,0
14:00.581,302609,),0,0,2
14:00.789,302684,(,0,0,1
14:00.836,302701,N,0,0,0
14:00.875,302715,),0,0,1
14:01.000,302760,(,0,0,2
14:01.108,302799,t,0,0,0
14:01.167,302820,),0,0,2
14:01.433,302916,(,0,0,1
14:01.478,302932,N,0,0,0
14:01.517,302946,),0,0,1
14:01.867,303072,(,0,0,2
14:01.922,303092,t,0,0,0
14:02.058,303141,),0,0,2
14:03.664,303719,(,0,0,1
14:03.711,303736,N,0,0,0
14:03.756,303752,),0,0,1
14:03.894,303802,(,0,0,2
14:04.017,303846,t,0,0,0
14:04.083,303870,),0,0,2
14:04.483,304014,(,0,0,0
14:04.517,304026,p,0,0,0
14:04.550,304038,),0,0,0
14:04.706,304094,(,0,0,1
14:04.756,304112,N,0,0,0
14:04.783,304122,),0,0,1
14:04.928,304174,(,0,0,2
14:05.053,304219,t,0,0,0
14:05.117,304242,),0,0,2
14:05.689,304448,(,0,0,1
14:05.736,304465,N,0,0,0
14:05.764,304475,),0,0,1
14:05.936,304537,(,0,0,2
14:06.014,304565,t,0,0,0
14:06.089,304592,),0,0,2
14:06.400,304704,(,0,0,1
14:06.447,304721,N,0,0,0
14:06.472,304730,),0,0,1
14:06.611,304780,(,0,0,2
14:06.714,304817,t,0,0,0
14:06.789,304844,),0,0,2
14:07.028,304930,(,0,0,1
14:07.075,304947,N,0,0,0
14:07.114,304961,),0,0,1
14:07.239,305006,(,0,0,2
14:07.333,305040,t,0,0,0
14:07.406,305066,),0,0,2
14:07.706,305174,(,0,0,1
14:07.753,305191,N,0,0,0
14:07.781,305201,),0,0,1
14:07.911,305248,(,0,0,2
14:08.022,305288,t,0,0,0
14:08.111,305320,),0,0,2
14:08.414,305429,(,0,0,0
14:08.456,305444,p,0,0,0
14:08.514,305465,),0,0,0
14:08.564,305483,(,0,0,1
14:08.608,305499,N,0,0,0
14:08.636,305509,),0,0,1
14:08.967,305628,t,0,0,2
14:09.069,305665,),0,0,2
14:09.675,305883,(,0,0,0
14:09.739,305906,p,0,0,0
14:09.772,305918,),0,0,0
14:09.928,305974,(,0,0,1
14:09.978,305992,N,0,0,0
14:10.006,306002,),0,0,1
14:10.069,306025,(,0,0,2
14:10.103,306037,t,0,0,4
14:10.283,306102,t,0,0,4
14:10.369,306133,),0,0,2
14:10.750,306270,(,0,0,0
14:10.828,306298,p,0,0,0
14:10.869,306313,),0,0,0
14:10.942,306339,(,0,0,1
14:10.989,306356,N,0,0,0
14:11.017,306366,),0,0,1
14:11.164,306419,(,0,0,2
14:11.275,306459,t,0,0,0
14:11.350,306486,),0,0,2
14:11.603,306577,(,0,0,1
14:11.650,306594,N,0,0,0
14:11.692,306609,),0,0,1
14:11.778,306640,(,0,0,2
14:11.925,306693,t,0,0,0
14:11.992,306717,),0,0,2
14:12.208,306795,(,0,0,1
14:12.264,306815,N,0,0,0
14:12.303,306829,),0,0,1
14:12.406,306866,(,0,0,2
14:12.525,306909,t,0,0,5
14:12.594,306934,t,0,0,5
14:12.639,306950,),0,0,2
14:12.781,307001,(,0,0,1
14:12.850,307026,N,0,0,0
14:12.878,307036,),0,0,1
14:13.194,307150,t,0,0,2
14:13.292,307185,),0,0,2
14:14.044,307456,(,0,0,1
14:14.097,307475,N,0,0,0
14:14.125,307485,),0,0,1
14:14.311,307552,(,0,0,2
14:14.381,307577,t,0,0,0
14:14.436,307597,),0,0,2
14:14.681,307685,(,0,0,1
14:14.728,307702,N,0,0,0
14:14.769,307717,),0,0,1
14:14.906,307766,(,0,0,2
14:15.033,307812,t,0,0,0
14:15.097,307835,),0,0,2
14:15.414,307949,(,0,0,1
14:15.475,307971,N,0,0,0
14:15.517,307986,),0,0,1
14:15.647,308033,(,0,0,2
14:15.775,308079,t,0,0,5
14:15.856,308108,t,0,0,5
14:15.897,308123,),0,0,2
14:16.636,308389,(,0,0,1
14:16.708,308415,N,0,0,0
14:16.736,308425,),0,0,1
14:16.900,308484,(,0,0,2
14:17.003,308521,t,0,0,5
14:17.089,308552,t,0,0,5
14:17.139,308570,),0,0,2
14:17.478,308692,(,0,0,1
14:17.531,308711,N,0,0,0
14:17.558,308721,),0,0,1
14:17.867,308832,t,0,0,2
14:17.969,308869,),0,0,2
14:18.906,309206,(,0,0,1
14:18.950,309222,N,0,0,0
14:18.978,309232,),0,0,1
14:19.106,309278,(,0,0,2
14:19.236,309325,t,0,0,0
14:19.303,309349,),0,0,2
14:19.583,309450,(,0,0,1
14:19.636,309469,N,0,0,0
14:19.678,309484,),0,0,1
14:19.817,309534,(,0,0,2
14:19.906,309566,t,0,0,0
14:19.983,309594,),0,0,2
14:19.986,309595,(,0,0,0
14:19.994,309598,p,0,0,0
14:20.031,309611,),0,0,0
14:20.186,309667,(,0,0,1
14:20.250,309690,N,0,0,0
14:20.289,309704,),0,0,1
14:20.369,309733,(,0,0,2
14:20.528,309790,t,0,0,5
14:20.639,309830,t,0,0,5
14:20.683,309846,),0,0,2
14:21.019,309967,(,0,0,1
14:21.069,309985,N,0,0,0
14:21.097,309995,),0,0,1
14:21.214,310037,(,0,0,2
14:21.347,310085,t,0,0,0
14:21.428,310114,),0,0,2
14:21.664,310199,(,0,0,1
14:21.711,310216,N,0,0,0
14:21.753,310231,),0,0,1
14:21.867,310272,(,0,0,2
14:21.981,310313,t,0,0,0
14:22.061,310342,),0,0,2
14:22.256,310412,(,0,0,0
14:22.283,310422,p,0,0,0
14:22.322,310436,),0,0,0
14:22.389,310460,(,0,0,1
14:22.447,310481,N,0,0,0
14:22.475,310491,),0,0,1
14:22.625,310545,(,0,0,2
14:22.739,310586,t,0,0,0
14:22.811,310612,),0,0,2
14:23.544,310876,(,0,0,1
14:23.592,310893,N,0,0,0
14:23.619,310903,),0,0,1
14:23.772,310958,(,0,0,2
14:23.875,310995,t,0,0,0
14:23.947,311021,),0,0,2
14:23.983,311034,(,0,0,0
14:24.017,311046,p,0,0,0
14:24.053,311059,),0,0,0
14:24.233,311124,(,0,0,1
14:24.286,311143,N,0,0,0
14:24.311,311152,),0,0,1
14:24.439,311198,(,0,0,2
14:24.533,311232,t,0,0,5
14:24.642,311271,t,0,0,5
14:24.700,311292,),0,0,2
14:24.750,311310,(,0,0,0
14:24.803,311329,p,0,0,0
14:24.844,311344,),0,0,0
14:25.008,311403,(,0,0,1
14:25.056,311420,N,0,0,0
14:25.083,311430,),0,0,1
14:25.403,311545,t,0,0,2
14:25.500,311580,),0,0,2
14:26.181,311825,(,0,0,1
14:26.233,311844,N,0,0,0
14:26.261,311854,),0,0,1
14:26.422,311912,(,0,0,2
14:26.519,311947,t,0,0,0
14:26.578,311968,),0,0,2
14:26.819,312055,(,0,0,1
14:26.867,312072,N,0,0,0
14:26.894,312082,),0,0,1
14:27.044,312136,(,0,0,2
14:27.133,312168,t,0,0,5
14:27.222,312200,t,0,0,5
14:27.269,312217,),0,0,2
14:27.419,312271,(,0,0,0
14:27.464,312287,p,0,0,0
14:27.511,312304,),0,0,0
14:27.575,312327,(,0,0,1
14:27.625,312345,N,0,0,0
14:27.653,312355,),0,0,1
14:27.997,312479,t,0,0,2
14:28.097,312515,),0,0,2
14:28.761,312754,(,0,0,0
14:28.819,312775,p,0,0,0
14:28.886,312799,),0,0,0
14:28.992,312837,(,0,0,1
14:29.039,312854,N,0,0,0
14:29.067,312864,),0,0,1
14:29.219,312919,(,0,0,2
14:29.331,312959,t,0,0,0
14:29.400,312984,),0,0,2
14:29.636,313069,(,0,0,1
14:29.686,313087,N,0,0,0
14:29.728,313102,),0,0,1
14:29.856,313148,(,0,0,2
14:29.950,313182,t,0,0,0
14:30.039,313214,),0,0,2
14:30.197,313271,(,0,0,1
14:30.253,313291,N,0,0,0
14:30.278,313300,),0,0,1
14:30.417,313350,(,0,0,2
14:30.506,313382,t,0,0,5
14:30.575,313407,t,0,0,5
14:30.750,313470,),0,0,2
14:31.444,313720,(,0,0,1
14:31.494,313738,N,0,0,0
14:31.522,313748,),0,0,1
14:31.625,313785,(,0,0,2
14:31.775,313839,t,0,0,0
14:31.858,313869,),0,0,2
14:32.028,313930,(,0,0,1
14:32.081,313949,N,0,0,0
14:32.108,313959,),0,0,1
14:32.222,314000,(,0,0,2
14:32.344,314044,t,0,0,0
14:32.383,314058,),0,0,2
14:32.664,314159,(,0,0,1
14:32.731,314183,N,0,0,0
14:32.758,314193,),0,0,1
14:32.917,314250,(,0,0,2
14:33.011,314284,t,0,0,0
14:33.075,314307,),0,0,2
14:34.006,314642,(,0,0,1
14:34.067,314664,N,0,0,0
14:34.094,314674,),0,0,1
14:34.233,314724,(,0,0,2
14:34.367,314772,t,0,0,0
14:34.464,314807,),0,0,2
14:34.722,314900,(,0,0,1
14:34.783,314922,N,0,0,0
14:34.825,314937,),0,0,1
14:34.942,314979,(,0,0,2
14:35.078,315028,t,0,0,0
14:35.122,315044,),0,0,2
14:35.300,315108,(,0,0,0
14:35.375,315135,p,0,0,0
14:35.433,315156,),0,0,0
14:35.542,315195,(,0,0,1
14:35.597,315215,N,0,0,0
14:35.625,315225,),0,0,1
14:35.831,315299,(,0,0,2
14:35.878,315316,t,0,0,0
14:35.969,315349,),0,0,2
14:35.986,315355,(,0,0,0
14:36.067,315384,p,0,0,0
14:36.119,315403,),0,0,0
14:36.164,315419,(,0,0,1
14:36.214,315437,N,0,0,0
14:36.242,315447,),0,0,1
14:36.397,315503,(,0,0,2
14:36.478,315532,t,0,0,5
14:36.556,315560,t,0,0,5
14:36.628,315586,),0,0,2
14:36.925,315693,(,0,0,0
14:36.967,315708,p,0,0,0
14:37.011,315724,),0,0,0
14:37.072,315746,(,0,0,1
14:37.119,315763,N,0,0,0
14:37.147,315773,),0,0,1
14:37.283,315822,(,0,0,2
14:37.403,315865,t,0,0,0
14:37.481,315893,),0,0,2
14:37.761,315994,(,0,0,1
14:37.817,316014,N,0,0,0
14:37.844,316024,),0,0,1
14:37.978,316072,(,0,0,2
14:38.078,316108,t,0,0,0
14:38.153,316135,),0,0,2
14:38.303,316189,(,0,0,0
14:38.331,316199,p,0,0,0
14:38.361,316210,),0,0,0
14:38.422,316232,(,0,0,1
14:38.467,316248,N,0,0,0
14:38.511,316264,),0,0,1
14:38.761,316354,(,0,0,2
14:38.825,316377,t,0,0,1
14:38.931,316415,),0,0,2
14:39.717,316698,(,0,0,1
14:39.769,316717,N,0,0,0
14:39.814,316733,),0,0,1
14:39.944,316780,(,0,0,2
14:40.069,316825,t,0,0,5
14:40.150,316854,t,0,0,5
14:40.214,316877,),0,0,2
14:40.419,316951,(,0,0,1
14:40.472,316970,N,0,0,0
14:40.514,316985,),0,0,1
14:40.656,317036,(,0,0,2
14:40.761,317074,t,0,0,5
14:40.836,317101,t,0,0,5
14:40.906,317126,),0,0,2
14:41.269,317257,(,0,0,1
14:41.314,317273,N,0,0,0
14:41.342,317283,),0,0,1
14:41.697,317411,t,0,0,3
14:41.758,317433,),0,0,2
14:42.500,317700,(,0,0,0
14:42.542,317715,p,0,0,0
14:42.583,317730,),0,0,0
14:42.642,317751,(,0,0,1
14:42.686,317767,N,0,0,0
14:42.714,317777,),0,0,1
14:42.892,317841,(,0,0,2
14:42.981,317873,t,0,0,0
14:43.031,317891,),0,0,2
14:43.219,317959,(,0,0,1
14:43.272,317978,N,0,0,0
14:43.311,317992,),0,0,1
14:43.383,318018,(,0,0,2
14:43.411,318028,t,0,0,4
14:43.525,318069,t,0,0,4
14:43.589,318092,),0,0,2
14:43.758,318153,(,0,0,1
14:43.806,318170,N,0,0,0
14:43.833,318180,),0,0,1
14:43.972,318230,(,0,0,2
14:44.061,318262,t,0,0,0
14:44.153,318295,),0,0,2
14:44.222,318320,(,0,0,0
14:44.272,318338,p,0,0,0
14:44.350,318366,),0,0,0
14:44.506,318422,(,0,0,1
14:44.594,318454,N,0,0,0
14:44.622,318464,),0,0,1
14:44.756,318512,(,0,0,2
14:44.869,318553,t,0,0,0
14:44.950,318582,),0,0,2
14:45.181,318665,(,0,0,1
14:45.253,318691,N,0,0,0
14:45.294,318706,),0,0,1
14:45.461,318766,(,0,0,2
14:45.542,318795,t,0,0,5
14:45.631,318827,t,0,0,5
14:45.692,318849,),0,0,2
14:45.706,318854,(,0,0,0
14:45.769,318877,p,0,0,0
14:45.833,318900,),0,0,0
14:45.878,318916,(,0,0,1
14:45.933,318936,N,0,0,0
14:45.964,318947,),0,0,1
14:46.103,318997,(,0,0,2
14:46.222,319040,t,0,0,5
14:46.306,319070,t,0,0,5
14:46.433,319116,),0,0,2
14:47.028,319330,(,0,0,0
14:47.081,319349,p,0,0,0
14:47.122,319364,),0,0,0
14:47.269,319417,(,0,0,1
14:47.317,319434,N,0,0,0
14:47.344,319444,),0,0,1
14:47.475,319491,(,0,0,2
14:47.606,319538,t,0,0,0
14:47.692,319569,),0,0,2
14:47.925,319653,(,0,0,1
14:47.981,319673,N,0,0,0
14:48.019,319687,),0,0,1
14:48.133,319728,(,0,0,2
14:48.242,319767,t,0,0,0
14:48.311,319792,),0,0,2
14:49.975,320391,(,0,0,1
14:50.028,320410,N,0,0,0
14:50.056,320420,),0,0,1
14:50.181,320465,(,0,0,2
14:50.286,320503,t,0,0,0
14:50.372,320534,),0,0,2
14:50.422,320552,(,0,0,0
14:50.472,320570,p,0,0,0
14:50.519,320587,),0,0,0
14:50.675,320643,(,0,0,1
14:50.725,320661,N,0,0,0
14:50.753,320671,),0,0,1
14:50.886,320719,(,0,0,2
14:51.008,320763,t,0,0,5
14:51.114,320801,t,0,0,5
14:51.197,320831,),0,0,2
14:51.217,320838,(,0,0,0
14:51.272,320858,p,0,0,0
14:51.306,320870,),0,0,0
14:51.433,320916,(,0,0,1
14:51.517,320946,N,0,0,0
14:51.547,320957,),0,0,1
14:51.694,321010,(,0,0,2
14:51.808,321051,t,0,0,0
14:51.878,321076,),0,0,2
14:52.194,321190,(,0,0,1
14:52.256,321212,N,0,0,0
14:52.283,321222,),0,0,1
14:52.431,321275,(,0,0,2
14:52.525,321309,t,0,0,0
14:52.614,321341,),0,0,2
14:52.875,321435,(,0,0,1
14:52.947,321461,N,0,0,0
14:52.978,321472,),0,0,1
14:53.294,321586,t,0,0,2
14:53.406,321626,),0,0,2
14:54.350,321966,(,0,0,1
14:54.406,321986,N,0,0,0
14:54.436,321997,),0,0,1
14:54.558,322041,(,0,0,2
14:54.683,322086,t,0,0,0
14:54.764,322115,),0,0,2
14:54.989,322196,(,0,0,1
14:55.033,322212,N,0,0,0
14:55.061,322222,),0,0,1
14:55.158,322257,(,0,0,2
14:55.303,322309,t,0,0,5
14:55.383,322338,t,0,0,5
14:55.428,322354,),0,0,2
14:55.694,322450,(,0,0,1
14:55.750,322470,N,0,0,0
14:55.778,322480,),0,0,1
14:55.947,322541,(,0,0,2
14:56.025,322569,t,0,0,0
14:56.108,322599,),0,0,2
14:56.358,322689,(,0,0,1
14:56.419,322711,N,0,0,0
14:56.447,322721,),0,0,1
14:56.539,322754,(,0,0,2
14:56.714,322817,t,0,0,0
14:56.772,322838,),0,0,2
14:56.983,322914,(,0,0,1
14:57.031,322931,N,0,0,0
14:57.058,322941,),0,0,1
14:57.231,323003,(,0,0,2
14:57.306,323030,t,0,0,5
14:57.375,323055,t,0,0,5
14:57.442,323079,),0,0,2
14:57.617,323142,(,0,0,1
14:57.667,323160,N,0,0,0
14:57.711,323176,),0,0,1
14:57.847,323225,(,0,0,2
14:57.961,323266,t,0,0,0
14:58.017,323286,),0,0,2
14:59.097,323675,(,0,0,1
14:59.158,323697,N,0,0,0
14:59.186,323707,),0,0,1
14:59.386,323779,(,0,0,2
14:59.444,323800,t,0,0,0
14:59.531,323831,),0,0,2
14:59.761,323914,(,0,0,0
14:59.800,323928,p,0,0,0
14:59.853,323947,),0,0,0
14:59.886,323959,(,0,0,1
14:59.933,323976,N,0,0,0
14:59.978,323992,),0,0,1
