Elapsedtime,sample,Type,Sub,Chan,Num
0:00.847,305,(,0,0,0
0:00.881,317,p,0,0,0
0:00.925,333,),0,0,0
0:00.944,340,(,0,0,1
0:01.000,360,N,0,0,0
0:01.022,368,),0,0,1
0:01.053,379,(,0,0,2
0:01.108,399,t,0,0,5
0:01.356,488,t,0,0,5
0:01.544,556,),0,0,2
0:01.636,589,(,0,0,0
0:01.672,602,p,0,0,0
0:01.717,618,),0,0,0
0:01.736,625,(,0,0,1
0:01.792,645,N,0,0,0
0:01.825,657,),0,0,1
0:01.928,694,(,0,0,2
0:01.986,715,t,0,0,5
0:02.153,775,t,0,0,5
0:02.222,800,),0,0,2
0:02.336,841,(,0,0,0
0:02.369,853,p,0,0,0
0:02.411,868,),0,0,0
0:02.444,880,(,0,0,1
0:02.475,891,N,0,0,0
0:02.511,904,),0,0,1
0:02.614,941,(,0,0,2
0:02.686,967,t,0,0,5
0:02.800,1008,t,0,0,5
0:02.836,1021,),0,0,2
0:03.153,1135,(,0,0,0
0:03.189,1148,p,0,0,0
0:03.233,1164,),0,0,0
0:03.256,1172,(,0,0,1
0:03.314,1193,N,0,0,0
0:03.342,1203,),0,0,1
0:03.361,1210,(,0,0,2
0:03.514,1265,t,0,0,5
0:03.686,1327,t,0,0,5
0:03.706,1334,),0,0,2
0:03.947,1421,(,0,0,0
0:03.983,1434,p,0,0,0
0:04.031,1451,),0,0,0
0:04.053,1459,(,0,0,1
0:04.114,1481,N,0,0,0
0:04.142,1491,),0,0,1
0:04.189,1508,(,0,0,2
0:04.328,1558,t,0,0,5
0:04.519,1627,t,0,0,5
0:04.572,1646,),0,0,2
0:04.767,1716,(,0,0,0
0:04.803,1729,p,0,0,0
0:04.853,1747,),0,0,0
0:04.889,1760,(,0,0,1
0:04.936,1777,N,0,0,0
0:04.969,1789,),0,0,1
0:05.019,1807,(,0,0,2
0:05.153,1855,t,0,0,5
0:05.322,1916,t,0,0,5
0:05.392,1941,),0,0,2
0:05.592,2013,(,0,0,0
0:05.631,2027,p,0,0,0
0:05.672,2042,),0,0,0
0:05.697,2051,(,0,0,1
0:05.753,2071,N,0,0,0
0:05.786,2083,),0,0,1
0:05.908,2127,(,0,0,2
0:05.958,2145,t,0,0,5
0:06.125,2205,t,0,0,5
0:06.256,2252,),0,0,2
0:06.328,2278,(,0,0,0
0:06.361,2290,p,0,0,0
0:06.406,2306,),0,0,0
0:06.428,2314,(,0,0,1
0:06.483,2334,N,0,0,0
0:06.511,2344,),0,0,1
0:06.528,2350,(,0,0,2
0:06.681,2405,t,0,0,5
0:06.842,2463,t,0,0,5
0:06.969,2509,),0,0,2
0:07.186,2587,(,0,0,0
0:07.219,2599,p,0,0,0
0:07.267,2616,),0,0,0
0:07.319,2635,(,0,0,1
0:07.342,2643,N,0,0,0
0:07.378,2656,),0,0,1
0:07.475,2691,(,0,0,2
0:07.517,2706,t,0,0,5
0:07.725,2781,t,0,0,5
0:07.806,2810,),0,0,2
0:08.006,2882,(,0,0,0
0:08.042,2895,p,0,0,0
0:08.086,2911,),0,0,0
0:08.106,2918,(,0,0,1
0:08.164,2939,N,0,0,0
0:08.192,2949,),0,0,1
0:08.694,3130,(,0,0,0
0:08.733,3144,p,0,0,0
0:08.781,3161,),0,0,0
0:08.800,3168,(,0,0,1
0:08.861,3190,N,0,0,0
0:08.897,3203,),0,0,1
0:08.981,3233,(,0,0,2
0:09.072,3266,t,0,0,5
0:09.258,3333,t,0,0,5
0:09.306,3350,),0,0,2
0:09.611,3460,(,0,0,0
0:09.644,3472,p,0,0,0
0:09.694,3490,),0,0,0
0:09.725,3501,(,0,0,1
0:09.775,3519,N,0,0,0
0:09.806,3530,),0,0,1
0:09.856,3548,(,0,0,2
0:09.892,3561,t,0,0,5
0:10.156,3656,t,0,0,5
0:10.267,3696,),0,0,2
0:10.472,3770,(,0,0,0
0:10.508,3783,p,0,0,0
0:10.556,3800,),0,0,0
0:10.606,3818,(,0,0,1
0:10.642,3831,N,0,0,0
0:10.675,3843,),0,0,1
0:10.711,3856,(,0,0,2
0:10.786,3883,t,0,0,5
0:10.964,3947,t,0,0,5
0:11.078,3988,),0,0,2
0:11.253,4051,(,0,0,0
0:11.289,4064,p,0,0,0
0:11.333,4080,),0,0,0
0:11.358,4089,(,0,0,1
0:11.411,4108,N,0,0,0
0:11.439,4118,),0,0,1
0:11.481,4133,(,0,0,2
0:11.600,4176,t,0,0,5
0:11.744,4228,t,0,0,5
0:11.889,4280,),0,0,2
0:12.072,4346,(,0,0,0
0:12.111,4360,p,0,0,0
0:12.158,4377,),0,0,0
0:12.181,4385,(,0,0,1
0:12.233,4404,N,0,0,0
0:12.256,4412,),0,0,1
0:12.325,4437,(,0,0,2
0:12.436,4477,t,0,0,5
0:12.592,4533,t,0,0,5
0:12.642,4551,),0,0,2
0:12.864,4631,(,0,0,0
0:12.903,4645,p,0,0,0
0:12.947,4661,),0,0,0
0:13.003,4681,(,0,0,1
0:13.025,4689,N,0,0,0
0:13.061,4702,),0,0,1
0:13.122,4724,(,0,0,2
0:13.169,4741,t,0,0,5
0:13.319,4795,t,0,0,5
0:13.472,4850,),0,0,2
0:13.653,4915,(,0,0,0
0:13.694,4930,p,0,0,0
0:13.736,4945,),0,0,0
0:13.761,4954,(,0,0,1
0:13.817,4974,N,0,0,0
0:13.842,4983,),0,0,1
0:14.386,5179,(,0,0,0
0:14.422,5192,p,0,0,0
0:14.461,5206,),0,0,0
0:14.486,5215,(,0,0,1
0:14.539,5234,N,0,0,0
0:14.578,5248,),0,0,1
0:14.689,5288,(,0,0,2
0:14.733,5304,t,0,0,5
0:14.958,5385,t,0,0,5
0:15.031,5411,),0,0,2
0:15.308,5511,(,0,0,0
0:15.342,5523,p,0,0,0
0:15.392,5541,),0,0,0
0:15.447,5561,(,0,0,1
0:15.472,5570,N,0,0,0
0:15.511,5584,),0,0,1
0:15.514,5585,(,0,0,2
0:15.628,5626,t,0,0,5
0:15.928,5734,t,0,0,5
0:16.000,5760,),0,0,2
0:16.075,5787,(,0,0,0
0:16.128,5806,p,0,0,0
0:16.231,5843,),0,0,0
0:16.244,5848,(,0,0,1
0:16.364,5891,N,0,0,0
0:16.400,5904,),0,0,1
0:16.403,5905,(,0,0,2
0:16.500,5940,t,0,0,5
0:16.764,6035,t,0,0,5
0:16.817,6054,),0,0,2
0:17.036,6133,(,0,0,0
0:17.075,6147,p,0,0,0
0:17.122,6164,),0,0,0
0:17.133,6168,(,0,0,1
0:17.200,6192,N,0,0,0
0:17.225,6201,),0,0,1
0:17.350,6246,(,0,0,2
0:17.414,6269,t,0,0,5
0:17.706,6374,t,0,0,5
0:17.736,6385,),0,0,2
0:17.847,6425,(,0,0,0
0:17.881,6437,p,0,0,0
0:17.931,6455,),0,0,0
0:17.983,6474,(,0,0,1
0:18.006,6482,N,0,0,0
0:18.044,6496,),0,0,1
0:18.100,6516,(,0,0,2
0:18.156,6536,t,0,0,5
0:18.358,6609,t,0,0,5
0:18.550,6678,),0,0,2
0:18.656,6716,(,0,0,0
0:18.700,6732,p,0,0,0
0:18.742,6747,),0,0,0
0:18.761,6754,(,0,0,1
0:18.819,6775,N,0,0,0
0:18.844,6784,),0,0,1
0:19.364,6971,(,0,0,0
0:19.403,6985,p,0,0,0
0:19.450,7002,),0,0,0
0:19.475,7011,(,0,0,1
0:19.528,7030,N,0,0,0
0:19.553,7039,),0,0,1
0:19.631,7067,(,0,0,2
0:19.731,7103,t,0,0,5
0:19.939,7178,t,0,0,5
0:19.964,7187,),0,0,2
0:20.217,7278,(,0,0,1
0:20.361,7330,N,0,0,0
0:20.389,7340,),0,0,1
0:20.539,7394,(,0,0,2
0:20.711,7456,t,0,0,1
0:20.875,7515,),0,0,2
0:20.972,7550,(,0,0,0
0:21.014,7565,p,0,0,0
0:21.058,7581,),0,0,0
0:21.083,7590,(,0,0,1
0:21.133,7608,N,0,0,0
0:21.158,7617,),0,0,1
0:21.756,7832,(,0,0,0
0:21.794,7846,p,0,0,0
0:21.844,7864,),0,0,0
0:21.872,7874,(,0,0,1
0:21.925,7893,N,0,0,0
0:21.950,7902,),0,0,1
0:22.600,8136,(,0,0,0
0:22.644,8152,p,0,0,0
0:22.697,8171,),0,0,0
0:22.719,8179,(,0,0,1
0:22.775,8199,N,0,0,0
0:22.800,8208,),0,0,1
0:22.844,8224,(,0,0,2
0:22.994,8278,t,0,0,5
0:23.181,8345,t,0,0,5
0:23.225,8361,),0,0,2
0:23.400,8424,(,0,0,0
0:23.436,8437,p,0,0,0
0:23.478,8452,),0,0,0
0:23.503,8461,(,0,0,1
0:23.553,8479,N,0,0,0
0:23.575,8487,),0,0,1
0:23.694,8530,(,0,0,2
0:23.756,8552,t,0,0,5
0:23.897,8603,t,0,0,5
0:23.992,8637,),0,0,2
0:24.178,8704,(,0,0,0
0:24.214,8717,p,0,0,0
0:24.261,8734,),0,0,0
0:24.306,8750,(,0,0,1
0:24.336,8761,N,0,0,0
0:24.361,8770,),0,0,1
0:24.964,8987,(,0,0,0
0:25.003,9001,p,0,0,0
0:25.047,9017,),0,0,0
0:25.067,9024,(,0,0,1
0:25.117,9042,N,0,0,0
0:25.139,9050,),0,0,1
0:25.656,9236,(,0,0,0
0:25.692,9249,p,0,0,0
0:25.736,9265,),0,0,0
0:25.767,9276,(,0,0,1
0:25.814,9293,N,0,0,0
0:25.839,9302,),0,0,1
0:25.911,9328,(,0,0,2
0:26.022,9368,t,0,0,5
0:26.236,9445,t,0,0,5
0:26.367,9492,),0,0,2
0:26.378,9496,(,0,0,0
0:26.386,9499,p,0,0,0
0:26.539,9554,),0,0,0
0:26.556,9560,(,0,0,1
0:26.675,9603,N,0,0,0
0:26.700,9612,),0,0,1
0:26.839,9662,(,0,0,2
0:26.886,9679,t,0,0,5
0:27.019,9727,t,0,0,5
0:27.133,9768,),0,0,2
0:27.378,9856,(,0,0,0
0:27.414,9869,p,0,0,0
0:27.467,9888,),0,0,0
0:27.519,9907,(,0,0,1
0:27.542,9915,N,0,0,0
0:27.581,9929,),0,0,1
0:28.142,10131,(,0,0,0
0:28.186,10147,p,0,0,0
0:28.233,10164,),0,0,0
0:28.264,10175,(,0,0,1
0:28.319,10195,N,0,0,0
0:28.344,10204,),0,0,1
0:28.469,10249,(,0,0,2
0:28.531,10271,t,0,0,5
0:28.697,10331,t,0,0,5
0:28.747,10349,),0,0,2
0:29.044,10456,(,0,0,0
0:29.078,10468,p,0,0,0
0:29.122,10484,),0,0,0
0:29.139,10490,(,0,0,1
0:29.206,10514,N,0,0,0
0:29.228,10522,),0,0,1
0:29.367,10572,(,0,0,2
0:29.406,10586,t,0,0,5
0:29.564,10643,t,0,0,5
0:29.689,10688,),0,0,2
0:29.789,10724,(,0,0,0
0:29.825,10737,p,0,0,0
0:29.869,10753,),0,0,0
0:29.922,10772,(,0,0,1
0:29.947,10781,N,0,0,0
0:29.981,10793,),0,0,1
0:30.589,11012,(,0,0,0
0:30.631,11027,p,0,0,0
0:30.678,11044,),0,0,0
0:30.700,11052,(,0,0,1
0:30.756,11072,N,0,0,0
0:30.781,11081,),0,0,1
0:30.908,11127,(,0,0,2
0:30.967,11148,t,0,0,5
0:31.169,11221,t,0,0,5
0:31.256,11252,),0,0,2
0:31.381,11297,(,0,0,0
0:31.417,11310,p,0,0,0
0:31.461,11326,),0,0,0
0:31.519,11347,(,0,0,1
0:31.542,11355,N,0,0,0
0:31.575,11367,),0,0,1
0:31.667,11400,(,0,0,2
0:31.692,11409,t,0,0,5
0:31.828,11458,t,0,0,5
0:31.981,11513,),0,0,2
0:32.181,11585,(,0,0,0
0:32.219,11599,p,0,0,0
0:32.264,11615,),0,0,0
0:32.283,11622,(,0,0,1
0:32.333,11640,N,0,0,0
0:32.358,11649,),0,0,1
0:32.403,11665,(,0,0,2
0:32.456,11684,t,0,0,5
0:32.667,11760,t,0,0,5
0:32.792,11805,),0,0,2
0:32.908,11847,(,0,0,0
0:32.944,11860,p,0,0,0
0:32.992,11877,),0,0,0
0:33.019,11887,(,0,0,1
0:33.075,11907,N,0,0,0
0:33.103,11917,),0,0,1
0:33.139,11930,(,0,0,2
0:33.272,11978,t,0,0,5
0:33.481,12053,t,0,0,5
0:33.594,12094,),0,0,2
0:33.831,12179,(,0,0,0
0:33.872,12194,p,0,0,0
0:33.925,12213,),0,0,0
0:33.972,12230,(,0,0,1
0:34.000,12240,N,0,0,0
0:34.036,12253,),0,0,1
0:34.683,12486,(,0,0,0
0:34.722,12500,p,0,0,0
0:34.772,12518,),0,0,0
0:34.794,12526,(,0,0,1
0:34.850,12546,N,0,0,0
0:34.875,12555,),0,0,1
0:35.008,12603,(,0,0,2
0:35.058,12621,t,0,0,5
0:35.192,12669,t,0,0,5
0:35.278,12700,),0,0,2
0:35.442,12759,(,0,0,0
0:35.483,12774,p,0,0,0
0:35.531,12791,),0,0,0
0:35.583,12810,(,0,0,1
0:35.608,12819,N,0,0,0
0:35.636,12829,),0,0,1
0:35.689,12848,(,0,0,2
0:35.786,12883,t,0,0,5
0:36.006,12962,t,0,0,5
0:36.058,12981,),0,0,2
0:36.300,13068,(,0,0,0
0:36.336,13081,p,0,0,0
0:36.381,13097,),0,0,0
0:36.408,13107,(,0,0,1
0:36.456,13124,N,0,0,0
0:36.489,13136,),0,0,1
0:36.661,13198,(,0,0,2
0:36.747,13229,t,0,0,1
0:36.964,13307,),0,0,2
0:37.075,13347,(,0,0,0
0:37.114,13361,p,0,0,0
0:37.158,13377,),0,0,0
0:37.183,13386,(,0,0,1
0:37.233,13404,N,0,0,0
0:37.258,13413,),0,0,1
0:37.375,13455,(,0,0,2
0:37.417,13470,t,0,0,5
0:37.556,13520,t,0,0,5
0:37.694,13570,),0,0,2
0:37.817,13614,(,0,0,0
0:37.856,13628,p,0,0,0
0:37.903,13645,),0,0,0
0:37.928,13654,(,0,0,1
0:37.978,13672,N,0,0,0
0:38.000,13680,),0,0,1
0:38.022,13688,(,0,0,2
0:38.175,13743,t,0,0,5
0:38.372,13814,t,0,0,5
0:38.450,13842,),0,0,2
0:38.619,13903,(,0,0,0
0:38.658,13917,p,0,0,0
0:38.706,13934,),0,0,0
0:38.753,13951,(,0,0,1
0:38.778,13960,N,0,0,0
0:38.814,13973,),0,0,1
0:38.819,13975,(,0,0,2
0:38.956,14024,t,0,0,5
0:39.064,14063,t,0,0,5
0:39.217,14118,),0,0,2
0:39.417,14190,(,0,0,0
0:39.458,14205,p,0,0,0
0:39.506,14222,),0,0,0
0:39.531,14231,(,0,0,1
0:39.586,14251,N,0,0,0
0:39.611,14260,),0,0,1
0:39.708,14295,(,0,0,2
0:39.797,14327,t,0,0,5
0:39.994,14398,t,0,0,5
0:40.111,14440,),0,0,2
0:40.244,14488,(,0,0,0
0:40.286,14503,p,0,0,0
0:40.336,14521,),0,0,0
0:40.358,14529,(,0,0,1
0:40.417,14550,N,0,0,0
0:40.456,14564,),0,0,1
0:40.569,14605,(,0,0,2
0:40.631,14627,t,0,0,5
0:40.789,14684,t,0,0,5
0:40.881,14717,),0,0,2
0:41.139,14810,(,0,0,0
0:41.175,14823,p,0,0,0
0:41.219,14839,),0,0,0
0:41.269,14857,(,0,0,1
0:41.294,14866,N,0,0,0
0:41.333,14880,),0,0,1
0:41.889,15080,(,0,0,0
0:41.925,15093,p,0,0,0
0:41.969,15109,),0,0,0
0:41.997,15119,(,0,0,1
0:42.044,15136,N,0,0,0
0:42.069,15145,),0,0,1
0:42.678,15364,(,0,0,0
0:42.717,15378,p,0,0,0
0:42.764,15395,),0,0,0
0:42.797,15407,(,0,0,1
0:42.839,15422,N,0,0,0
0:42.869,15433,),0,0,1
0:42.997,15479,(,0,0,2
0:43.028,15490,t,0,0,5
0:43.200,15552,t,0,0,5
0:43.294,15586,),0,0,2
0:43.469,15649,(,0,0,0
0:43.511,15664,p,0,0,0
0:43.556,15680,),0,0,0
0:43.603,15697,(,0,0,1
0:43.631,15707,N,0,0,0
0:43.683,15726,),0,0,1
0:44.181,15905,(,0,0,0
0:44.217,15918,p,0,0,0
0:44.261,15934,),0,0,0
0:44.283,15942,(,0,0,1
0:44.333,15960,N,0,0,0
0:44.372,15974,),0,0,1
0:44.394,15982,(,0,0,2
0:44.506,16022,t,0,0,0
0:44.633,16068,),0,0,2
0:45.044,16216,(,0,0,0
0:45.083,16230,p,0,0,0
0:45.125,16245,),0,0,0
0:45.156,16256,(,0,0,1
0:45.203,16273,N,0,0,0
0:45.242,16287,),0,0,1
0:45.864,16511,(,0,0,0
0:45.906,16526,p,0,0,0
0:45.953,16543,),0,0,0
0:45.975,16551,(,0,0,1
0:46.028,16570,N,0,0,0
0:46.072,16586,),0,0,1
0:46.119,16603,(,0,0,2
0:46.236,16645,t,0,0,5
0:46.447,16721,t,0,0,5
0:46.572,16766,),0,0,2
0:46.667,16800,(,0,0,0
0:46.703,16813,p,0,0,0
0:46.750,16830,),0,0,0
0:46.803,16849,(,0,0,1
0:46.831,16859,N,0,0,0
0:46.867,16872,),0,0,1
0:46.983,16914,(,0,0,2
0:47.011,16924,t,0,0,5
0:47.258,17013,t,0,0,5
0:47.353,17047,),0,0,2
0:47.475,17091,(,0,0,0
0:47.511,17104,p,0,0,0
0:47.553,17119,),0,0,0
0:47.603,17137,(,0,0,1
0:47.628,17146,N,0,0,0
0:47.661,17158,),0,0,1
0:48.208,17355,(,0,0,0
0:48.244,17368,p,0,0,0
0:48.289,17384,),0,0,0
0:48.314,17393,(,0,0,1
0:48.369,17413,N,0,0,0
0:48.408,17427,),0,0,1
0:48.492,17457,(,0,0,2
0:48.561,17482,t,0,0,5
0:48.706,17534,t,0,0,5
0:48.936,17617,),0,0,2
0:49.064,17663,(,0,0,0
0:49.100,17676,p,0,0,0
0:49.147,17693,),0,0,0
0:49.178,17704,(,0,0,1
0:49.219,17719,N,0,0,0
0:49.253,17731,),0,0,1
0:49.258,17733,(,0,0,2
0:49.350,17766,t,0,0,5
0:49.575,17847,t,0,0,5
0:49.675,17883,),0,0,2
0:49.836,17941,(,0,0,0
0:49.872,17954,p,0,0,0
0:49.917,17970,),0,0,0
0:49.967,17988,(,0,0,1
0:49.989,17996,N,0,0,0
0:50.017,18006,),0,0,1
0:50.031,18011,(,0,0,2
0:50.153,18055,t,0,0,5
0:50.297,18107,t,0,0,5
0:50.325,18117,),0,0,2
0:50.550,18198,(,0,0,0
0:50.583,18210,p,0,0,0
0:50.628,18226,),0,0,0
0:50.647,18233,(,0,0,1
0:50.706,18254,N,0,0,0
0:50.747,18269,),0,0,1
0:50.792,18285,(,0,0,2
0:50.911,18328,t,0,0,0
0:51.017,18366,),0,0,2
0:51.436,18517,(,0,0,0
0:51.467,18528,p,0,0,0
0:51.519,18547,),0,0,0
0:51.567,18564,(,0,0,1
0:51.592,18573,N,0,0,0
0:51.619,18583,),0,0,1
0:51.747,18629,(,0,0,2
0:51.806,18650,t,0,0,5
0:51.969,18709,t,0,0,5
0:52.136,18769,),0,0,2
0:52.219,18799,(,0,0,0
0:52.258,18813,p,0,0,0
0:52.306,18830,),0,0,0
0:52.361,18850,(,0,0,1
0:52.389,18860,N,0,0,0
0:52.419,18871,),0,0,1
0:53.042,19095,(,0,0,0
0:53.078,19108,p,0,0,0
0:53.122,19124,),0,0,0
0:53.175,19143,(,0,0,1
0:53.203,19153,N,0,0,0
0:53.233,19164,),0,0,1
0:53.317,19194,(,0,0,2
0:53.350,19206,t,0,0,5
0:53.614,19301,t,0,0,5
0:53.664,19319,),0,0,2
0:53.831,19379,(,0,0,0
0:53.867,19392,p,0,0,0
0:53.911,19408,),0,0,0
0:53.964,19427,(,0,0,1
0:53.989,19436,N,0,0,0
0:54.022,19448,),0,0,1
0:54.053,19459,(,0,0,2
0:54.189,19508,t,0,0,5
0:54.361,19570,t,0,0,5
0:54.472,19610,),0,0,2
0:54.594,19654,(,0,0,0
0:54.633,19668,p,0,0,0
0:54.678,19684,),0,0,0
0:54.700,19692,(,0,0,1
0:54.756,19712,N,0,0,0
0:54.789,19724,),0,0,1
0:54.872,19754,(,0,0,2
0:54.958,19785,t,0,0,5
0:55.153,19855,t,0,0,5
0:55.233,19884,),0,0,2
0:55.394,19942,(,0,0,0
0:55.433,19956,p,0,0,0
0:55.478,19972,),0,0,0
0:55.506,19982,(,0,0,1
0:55.556,20000,N,0,0,0
0:55.583,20010,),0,0,1
0:55.647,20033,(,0,0,2
0:55.686,20047,t,0,0,5
0:55.981,20153,t,0,0,5
0:56.025,20169,),0,0,2
0:56.186,20227,(,0,0,0
0:56.222,20240,p,0,0,0
0:56.264,20255,),0,0,0
0:56.314,20273,(,0,0,1
0:56.336,20281,N,0,0,0
0:56.372,20294,),0,0,1
0:56.894,20482,(,0,0,0
0:56.931,20495,p,0,0,0
0:56.975,20511,),0,0,0
0:57.033,20532,(,0,0,1
0:57.064,20543,N,0,0,0
0:57.100,20556,),0,0,1
0:57.156,20576,(,0,0,2
0:57.286,20623,t,0,0,5
0:57.447,20681,t,0,0,5
0:57.597,20735,),0,0,2
0:57.825,20817,(,0,0,0
0:57.861,20830,p,0,0,0
0:57.906,20846,),0,0,0
0:57.931,20855,(,0,0,1
0:57.994,20878,N,0,0,0
0:58.017,20886,),0,0,1
0:58.144,20932,(,0,0,2
0:58.228,20962,t,0,0,5
0:58.397,21023,t,0,0,5
0:58.497,21059,),0,0,2
0:58.644,21112,(,0,0,0
0:58.681,21125,p,0,0,0
0:58.722,21140,),0,0,0
0:58.783,21162,(,0,0,1
0:58.806,21170,N,0,0,0
0:58.839,21182,),0,0,1
0:58.911,21208,(,0,0,2
0:58.953,21223,t,0,0,5
0:59.133,21288,t,0,0,5
0:59.306,21350,),0,0,2
0:59.447,21401,(,0,0,0
0:59.483,21414,p,0,0,0
0:59.528,21430,),0,0,0
0:59.547,21437,(,0,0,1
0:59.603,21457,N,0,0,0
0:59.631,21467,),0,0,1
0:59.692,21489,(,0,0,2
0:59.742,21507,t,0,0,5
0:59.972,21590,t,0,0,5
1:00.069,21625,),0,0,2
1:00.214,21677,(,0,0,0
1:00.250,21690,p,0,0,0
1:00.297,21707,),0,0,0
1:00.350,21726,(,0,0,1
1:00.375,21735,N,0,0,0
1:00.403,21745,),0,0,1
1:00.431,21755,(,0,0,2
1:00.572,21806,t,0,0,5
1:00.694,21850,t,0,0,5
1:00.783,21882,),0,0,2
1:01.075,21987,(,0,0,0
1:01.106,21998,p,0,0,0
1:01.147,22013,),0,0,0
1:01.206,22034,(,0,0,1
1:01.228,22042,N,0,0,0
1:01.261,22054,),0,0,1
1:01.367,22092,(,0,0,2
1:01.392,22101,t,0,0,5
1:01.544,22156,t,0,0,5
1:01.625,22185,),0,0,2
1:01.794,22246,(,0,0,0
1:01.833,22260,p,0,0,0
1:01.881,22277,),0,0,0
1:01.933,22296,(,0,0,1
1:01.956,22304,N,0,0,0
1:01.992,22317,),0,0,1
1:02.061,22342,(,0,0,2
1:02.158,22377,t,0,0,5
1:02.356,22448,t,0,0,5
1:02.397,22463,),0,0,2
1:02.569,22525,(,0,0,0
1:02.608,22539,p,0,0,0
1:02.653,22555,),0,0,0
1:02.678,22564,(,0,0,1
1:02.733,22584,N,0,0,0
1:02.769,22597,),0,0,1
1:02.836,22621,(,0,0,2
1:02.942,22659,t,0,0,0
1:03.086,22711,),0,0,2
1:03.478,22852,(,0,0,0
1:03.511,22864,p,0,0,0
1:03.558,22881,),0,0,0
1:03.614,22901,(,0,0,1
1:03.639,22910,N,0,0,0
1:03.675,22923,),0,0,1
1:03.758,22953,(,0,0,2
1:03.806,22970,t,0,0,5
1:03.992,23037,t,0,0,5
1:04.086,23071,),0,0,2
1:04.283,23142,(,0,0,0
1:04.322,23156,p,0,0,0
1:04.369,23173,),0,0,0
1:04.394,23182,(,0,0,1
1:04.450,23202,N,0,0,0
1:04.472,23210,),0,0,1
1:04.619,23263,(,0,0,2
1:04.658,23277,t,0,0,5
1:04.739,23306,t,0,0,5
1:04.775,23319,),0,0,2
1:05.053,23419,(,0,0,0
1:05.086,23431,p,0,0,0
1:05.128,23446,),0,0,0
1:05.153,23455,(,0,0,1
1:05.206,23474,N,0,0,0
1:05.233,23484,),0,0,1
1:05.294,23506,(,0,0,2
1:05.403,23545,t,0,0,5
1:05.617,23622,t,0,0,5
1:05.703,23653,),0,0,2
1:05.906,23726,(,0,0,0
1:05.944,23740,p,0,0,0
1:05.994,23758,),0,0,0
1:06.047,23777,(,0,0,1
1:06.072,23786,N,0,0,0
1:06.108,23799,),0,0,1
1:06.158,23817,(,0,0,2
1:06.194,23830,t,0,0,5
1:06.472,23930,t,0,0,5
1:06.517,23946,),0,0,2
1:06.733,24024,(,0,0,0
1:06.769,24037,p,0,0,0
1:06.817,24054,),0,0,0
1:06.869,24073,(,0,0,1
1:06.897,24083,N,0,0,0
1:06.931,24095,),0,0,1
1:07.475,24291,(,0,0,0
1:07.511,24304,p,0,0,0
1:07.556,24320,),0,0,0
1:07.581,24329,(,0,0,1
1:07.631,24347,N,0,0,0
1:07.661,24358,),0,0,1
1:07.672,24362,(,0,0,2
1:07.833,24420,t,0,0,5
1:07.964,24467,t,0,0,5
1:08.086,24511,),0,0,2
1:08.275,24579,(,0,0,0
1:08.311,24592,p,0,0,0
1:08.353,24607,),0,0,0
1:08.400,24624,(,0,0,1
1:08.422,24632,N,0,0,0
1:08.472,24650,),0,0,1
1:08.528,24670,(,0,0,2
1:08.614,24701,t,0,0,5
1:08.825,24777,t,0,0,5
1:08.894,24802,),0,0,2
1:09.058,24861,(,0,0,0
1:09.094,24874,p,0,0,0
1:09.139,24890,),0,0,0
1:09.172,24902,(,0,0,1
1:09.222,24920,N,0,0,0
1:09.250,24930,),0,0,1
1:09.322,24956,(,0,0,2
1:09.419,24991,t,0,0,5
1:09.586,25051,t,0,0,5
1:09.625,25065,),0,0,2
1:09.875,25155,(,0,0,0
1:09.917,25170,p,0,0,0
1:09.961,25186,),0,0,0
1:10.017,25206,(,0,0,1
1:10.047,25217,N,0,0,0
1:10.083,25230,),0,0,1
1:10.219,25279,(,0,0,2
1:10.242,25287,t,0,0,5
1:10.419,25351,t,0,0,5
1:10.567,25404,),0,0,2
1:10.772,25478,(,0,0,0
1:10.806,25490,p,0,0,0
1:10.850,25506,),0,0,0
1:10.903,25525,(,0,0,1
1:10.931,25535,N,0,0,0
1:10.975,25551,),0,0,1
1:11.061,25582,(,0,0,2
1:11.100,25596,t,0,0,5
1:11.358,25689,t,0,0,5
1:11.394,25702,),0,0,2
1:11.514,25745,(,0,0,0
1:11.550,25758,p,0,0,0
1:11.597,25775,),0,0,0
1:11.653,25795,(,0,0,1
1:11.681,25805,N,0,0,0
1:11.717,25818,),0,0,1
1:11.825,25857,(,0,0,2
1:11.894,25882,t,0,0,5
1:11.997,25919,t,0,0,5
1:12.047,25937,),0,0,2
1:12.414,26069,(,0,0,0
1:12.447,26081,p,0,0,0
1:12.489,26096,),0,0,0
1:12.514,26105,(,0,0,1
1:12.569,26125,N,0,0,0
1:12.606,26138,),0,0,1
1:12.608,26139,(,0,0,2
1:12.697,26171,t,0,0,5
1:12.844,26224,t,0,0,5
1:13.017,26286,),0,0,2
1:13.178,26344,(,0,0,0
1:13.214,26357,p,0,0,0
1:13.253,26371,),0,0,0
1:13.278,26380,(,0,0,1
1:13.331,26399,N,0,0,0
1:13.353,26407,),0,0,1
1:13.422,26432,(,0,0,2
1:13.536,26473,t,0,0,5
1:13.711,26536,t,0,0,5
1:13.758,26553,),0,0,2
1:13.950,26622,(,0,0,0
1:13.989,26636,p,0,0,0
1:14.033,26652,),0,0,0
1:14.064,26663,(,0,0,1
1:14.111,26680,N,0,0,0
1:14.133,26688,),0,0,1
1:14.250,26730,(,0,0,2
1:14.300,26748,t,0,0,5
1:14.461,26806,t,0,0,5
1:14.542,26835,),0,0,2
1:14.797,26927,(,0,0,0
1:14.831,26939,p,0,0,0
1:14.872,26954,),0,0,0
1:14.925,26973,(,0,0,1
1:14.961,26986,N,0,0,0
1:14.997,26999,),0,0,1
1:15.603,27217,(,0,0,0
1:15.642,27231,p,0,0,0
1:15.689,27248,),0,0,0
1:15.747,27269,(,0,0,1
1:15.775,27279,N,0,0,0
1:15.814,27293,),0,0,1
1:15.928,27334,(,0,0,2
1:15.994,27358,t,0,0,5
1:16.125,27405,t,0,0,5
1:16.256,27452,),0,0,2
1:16.503,27541,(,0,0,0
1:16.544,27556,p,0,0,0
1:16.589,27572,),0,0,0
1:16.617,27582,(,0,0,1
1:16.675,27603,N,0,0,0
1:16.697,27611,),0,0,1
1:16.775,27639,(,0,0,2
1:16.831,27659,t,0,0,5
1:17.067,27744,t,0,0,5
1:17.156,27776,),0,0,2
1:17.333,27840,(,0,0,0
1:17.372,27854,p,0,0,0
1:17.414,27869,),0,0,0
1:17.461,27886,(,0,0,1
1:17.483,27894,N,0,0,0
1:17.517,27906,),0,0,1
1:17.583,27930,(,0,0,2
1:17.631,27947,t,0,0,5
1:17.789,28004,t,0,0,5
1:17.958,28065,),0,0,2
1:18.142,28131,(,0,0,0
1:18.183,28146,p,0,0,0
1:18.225,28161,),0,0,0
1:18.256,28172,(,0,0,1
1:18.303,28189,N,0,0,0
1:18.333,28200,),0,0,1
1:18.392,28221,(,0,0,2
1:18.508,28263,t,0,0,5
1:18.675,28323,t,0,0,5
1:18.775,28359,),0,0,2
1:18.886,28399,(,0,0,0
1:18.919,28411,p,0,0,0
1:18.964,28427,),0,0,0
1:18.992,28437,(,0,0,1
1:19.047,28457,N,0,0,0
1:19.083,28470,),0,0,1
1:19.136,28489,(,0,0,2
1:19.236,28525,t,0,0,5
1:19.358,28569,t,0,0,5
1:19.508,28623,),0,0,2
1:19.750,28710,(,0,0,0
1:19.783,28722,p,0,0,0
1:19.828,28738,),0,0,0
1:19.883,28758,(,0,0,1
1:19.908,28767,N,0,0,0
1:19.939,28778,),0,0,1
1:20.019,28807,(,0,0,2
1:20.044,28816,t,0,0,5
1:20.242,28887,t,0,0,5
1:20.342,28923,),0,0,2
1:20.519,28987,(,0,0,0
1:20.558,29001,p,0,0,0
1:20.603,29017,),0,0,0
1:20.628,29026,(,0,0,1
1:20.686,29047,N,0,0,0
1:20.708,29055,),0,0,1
1:20.794,29086,(,0,0,2
1:20.850,29106,t,0,0,5
1:21.050,29178,t,0,0,5
1:21.128,29206,),0,0,2
1:21.342,29283,(,0,0,0
1:21.378,29296,p,0,0,0
1:21.422,29312,),0,0,0
1:21.450,29322,(,0,0,1
1:21.508,29343,N,0,0,0
1:21.544,29356,),0,0,1
1:21.553,29359,(,0,0,2
1:21.714,29417,t,0,0,5
1:21.883,29478,t,0,0,5
1:22.061,29542,),0,0,2
1:22.233,29604,(,0,0,0
1:22.272,29618,p,0,0,0
1:22.319,29635,),0,0,0
1:22.353,29647,(,0,0,1
1:22.397,29663,N,0,0,0
1:22.433,29676,),0,0,1
1:22.439,29678,(,0,0,2
1:22.572,29726,t,0,0,5
1:22.778,29800,t,0,0,5
1:22.808,29811,),0,0,2
1:23.044,29896,(,0,0,0
1:23.081,29909,p,0,0,0
1:23.122,29924,),0,0,0
1:23.181,29945,(,0,0,1
1:23.203,29953,N,0,0,0
1:23.236,29965,),0,0,1
1:23.808,30171,(,0,0,0
1:23.844,30184,p,0,0,0
1:23.892,30201,),0,0,0
1:23.914,30209,(,0,0,1
1:23.969,30229,N,0,0,0
1:23.992,30237,),0,0,1
1:24.069,30265,(,0,0,2
1:24.189,30308,t,0,0,5
1:24.342,30363,t,0,0,5
1:24.447,30401,),0,0,2
1:24.689,30488,(,0,0,0
1:24.719,30499,p,0,0,0
1:24.761,30514,),0,0,0
1:24.817,30534,(,0,0,1
1:24.844,30544,N,0,0,0
1:24.886,30559,),0,0,1
1:24.961,30586,(,0,0,2
1:24.994,30598,t,0,0,5
1:25.236,30685,t,0,0,5
1:25.336,30721,),0,0,2
1:25.464,30767,(,0,0,0
1:25.503,30781,p,0,0,0
1:25.547,30797,),0,0,0
1:25.597,30815,(,0,0,1
1:25.622,30824,N,0,0,0
1:25.650,30834,),0,0,1
1:25.769,30877,(,0,0,2
1:25.817,30894,t,0,0,5
1:25.903,30925,t,0,0,5
1:26.028,30970,),0,0,2
1:26.211,31036,(,0,0,0
1:26.244,31048,p,0,0,0
1:26.289,31064,),0,0,0
1:26.308,31071,(,0,0,1
1:26.358,31089,N,0,0,0
1:26.392,31101,),0,0,1
1:26.478,31132,(,0,0,2
1:26.542,31155,t,0,0,5
1:26.778,31240,t,0,0,5
1:26.808,31251,),0,0,2
1:27.056,31340,(,0,0,0
1:27.092,31353,p,0,0,0
1:27.133,31368,),0,0,0
1:27.189,31388,(,0,0,1
1:27.214,31397,N,0,0,0
1:27.247,31409,),0,0,1
1:27.297,31427,(,0,0,2
1:27.331,31439,t,0,0,5
1:27.556,31520,t,0,0,5
1:27.697,31571,),0,0,2
1:27.867,31632,(,0,0,0
1:27.906,31646,p,0,0,0
1:27.950,31662,),0,0,0
1:27.981,31673,(,0,0,1
1:28.033,31692,N,0,0,0
1:28.058,31701,),0,0,1
1:28.083,31710,(,0,0,2
1:28.181,31745,t,0,0,5
1:28.372,31814,t,0,0,5
1:28.583,31890,),0,0,2
1:28.669,31921,(,0,0,0
1:28.706,31934,p,0,0,0
1:28.753,31951,),0,0,0
1:28.778,31960,(,0,0,1
1:28.836,31981,N,0,0,0
1:28.872,31994,),0,0,1
1:28.878,31996,(,0,0,2
1:29.050,32058,t,0,0,5
1:29.283,32142,t,0,0,5
1:29.353,32167,),0,0,2
1:29.489,32216,(,0,0,0
1:29.528,32230,p,0,0,0
1:29.572,32246,),0,0,0
1:29.628,32266,(,0,0,1
1:29.653,32275,N,0,0,0
1:29.689,32288,),0,0,1
1:29.817,32334,(,0,0,2
1:29.844,32344,t,0,0,5
1:29.992,32397,t,0,0,5
1:30.117,32442,),0,0,2
1:30.308,32511,(,0,0,0
1:30.347,32525,p,0,0,0
1:30.389,32540,),0,0,0
1:30.411,32548,(,0,0,1
1:30.464,32567,N,0,0,0
1:30.486,32575,),0,0,1
1:31.028,32770,(,0,0,0
1:31.064,32783,p,0,0,0
1:31.106,32798,),0,0,0
1:31.131,32807,(,0,0,1
1:31.181,32825,N,0,0,0
1:31.214,32837,),0,0,1
1:31.228,32842,(,0,0,2
1:31.383,32898,t,0,0,5
1:31.572,32966,t,0,0,5
1:31.631,32987,),0,0,2
1:31.869,33073,(,0,0,0
1:31.900,33084,p,0,0,0
1:31.944,33100,),0,0,0
1:31.967,33108,(,0,0,1
1:32.017,33126,N,0,0,0
1:32.053,33139,),0,0,1
1:32.164,33179,(,0,0,2
1:32.217,33198,t,0,0,5
1:32.394,33262,t,0,0,5
1:32.503,33301,),0,0,2
1:32.586,33331,(,0,0,0
1:32.622,33344,p,0,0,0
1:32.669,33361,),0,0,0
1:32.689,33368,(,0,0,1
1:32.750,33390,N,0,0,0
1:32.783,33402,),0,0,1
1:32.869,33433,(,0,0,2
1:32.958,33465,t,0,0,5
1:33.131,33527,t,0,0,5
1:33.167,33540,),0,0,2
1:33.436,33637,(,0,0,0
1:33.472,33650,p,0,0,0
1:33.519,33667,),0,0,0
1:33.544,33676,(,0,0,1
1:33.606,33698,N,0,0,0
1:33.628,33706,),0,0,1
1:33.739,33746,(,0,0,2
1:33.775,33759,t,0,0,5
1:33.981,33833,t,0,0,5
1:34.019,33847,),0,0,2
1:34.258,33933,(,0,0,0
1:34.297,33947,p,0,0,0
1:34.344,33964,),0,0,0
1:34.389,33980,(,0,0,1
1:34.425,33993,N,0,0,0
1:34.458,34005,),0,0,1
1:34.506,34022,(,0,0,2
1:34.611,34060,t,0,0,5
1:34.781,34121,t,0,0,5
1:34.869,34153,),0,0,2
1:35.094,34234,(,0,0,0
1:35.131,34247,p,0,0,0
1:35.178,34264,),0,0,0
1:35.203,34273,(,0,0,1
1:35.250,34290,N,0,0,0
1:35.289,34304,),0,0,1
1:35.392,34341,(,0,0,2
1:35.444,34360,t,0,0,5
1:35.564,34403,t,0,0,5
1:35.592,34413,),0,0,2
1:35.928,34534,(,0,0,0
1:35.967,34548,p,0,0,0
1:36.011,34564,),0,0,0
1:36.064,34583,(,0,0,1
1:36.086,34591,N,0,0,0
1:36.119,34603,),0,0,1
1:36.142,34611,(,0,0,2
1:36.203,34633,t,0,0,5
1:36.517,34746,t,0,0,5
1:36.556,34760,),0,0,2
1:36.781,34841,(,0,0,0
1:36.811,34852,p,0,0,0
1:36.856,34868,),0,0,0
1:36.911,34888,(,0,0,1
1:36.936,34897,N,0,0,0
1:36.972,34910,),0,0,1
1:37.597,35135,(,0,0,0
1:37.628,35146,p,0,0,0
1:37.672,35162,),0,0,0
1:37.703,35173,(,0,0,1
1:37.750,35190,N,0,0,0
1:37.781,35201,),0,0,1
1:37.872,35234,(,0,0,2
1:37.964,35267,t,0,0,5
1:38.100,35316,t,0,0,5
1:38.272,35378,),0,0,2
1:38.406,35426,(,0,0,0
1:38.439,35438,p,0,0,0
1:38.478,35452,),0,0,0
1:38.536,35473,(,0,0,1
1:38.564,35483,N,0,0,0
1:38.597,35495,),0,0,1
1:38.667,35520,(,0,0,2
1:38.728,35542,t,0,0,5
1:39.056,35660,t,0,0,5
1:39.175,35703,),0,0,2
1:39.289,35744,(,0,0,0
1:39.317,35754,p,0,0,0
1:39.361,35770,),0,0,0
1:39.378,35776,(,0,0,1
1:39.444,35800,N,0,0,0
1:39.481,35813,),0,0,1
1:39.553,35839,(,0,0,2
1:39.592,35853,t,0,0,5
1:39.772,35918,t,0,0,5
1:39.808,35931,),0,0,2
1:40.172,36062,(,0,0,0
1:40.203,36073,p,0,0,0
1:40.261,36094,),0,0,0
1:40.281,36101,(,0,0,1
1:40.336,36121,N,0,0,0
1:40.372,36134,),0,0,1
1:40.442,36159,(,0,0,2
1:40.486,36175,t,0,0,5
1:40.656,36236,t,0,0,5
1:40.792,36285,),0,0,2
1:41.053,36379,(,0,0,0
1:41.083,36390,p,0,0,0
1:41.125,36405,),0,0,0
1:41.172,36422,(,0,0,1
1:41.203,36433,N,0,0,0
1:41.228,36442,),0,0,1
1:41.344,36484,(,0,0,2
1:41.383,36498,t,0,0,5
1:41.511,36544,t,0,0,5
1:41.678,36604,),0,0,2
1:41.883,36678,(,0,0,0
1:41.933,36696,p,0,0,0
1:41.981,36713,),0,0,0
1:42.036,36733,(,0,0,1
1:42.061,36742,N,0,0,0
1:42.097,36755,),0,0,1
1:42.167,36780,(,0,0,2
1:42.200,36792,t,0,0,5
1:42.506,36902,t,0,0,5
1:42.536,36913,),0,0,2
1:42.789,37004,(,0,0,0
1:42.817,37014,p,0,0,0
1:42.858,37029,),0,0,0
1:42.869,37033,(,0,0,1
1:42.936,37057,N,0,0,0
1:42.969,37069,),0,0,1
1:42.994,37078,(,0,0,2
1:43.078,37108,t,0,0,5
1:43.222,37160,t,0,0,5
1:43.325,37197,),0,0,2
1:43.494,37258,(,0,0,0
1:43.533,37272,p,0,0,0
1:43.583,37290,),0,0,0
1:43.608,37299,(,0,0,1
1:43.661,37318,N,0,0,0
1:43.683,37326,),0,0,1
1:43.756,37352,(,0,0,2
1:43.856,37388,t,0,0,5
1:43.994,37438,t,0,0,5
1:44.089,37472,),0,0,2
1:44.386,37579,(,0,0,0
1:44.417,37590,p,0,0,0
1:44.453,37603,),0,0,0
1:44.511,37624,(,0,0,1
1:44.536,37633,N,0,0,0
1:44.564,37643,),0,0,1
1:44.642,37671,(,0,0,2
1:44.722,37700,t,0,0,5
1:44.911,37768,t,0,0,5
1:44.950,37782,),0,0,2
1:45.278,37900,(,0,0,0
1:45.311,37912,p,0,0,0
1:45.356,37928,),0,0,0
1:45.414,37949,(,0,0,1
1:45.439,37958,N,0,0,0
1:45.475,37971,),0,0,1
1:45.669,38041,(,0,0,2
1:45.722,38060,t,0,0,1
1:45.861,38110,),0,0,2
1:46.189,38228,(,0,0,1
1:46.331,38279,N,0,0,0
1:46.356,38288,),0,0,1
1:46.478,38332,(,0,0,2
1:46.506,38342,t,0,0,5
1:46.644,38392,t,0,0,5
1:46.778,38440,),0,0,2
1:47.072,38546,(,0,0,0
1:47.103,38557,p,0,0,0
1:47.147,38573,),0,0,0
1:47.203,38593,(,0,0,1
1:47.228,38602,N,0,0,0
1:47.258,38613,),0,0,1
1:47.272,38618,(,0,0,2
1:47.344,38644,t,0,0,5
1:47.594,38734,t,0,0,5
1:47.678,38764,),0,0,2
1:47.933,38856,(,0,0,0
1:47.961,38866,p,0,0,0
1:48.011,38884,),0,0,0
1:48.056,38900,(,0,0,1
1:48.092,38913,N,0,0,0
1:48.131,38927,),0,0,1
1:48.208,38955,(,0,0,2
1:48.239,38966,t,0,0,5
1:48.383,39018,t,0,0,5
1:48.628,39106,),0,0,2
1:48.786,39163,(,0,0,0
1:48.822,39176,p,0,0,0
1:48.869,39193,),0,0,0
1:48.883,39198,(,0,0,1
1:48.944,39220,N,0,0,0
1:48.967,39228,),0,0,1
1:49.150,39294,(,0,0,2
1:49.314,39353,t,0,0,1
1:49.453,39403,),0,0,2
1:49.628,39466,(,0,0,0
1:49.653,39475,p,0,0,0
1:49.703,39493,),0,0,0
1:49.764,39515,(,0,0,1
1:49.786,39523,N,0,0,0
1:49.833,39540,),0,0,1
1:50.000,39600,(,0,0,2
1:50.075,39627,t,0,0,1
1:50.233,39684,),0,0,2
1:50.453,39763,(,0,0,0
1:50.481,39773,p,0,0,0
1:50.517,39786,),0,0,0
1:50.533,39792,(,0,0,1
1:50.603,39817,N,0,0,0
1:50.658,39837,),0,0,1
1:51.119,40003,(,0,0,2
1:51.142,40011,t,0,0,1
1:51.167,40020,),0,0,2
1:51.203,40033,(,0,0,0
1:51.236,40045,p,0,0,0
1:51.281,40061,),0,0,0
1:51.392,40101,(,0,0,1
1:51.494,40138,N,0,0,0
1:51.558,40161,),0,0,1
1:51.728,40222,(,0,0,2
1:51.786,40243,t,0,0,1
1:52.033,40332,),0,0,2
1:52.233,40404,(,0,0,0
1:52.267,40416,p,0,0,0
1:52.317,40434,),0,0,0
1:52.342,40443,(,0,0,1
1:52.397,40463,N,0,0,0
1:52.422,40472,),0,0,1
1:52.611,40540,(,0,0,2
1:52.789,40604,t,0,0,1
1:52.903,40645,),0,0,2
1:53.097,40715,(,0,0,0
1:53.133,40728,p,0,0,0
1:53.181,40745,),0,0,0
1:53.231,40763,(,0,0,1
1:53.256,40772,N,0,0,0
1:53.289,40784,),0,0,1
1:53.453,40843,(,0,0,2
1:53.517,40866,t,0,0,4
1:53.656,40916,t,0,0,4
1:53.669,40921,),0,0,2
1:53.831,40979,(,0,0,0
1:53.864,40991,p,0,0,0
1:53.911,41008,),0,0,0
1:53.961,41026,(,0,0,1
1:53.994,41038,N,0,0,0
1:54.019,41047,),0,0,1
1:54.736,41305,(,0,0,0
1:54.764,41315,p,0,0,0
1:54.819,41335,),0,0,0
1:54.839,41342,(,0,0,1
1:54.892,41361,N,0,0,0
1:54.953,41383,),0,0,1
1:55.117,41442,(,0,0,2
1:55.247,41489,t,0,0,1
1:55.397,41543,),0,0,2
1:55.581,41609,(,0,0,0
1:55.617,41622,p,0,0,0
1:55.658,41637,),0,0,0
1:55.708,41655,(,0,0,1
1:55.733,41664,N,0,0,0
1:55.819,41695,),0,0,1
1:55.853,41707,(,0,0,2
1:55.906,41726,t,0,0,5
1:56.050,41778,t,0,0,5
1:56.083,41790,),0,0,2
1:56.244,41848,(,0,0,0
1:56.314,41873,p,0,0,0
1:56.386,41899,),0,0,0
1:56.414,41909,(,0,0,1
1:56.506,41942,N,0,0,0
1:56.564,41963,),0,0,1
1:56.675,42003,(,0,0,2
1:56.733,42024,t,0,0,0
1:56.803,42049,),0,0,2
1:57.247,42209,(,0,0,0
1:57.281,42221,p,0,0,0
1:57.331,42239,),0,0,0
1:57.350,42246,(,0,0,1
1:57.411,42268,N,0,0,0
1:57.469,42289,),0,0,1
1:57.622,42344,(,0,0,2
1:57.769,42397,t,0,0,1
1:57.911,42448,),0,0,2
1:58.094,42514,(,0,0,0
1:58.136,42529,p,0,0,0
1:58.181,42545,),0,0,0
1:58.208,42555,(,0,0,1
1:58.261,42574,N,0,0,0
1:58.289,42584,),0,0,1
1:58.894,42802,(,0,0,0
1:58.933,42816,p,0,0,0
1:58.978,42832,),0,0,0
1:59.008,42843,(,0,0,1
1:59.061,42862,N,0,0,0
1:59.086,42871,),0,0,1
1:59.167,42900,(,0,0,2
1:59.275,42939,t,0,0,5
1:59.578,43048,t,0,0,5
1:59.617,43062,),0,0,2
1:59.772,43118,(,0,0,0
1:59.811,43132,p,0,0,0
1:59.864,43151,),0,0,0
1:59.911,43168,(,0,0,1
1:59.933,43176,N,0,0,0
1:59.961,43186,),0,0,1
2:00.069,43225,(,0,0,2
2:00.106,43238,t,0,0,5
2:00.233,43284,t,0,0,5
2:00.447,43361,),0,0,2
2:00.575,43407,(,0,0,0
2:00.619,43423,p,0,0,0
2:00.664,43439,),0,0,0
2:00.686,43447,(,0,0,1
2:00.739,43466,N,0,0,0
2:00.769,43477,),0,0,1
2:00.900,43524,(,0,0,2
2:00.942,43539,t,0,0,5
2:01.075,43587,t,0,0,5
2:01.167,43620,),0,0,2
2:01.339,43682,(,0,0,0
2:01.381,43697,p,0,0,0
2:01.425,43713,),0,0,0
2:01.447,43721,(,0,0,1
2:01.506,43742,N,0,0,0
2:01.531,43751,),0,0,1
2:01.583,43770,(,0,0,2
2:01.656,43796,t,0,0,5
2:01.900,43884,t,0,0,5
2:01.928,43894,),0,0,2
2:02.203,43993,(,0,0,0
2:02.233,44004,p,0,0,0
2:02.278,44020,),0,0,0
2:02.300,44028,(,0,0,1
2:02.347,44045,N,0,0,0
2:02.381,44057,),0,0,1
2:02.989,44276,(,0,0,0
2:03.033,44292,p,0,0,0
2:03.081,44309,),0,0,0
2:03.106,44318,(,0,0,1
2:03.161,44338,N,0,0,0
2:03.189,44348,),0,0,1
2:03.250,44370,(,0,0,2
2:03.356,44408,t,0,0,5
2:03.494,44458,t,0,0,5
2:03.708,44535,),0,0,2
2:03.828,44578,(,0,0,0
2:03.869,44593,p,0,0,0
2:03.917,44610,),0,0,0
2:03.939,44618,(,0,0,1
2:03.997,44639,N,0,0,0
2:04.022,44648,),0,0,1
2:04.111,44680,(,0,0,2
2:04.197,44711,t,0,0,5
2:04.542,44835,t,0,0,5
2:04.578,44848,),0,0,2
2:04.717,44898,(,0,0,0
2:04.753,44911,p,0,0,0
2:04.803,44929,),0,0,0
2:04.861,44950,(,0,0,1
2:04.883,44958,N,0,0,0
2:04.919,44971,),0,0,1
2:05.489,45176,(,0,0,0
2:05.533,45192,p,0,0,0
2:05.581,45209,),0,0,0
2:05.611,45220,(,0,0,1
2:05.661,45238,N,0,0,0
2:05.689,45248,),0,0,1
2:05.772,45278,(,0,0,2
2:05.878,45316,t,0,0,5
2:06.050,45378,t,0,0,5
2:06.117,45402,),0,0,2
2:06.311,45472,(,0,0,0
2:06.350,45486,p,0,0,0
2:06.394,45502,),0,0,0
2:06.444,45520,(,0,0,1
2:06.467,45528,N,0,0,0
2:06.492,45537,),0,0,1
2:06.583,45570,(,0,0,2
2:06.669,45601,t,0,0,5
2:06.861,45670,t,0,0,5
2:06.919,45691,),0,0,2
2:07.150,45774,(,0,0,0
2:07.186,45787,p,0,0,0
2:07.231,45803,),0,0,0
2:07.275,45819,(,0,0,1
2:07.303,45829,N,0,0,0
2:07.336,45841,),0,0,1
2:07.869,46033,(,0,0,0
2:07.908,46047,p,0,0,0
2:07.956,46064,),0,0,0
2:07.981,46073,(,0,0,1
2:08.031,46091,N,0,0,0
2:08.058,46101,),0,0,1
2:08.661,46318,(,0,0,1
2:08.817,46374,N,0,0,0
2:08.844,46384,),0,0,1
2:08.936,46417,(,0,0,2
2:08.997,46439,t,0,0,5
2:09.217,46518,t,0,0,5
2:09.336,46561,),0,0,2
2:09.503,46621,(,0,0,0
2:09.542,46635,p,0,0,0
2:09.589,46652,),0,0,0
2:09.642,46671,(,0,0,1
2:09.667,46680,N,0,0,0
2:09.708,46695,),0,0,1
2:10.319,46915,(,0,0,0
2:10.364,46931,p,0,0,0
2:10.417,46950,),0,0,0
2:10.439,46958,(,0,0,1
2:10.492,46977,N,0,0,0
2:10.517,46986,),0,0,1
2:10.553,46999,(,0,0,2
2:10.697,47051,t,0,0,5
2:10.958,47145,t,0,0,5
2:11.033,47172,),0,0,2
2:11.131,47207,(,0,0,0
2:11.172,47222,p,0,0,0
2:11.217,47238,),0,0,0
2:11.247,47249,(,0,0,1
2:11.289,47264,N,0,0,0
2:11.311,47272,),0,0,1
2:11.394,47302,(,0,0,2
2:11.481,47333,t,0,0,5
2:11.631,47387,t,0,0,5
2:11.678,47404,),0,0,2
2:11.922,47492,(,0,0,0
2:11.958,47505,p,0,0,0
2:12.003,47521,),0,0,0
2:12.033,47532,(,0,0,1
2:12.078,47548,N,0,0,0
2:12.100,47556,),0,0,1
2:12.656,47756,(,0,0,0
2:12.692,47769,p,0,0,0
2:12.739,47786,),0,0,0
2:12.761,47794,(,0,0,1
2:12.817,47814,N,0,0,0
2:12.844,47824,),0,0,1
2:12.914,47849,(,0,0,2
2:13.025,47889,t,0,0,5
2:13.122,47924,t,0,0,5
2:13.142,47931,),0,0,2
2:13.444,48040,(,0,0,0
2:13.486,48055,p,0,0,0
2:13.533,48072,),0,0,0
2:13.556,48080,(,0,0,1
2:13.606,48098,N,0,0,0
2:13.631,48107,),0,0,1
2:13.678,48124,(,0,0,2
2:13.739,48146,t,0,0,5
2:13.917,48210,t,0,0,5
2:14.133,48288,),0,0,2
2:14.225,48321,(,0,0,0
2:14.264,48335,p,0,0,0
2:14.308,48351,),0,0,0
2:14.325,48357,(,0,0,1
2:14.378,48376,N,0,0,0
2:14.403,48385,),0,0,1
2:14.958,48585,(,0,0,0
2:14.997,48599,p,0,0,0
2:15.044,48616,),0,0,0
2:15.094,48634,(,0,0,1
2:15.125,48645,N,0,0,0
2:15.150,48654,),0,0,1
2:15.278,48700,(,0,0,2
2:15.342,48723,t,0,0,5
2:15.544,48796,t,0,0,5
2:15.572,48806,),0,0,2
2:15.847,48905,(,0,0,0
2:15.886,48919,p,0,0,0
2:15.931,48935,),0,0,0
2:15.942,48939,(,0,0,1
2:16.008,48963,N,0,0,0
2:16.036,48973,),0,0,1
2:16.169,49021,(,0,0,2
2:16.233,49044,t,0,0,5
2:16.411,49108,t,0,0,5
2:16.469,49129,),0,0,2
2:16.600,49176,(,0,0,0
2:16.639,49190,p,0,0,0
2:16.689,49208,),0,0,0
2:16.742,49227,(,0,0,1
2:16.767,49236,N,0,0,0
2:16.792,49245,),0,0,1
2:16.900,49284,(,0,0,2
2:16.961,49306,t,0,0,5
2:17.158,49377,t,0,0,5
2:17.233,49404,),0,0,2
2:17.400,49464,(,0,0,0
2:17.439,49478,p,0,0,0
2:17.483,49494,),0,0,0
2:17.514,49505,(,0,0,1
2:17.564,49523,N,0,0,0
2:17.592,49533,),0,0,1
2:18.186,49747,(,0,0,0
2:18.225,49761,p,0,0,0
2:18.272,49778,),0,0,0
2:18.297,49787,(,0,0,1
2:18.350,49806,N,0,0,0
2:18.375,49815,),0,0,1
2:18.489,49856,(,0,0,2
2:18.556,49880,t,0,0,5
2:18.706,49934,t,0,0,5
2:18.758,49953,),0,0,2
2:18.969,50029,(,0,0,0
2:19.008,50043,p,0,0,0
2:19.056,50060,),0,0,0
2:19.075,50067,(,0,0,1
2:19.128,50086,N,0,0,0
2:19.206,50114,),0,0,1
2:19.264,50135,(,0,0,2
2:19.322,50156,t,0,0,5
2:19.503,50221,t,0,0,5
2:19.578,50248,),0,0,2
2:19.817,50334,(,0,0,0
2:19.850,50346,p,0,0,0
2:19.889,50360,),0,0,0
2:19.942,50379,(,0,0,1
2:19.967,50388,N,0,0,0
2:20.011,50404,),0,0,1
2:20.542,50595,(,0,0,0
2:20.583,50610,p,0,0,0
2:20.631,50627,),0,0,0
2:20.653,50635,(,0,0,1
2:20.708,50655,N,0,0,0
2:20.733,50664,),0,0,1
2:20.831,50699,(,0,0,2
2:20.922,50732,t,0,0,5
2:21.111,50800,t,0,0,5
2:21.150,50814,),0,0,2
2:21.372,50894,(,0,0,0
2:21.417,50910,p,0,0,0
2:21.467,50928,),0,0,0
2:21.497,50939,(,0,0,1
2:21.550,50958,N,0,0,0
2:21.575,50967,),0,0,1
2:21.614,50981,(,0,0,2
2:21.769,51037,t,0,0,5
2:21.986,51115,t,0,0,5
2:22.019,51127,),0,0,2
2:22.222,51200,(,0,0,0
2:22.258,51213,p,0,0,0
2:22.306,51230,),0,0,0
2:22.342,51243,(,0,0,1
2:22.392,51261,N,0,0,0
2:22.428,51274,),0,0,1
2:23.069,51505,(,0,0,0
2:23.108,51519,p,0,0,0
2:23.153,51535,),0,0,0
2:23.181,51545,(,0,0,1
2:23.233,51564,N,0,0,0
2:23.258,51573,),0,0,1
2:23.836,51781,(,0,0,0
2:23.872,51794,p,0,0,0
2:23.917,51810,),0,0,0
2:23.942,51819,(,0,0,1
2:23.997,51839,N,0,0,0
2:24.069,51865,),0,0,1
2:24.131,51887,(,0,0,2
2:24.203,51913,t,0,0,5
2:24.336,51961,t,0,0,5
2:24.461,52006,),0,0,2
2:24.711,52096,(,0,0,0
2:24.756,52112,p,0,0,0
2:24.803,52129,),0,0,0
2:24.858,52149,(,0,0,1
2:24.881,52157,N,0,0,0
2:24.969,52189,),0,0,1
2:25.047,52217,(,0,0,2
2:25.067,52224,t,0,0,5
2:25.200,52272,t,0,0,5
2:25.314,52313,),0,0,2
2:25.494,52378,(,0,0,0
2:25.531,52391,p,0,0,0
2:25.572,52406,),0,0,0
2:25.625,52425,(,0,0,1
2:25.650,52434,N,0,0,0
2:25.678,52444,),0,0,1
2:26.242,52647,(,0,0,0
2:26.283,52662,p,0,0,0
2:26.331,52679,),0,0,0
2:26.350,52686,(,0,0,1
2:26.403,52705,N,0,0,0
2:26.428,52714,),0,0,1
2:26.511,52744,(,0,0,2
2:26.608,52779,t,0,0,5
2:26.756,52832,t,0,0,5
2:26.825,52857,),0,0,2
2:27.153,52975,(,0,0,0
2:27.192,52989,p,0,0,0
2:27.242,53007,),0,0,0
2:27.264,53015,(,0,0,1
2:27.322,53036,N,0,0,0
2:27.344,53044,),0,0,1
2:27.425,53073,(,0,0,2
2:27.492,53097,t,0,0,5
2:27.753,53191,t,0,0,5
2:27.794,53206,),0,0,2
2:27.967,53268,(,0,0,0
2:28.003,53281,p,0,0,0
2:28.053,53299,),0,0,0
2:28.097,53315,(,0,0,1
2:28.136,53329,N,0,0,0
2:28.156,53336,),0,0,1
2:28.819,53575,(,0,0,0
2:28.861,53590,p,0,0,0
2:28.908,53607,),0,0,0
2:28.933,53616,(,0,0,1
2:28.986,53635,N,0,0,0
2:29.014,53645,),0,0,1
2:29.056,53660,(,0,0,2
2:29.192,53709,t,0,0,5
2:29.361,53770,t,0,0,5
2:29.453,53803,),0,0,2
2:29.625,53865,(,0,0,0
2:29.661,53878,p,0,0,0
2:29.708,53895,),0,0,0
2:29.731,53903,(,0,0,1
2:29.786,53923,N,0,0,0
2:29.808,53931,),0,0,1
2:29.922,53972,(,0,0,2
2:29.983,53994,t,0,0,5
2:30.147,54053,t,0,0,5
2:30.169,54061,),0,0,2
2:30.503,54181,(,0,0,0
2:30.536,54193,p,0,0,0
2:30.583,54210,),0,0,0
2:30.625,54225,(,0,0,1
2:30.653,54235,N,0,0,0
2:30.686,54247,),0,0,1
2:31.208,54435,(,0,0,0
2:31.256,54452,p,0,0,0
2:31.300,54468,),0,0,0
2:31.325,54477,(,0,0,1
2:31.381,54497,N,0,0,0
2:31.403,54505,),0,0,1
2:31.469,54529,(,0,0,2
2:31.586,54571,t,0,0,5
2:31.700,54612,t,0,0,5
2:31.936,54697,),0,0,2
2:32.100,54756,(,0,0,0
2:32.136,54769,p,0,0,0
2:32.178,54784,),0,0,0
2:32.206,54794,(,0,0,1
2:32.256,54812,N,0,0,0
2:32.278,54820,),0,0,1
2:32.458,54885,(,0,0,2
2:32.608,54939,t,0,0,1
2:32.694,54970,),0,0,2
2:32.917,55050,(,0,0,0
2:32.953,55063,p,0,0,0
2:33.000,55080,),0,0,0
2:33.056,55100,(,0,0,1
2:33.078,55108,N,0,0,0
2:33.111,55120,),0,0,1
2:33.722,55340,(,0,0,0
2:33.758,55353,p,0,0,0
2:33.803,55369,),0,0,0
2:33.836,55381,(,0,0,1
2:33.883,55398,N,0,0,0
2:33.908,55407,),0,0,1
2:34.617,55662,(,0,0,0
2:34.656,55676,p,0,0,0
2:34.694,55690,),0,0,0
2:34.722,55700,(,0,0,1
2:34.783,55722,N,0,0,0
2:34.808,55731,),0,0,1
2:34.908,55767,(,0,0,2
2:34.939,55778,t,0,0,5
2:35.133,55848,t,0,0,5
2:35.281,55901,),0,0,2
2:35.433,55956,(,0,0,0
2:35.472,55970,p,0,0,0
2:35.519,55987,),0,0,0
2:35.572,56006,(,0,0,1
2:35.600,56016,N,0,0,0
2:35.631,56027,),0,0,1
2:36.272,56258,(,0,0,0
2:36.311,56272,p,0,0,0
2:36.356,56288,),0,0,0
2:36.378,56296,(,0,0,1
2:36.431,56315,N,0,0,0
2:36.456,56324,),0,0,1
2:37.075,56547,(,0,0,0
2:37.111,56560,p,0,0,0
2:37.153,56575,),0,0,0
2:37.181,56585,(,0,0,1
2:37.228,56602,N,0,0,0
2:37.314,56633,),0,0,1
2:37.347,56645,(,0,0,2
2:37.408,56667,t,0,0,5
2:37.719,56779,t,0,0,5
2:37.781,56801,),0,0,2
2:37.903,56845,(,0,0,0
2:37.939,56858,p,0,0,0
2:37.983,56874,),0,0,0
2:38.036,56893,(,0,0,1
2:38.061,56902,N,0,0,0
2:38.094,56914,),0,0,1
2:38.267,56976,(,0,0,2
2:38.342,57003,t,0,0,1
2:38.514,57065,),0,0,2
2:38.642,57111,(,0,0,0
2:38.681,57125,p,0,0,0
2:38.728,57142,),0,0,0
2:38.750,57150,(,0,0,1
2:38.808,57171,N,0,0,0
2:38.833,57180,),0,0,1
2:38.964,57227,(,0,0,2
2:39.028,57250,t,0,0,5
2:39.225,57321,t,0,0,5
2:39.322,57356,),0,0,2
2:39.500,57420,(,0,0,0
2:39.536,57433,p,0,0,0
2:39.583,57450,),0,0,0
2:39.600,57456,(,0,0,1
2:39.664,57479,N,0,0,0
2:39.686,57487,),0,0,1
2:39.833,57540,(,0,0,2
2:39.881,57557,t,0,0,0
2:39.992,57597,),0,0,2
2:40.367,57732,(,0,0,0
2:40.403,57745,p,0,0,0
2:40.447,57761,),0,0,0
2:40.503,57781,(,0,0,1
2:40.528,57790,N,0,0,0
2:40.564,57803,),0,0,1
2:40.758,57873,(,0,0,2
2:40.817,57894,t,0,0,1
2:41.089,57992,),0,0,2
2:41.211,58036,(,0,0,0
2:41.247,58049,p,0,0,0
2:41.294,58066,),0,0,0
2:41.317,58074,(,0,0,1
2:41.369,58093,N,0,0,0
2:41.392,58101,),0,0,1
2:41.431,58115,(,0,0,2
2:41.553,58159,t,0,0,5
2:41.681,58205,t,0,0,5
2:41.839,58262,),0,0,2
2:41.989,58316,(,0,0,0
2:42.025,58329,p,0,0,0
2:42.069,58345,),0,0,0
2:42.097,58355,(,0,0,1
2:42.150,58374,N,0,0,0
2:42.172,58382,),0,0,1
2:42.306,58430,(,0,0,2
2:42.356,58448,t,0,0,5
2:42.528,58510,t,0,0,5
2:42.608,58539,),0,0,2
2:42.853,58627,(,0,0,0
2:42.889,58640,p,0,0,0
2:42.939,58658,),0,0,0
2:42.986,58675,(,0,0,1
2:43.011,58684,N,0,0,0
2:43.044,58696,),0,0,1
2:43.050,58698,(,0,0,2
2:43.136,58729,t,0,0,5
2:43.278,58780,t,0,0,5
2:43.436,58837,),0,0,2
2:43.594,58894,(,0,0,0
2:43.631,58907,p,0,0,0
2:43.675,58923,),0,0,0
2:43.703,58933,(,0,0,1
2:43.753,58951,N,0,0,0
2:43.775,58959,),0,0,1
2:44.408,59187,(,0,0,0
2:44.444,59200,p,0,0,0
2:44.486,59215,),0,0,0
2:44.511,59224,(,0,0,1
2:44.569,59245,N,0,0,0
2:44.594,59254,),0,0,1
2:44.794,59326,(,0,0,2
2:44.997,59399,t,0,0,1
2:45.122,59444,),0,0,2
2:45.244,59488,(,0,0,0
2:45.281,59501,p,0,0,0
2:45.328,59518,),0,0,0
2:45.383,59538,(,0,0,1
2:45.408,59547,N,0,0,0
2:45.442,59559,),0,0,1
2:46.094,59794,(,0,0,0
2:46.133,59808,p,0,0,0
2:46.181,59825,),0,0,0
2:46.203,59833,(,0,0,1
2:46.258,59853,N,0,0,0
2:46.286,59863,),0,0,1
2:46.400,59904,(,0,0,2
2:46.464,59927,t,0,0,5
2:46.714,60017,t,0,0,5
2:46.747,60029,),0,0,2
2:46.864,60071,(,0,0,0
2:46.897,60083,p,0,0,0
2:46.942,60099,),0,0,0
2:47.000,60120,(,0,0,1
2:47.025,60129,N,0,0,0
2:47.058,60141,),0,0,1
2:47.750,60390,(,0,0,0
2:47.783,60402,p,0,0,0
2:47.833,60420,),0,0,0
2:47.856,60428,(,0,0,1
2:47.908,60447,N,0,0,0
2:47.933,60456,),0,0,1
2:48.492,60657,(,0,0,0
2:48.531,60671,p,0,0,0
2:48.575,60687,),0,0,0
2:48.628,60706,(,0,0,1
2:48.656,60716,N,0,0,0
2:48.689,60728,),0,0,1
2:48.822,60776,(,0,0,2
2:48.856,60788,t,0,0,5
2:49.000,60840,t,0,0,5
2:49.086,60871,),0,0,2
2:49.364,60971,(,0,0,0
2:49.397,60983,p,0,0,0
2:49.439,60998,),0,0,0
2:49.458,61005,(,0,0,1
2:49.517,61026,N,0,0,0
2:49.544,61036,),0,0,1
2:50.111,61240,(,0,0,0
2:50.147,61253,p,0,0,0
2:50.189,61268,),0,0,0
2:50.236,61285,(,0,0,1
2:50.261,61294,N,0,0,0
2:50.283,61302,),0,0,1
2:50.347,61325,(,0,0,2
2:50.450,61362,t,0,0,5
2:50.639,61430,t,0,0,5
2:50.764,61475,),0,0,2
2:50.925,61533,(,0,0,0
2:50.961,61546,p,0,0,0
2:51.008,61563,),0,0,0
2:51.028,61570,(,0,0,1
2:51.086,61591,N,0,0,0
2:51.119,61603,),0,0,1
2:51.228,61642,(,0,0,2
2:51.303,61669,t,0,0,5
2:51.486,61735,t,0,0,5
2:51.606,61778,),0,0,2
2:51.744,61828,(,0,0,0
2:51.781,61841,p,0,0,0
2:51.825,61857,),0,0,0
2:51.878,61876,(,0,0,1
2:51.906,61886,N,0,0,0
2:51.928,61894,),0,0,1
2:52.089,61952,(,0,0,2
2:52.122,61964,t,0,0,5
2:52.244,62008,t,0,0,5
2:52.464,62087,),0,0,2
2:52.581,62129,(,0,0,0
2:52.622,62144,p,0,0,0
2:52.669,62161,),0,0,0
2:52.725,62181,(,0,0,1
2:52.753,62191,N,0,0,0
2:52.778,62200,),0,0,1
2:53.400,62424,(,0,0,0
2:53.433,62436,p,0,0,0
2:53.475,62451,),0,0,0
2:53.531,62471,(,0,0,1
2:53.558,62481,N,0,0,0
2:53.586,62491,),0,0,1
2:53.642,62511,(,0,0,2
2:53.761,62554,t,0,0,5
2:54.006,62642,t,0,0,5
2:54.061,62662,),0,0,2
2:54.275,62739,(,0,0,0
2:54.308,62751,p,0,0,0
2:54.350,62766,),0,0,0
2:54.403,62785,(,0,0,1
2:54.428,62794,N,0,0,0
2:54.461,62806,),0,0,1
2:54.467,62808,(,0,0,2
2:54.569,62845,t,0,0,5
2:54.714,62897,t,0,0,5
2:54.906,62966,),0,0,2
2:55.056,63020,(,0,0,0
2:55.092,63033,p,0,0,0
2:55.136,63049,),0,0,0
2:55.156,63056,(,0,0,1
2:55.211,63076,N,0,0,0
2:55.233,63084,),0,0,1
2:55.350,63126,(,0,0,2
2:55.408,63147,t,0,0,5
2:55.531,63191,t,0,0,5
2:55.667,63240,),0,0,2
2:55.839,63302,(,0,0,0
2:55.872,63314,p,0,0,0
2:55.917,63330,),0,0,0
2:55.944,63340,(,0,0,1
2:55.994,63358,N,0,0,0
2:56.031,63371,),0,0,1
2:56.689,63608,(,0,0,0
2:56.728,63622,p,0,0,0
2:56.775,63639,),0,0,0
2:56.831,63659,(,0,0,1
2:56.853,63667,N,0,0,0
2:56.889,63680,),0,0,1
2:57.069,63745,(,0,0,2
2:57.142,63771,t,0,0,1
2:57.308,63831,),0,0,2
2:57.483,63894,(,0,0,0
2:57.519,63907,p,0,0,0
2:57.569,63925,),0,0,0
2:57.597,63935,(,0,0,1
2:57.656,63956,N,0,0,0
2:57.694,63970,),0,0,1
2:57.825,64017,(,0,0,2
2:57.872,64034,t,0,0,5
2:58.000,64080,t,0,0,5
2:58.106,64118,),0,0,2
2:58.414,64229,(,0,0,0
2:58.450,64242,p,0,0,0
2:58.497,64259,),0,0,0
2:58.519,64267,(,0,0,1
2:58.581,64289,N,0,0,0
2:58.603,64297,),0,0,1
2:58.619,64303,(,0,0,2
2:58.803,64369,t,0,0,5
2:58.936,64417,t,0,0,5
2:59.011,64444,),0,0,2
2:59.283,64542,(,0,0,0
2:59.322,64556,p,0,0,0
2:59.367,64572,),0,0,0
2:59.419,64591,(,0,0,1
2:59.439,64598,N,0,0,0
2:59.472,64610,),0,0,1
2:59.656,64676,(,0,0,2
2:59.767,64716,t,0,0,1
2:59.864,64751,),0,0,2
3:00.128,64846,(,0,0,0
3:00.169,64861,p,0,0,0
3:00.214,64877,),0,0,0
3:00.261,64894,(,0,0,1
3:00.294,64906,N,0,0,0
3:00.331,64919,),0,0,1
3:00.383,64938,(,0,0,2
3:00.444,64960,t,0,0,5
3:00.597,65015,t,0,0,5
3:00.708,65055,),0,0,2
3:00.972,65150,(,0,0,0
3:01.006,65162,p,0,0,0
3:01.050,65178,),0,0,0
3:01.103,65197,(,0,0,1
3:01.125,65205,N,0,0,0
3:01.161,65218,),0,0,1
3:01.233,65244,(,0,0,2
3:01.278,65260,t,0,0,5
3:01.419,65311,t,0,0,5
3:01.500,65340,),0,0,2
3:01.683,65406,(,0,0,0
3:01.722,65420,p,0,0,0
3:01.850,65466,),0,0,0
3:01.864,65471,(,0,0,1
3:01.981,65513,N,0,0,0
3:02.006,65522,),0,0,1
3:02.086,65551,(,0,0,2
3:02.183,65586,t,0,0,5
3:02.292,65625,t,0,0,5
3:02.350,65646,),0,0,2
3:02.650,65754,(,0,0,0
3:02.692,65769,p,0,0,0
3:02.739,65786,),0,0,0
3:02.800,65808,(,0,0,1
3:02.822,65816,N,0,0,0
3:02.858,65829,),0,0,1
3:03.047,65897,(,0,0,2
3:03.114,65921,t,0,0,1
3:03.244,65968,),0,0,2
3:03.542,66075,(,0,0,0
3:03.575,66087,p,0,0,0
3:03.622,66104,),0,0,0
3:03.639,66110,(,0,0,1
3:03.703,66133,N,0,0,0
3:03.728,66142,),0,0,1
3:03.800,66168,(,0,0,2
3:03.908,66207,t,0,0,5
3:04.011,66244,t,0,0,5
3:04.183,66306,),0,0,2
3:04.339,66362,(,0,0,0
3:04.375,66375,p,0,0,0
3:04.422,66392,),0,0,0
3:04.483,66414,(,0,0,1
3:04.508,66423,N,0,0,0
3:04.531,66431,),0,0,1
3:05.261,66694,(,0,0,0
3:05.292,66705,p,0,0,0
3:05.339,66722,),0,0,0
3:05.369,66733,(,0,0,1
3:05.414,66749,N,0,0,0
3:05.447,66761,),0,0,1
3:05.633,66828,(,0,0,2
3:05.719,66859,t,0,0,1
3:05.881,66917,),0,0,2
3:06.100,66996,(,0,0,0
3:06.144,67012,p,0,0,0
3:06.189,67028,),0,0,0
3:06.208,67035,(,0,0,1
3:06.269,67057,N,0,0,0
3:06.303,67069,),0,0,1
3:06.306,67070,(,0,0,2
3:06.397,67103,t,0,0,5
3:06.564,67163,t,0,0,5
3:06.681,67205,),0,0,2
3:06.853,67267,(,0,0,0
3:06.889,67280,p,0,0,0
3:06.936,67297,),0,0,0
3:06.967,67308,(,0,0,1
3:07.014,67325,N,0,0,0
3:07.036,67333,),0,0,1
3:07.114,67361,(,0,0,2
3:07.219,67399,t,0,0,5
3:07.311,67432,t,0,0,5
3:07.517,67506,),0,0,2
3:07.753,67591,(,0,0,0
3:07.786,67603,p,0,0,0
3:07.836,67621,),0,0,0
3:07.883,67638,(,0,0,1
3:07.908,67647,N,0,0,0
3:07.942,67659,),0,0,1
3:08.111,67720,(,0,0,2
3:08.172,67742,t,0,0,1
3:08.314,67793,),0,0,2
3:08.483,67854,(,0,0,0
3:08.522,67868,p,0,0,0
3:08.567,67884,),0,0,0
3:08.592,67893,(,0,0,1
3:08.647,67913,N,0,0,0
3:08.672,67922,),0,0,1
3:08.742,67947,(,0,0,2
3:08.844,67984,t,0,0,5
3:08.956,68024,t,0,0,5
3:09.019,68047,),0,0,2
3:09.331,68159,(,0,0,0
3:09.369,68173,p,0,0,0
3:09.417,68190,),0,0,0
3:09.436,68197,(,0,0,1
3:09.494,68218,N,0,0,0
3:09.519,68227,),0,0,1
3:09.722,68300,(,0,0,2
3:09.931,68375,t,0,0,1
3:10.050,68418,),0,0,2
3:10.231,68483,(,0,0,0
3:10.267,68496,p,0,0,0
3:10.314,68513,),0,0,0
3:10.367,68532,(,0,0,1
3:10.394,68542,N,0,0,0
3:10.417,68550,),0,0,1
3:11.061,68782,(,0,0,0
3:11.100,68796,p,0,0,0
3:11.147,68813,),0,0,0
3:11.167,68820,(,0,0,1
3:11.228,68842,N,0,0,0
3:11.294,68866,),0,0,1
3:11.439,68918,(,0,0,2
3:11.536,68953,t,0,0,1
3:11.692,69009,),0,0,2
3:11.883,69078,(,0,0,0
3:11.925,69093,p,0,0,0
3:11.969,69109,),0,0,0
3:12.025,69129,(,0,0,1
3:12.050,69138,N,0,0,0
3:12.083,69150,),0,0,1
3:12.264,69215,(,0,0,2
3:12.328,69238,t,0,0,1
3:12.519,69307,),0,0,2
3:12.711,69376,(,0,0,0
3:12.753,69391,p,0,0,0
3:12.797,69407,),0,0,0
3:12.822,69416,(,0,0,1
3:12.872,69434,N,0,0,0
3:12.894,69442,),0,0,1
3:12.933,69456,(,0,0,2
3:13.064,69503,t,0,0,5
3:13.175,69543,t,0,0,5
3:13.203,69553,),0,0,2
3:13.431,69635,(,0,0,0
3:13.467,69648,p,0,0,0
3:13.511,69664,),0,0,0
3:13.564,69683,(,0,0,1
3:13.589,69692,N,0,0,0
3:13.614,69701,),0,0,1
3:13.689,69728,(,0,0,2
3:13.786,69763,t,0,0,5
3:13.961,69826,t,0,0,5
3:14.000,69840,),0,0,2
3:14.314,69953,(,0,0,0
3:14.344,69964,p,0,0,0
3:14.389,69980,),0,0,0
3:14.431,69995,(,0,0,1
3:14.453,70003,N,0,0,0
3:14.483,70014,),0,0,1
3:15.089,70232,(,0,0,0
3:15.125,70245,p,0,0,0
3:15.169,70261,),0,0,0
3:15.225,70281,(,0,0,1
3:15.253,70291,N,0,0,0
3:15.289,70304,),0,0,1
3:15.917,70530,(,0,0,0
3:15.953,70543,p,0,0,0
3:16.000,70560,),0,0,0
3:16.028,70570,(,0,0,1
3:16.083,70590,N,0,0,0
3:16.108,70599,),0,0,1
3:16.206,70634,(,0,0,2
3:16.306,70670,t,0,0,5
3:16.578,70768,t,0,0,5
3:16.614,70781,),0,0,2
3:16.831,70859,(,0,0,0
3:16.867,70872,p,0,0,0
3:16.911,70888,),0,0,0
3:16.964,70907,(,0,0,1
3:16.992,70917,N,0,0,0
3:17.025,70929,),0,0,1
3:17.200,70992,(,0,0,2
3:17.278,71020,t,0,0,1
3:17.431,71075,),0,0,2
3:17.631,71147,(,0,0,0
3:17.669,71161,p,0,0,0
3:17.714,71177,),0,0,0
3:17.739,71186,(,0,0,1
3:17.792,71205,N,0,0,0
3:17.814,71213,),0,0,1
3:17.950,71262,(,0,0,2
3:17.992,71277,t,0,0,5
3:18.094,71314,t,0,0,5
3:18.178,71344,),0,0,2
3:18.369,71413,(,0,0,0
3:18.403,71425,p,0,0,0
3:18.447,71441,),0,0,0
3:18.475,71451,(,0,0,1
3:18.525,71469,N,0,0,0
3:18.547,71477,),0,0,1
3:18.731,71543,(,0,0,2
3:18.867,71592,t,0,0,1
3:18.978,71632,),0,0,2
3:19.228,71722,(,0,0,0
3:19.264,71735,p,0,0,0
3:19.314,71753,),0,0,0
3:19.364,71771,(,0,0,1
3:19.386,71779,N,0,0,0
3:19.422,71792,),0,0,1
3:19.481,71813,(,0,0,2
3:19.500,71820,t,0,0,5
3:19.703,71893,t,0,0,5
3:19.817,71934,),0,0,2
3:19.997,71999,(,0,0,0
3:20.033,72012,p,0,0,0
3:20.078,72028,),0,0,0
3:20.097,72035,(,0,0,1
3:20.150,72054,N,0,0,0
3:20.181,72065,),0,0,1
3:20.247,72089,(,0,0,2
3:20.347,72125,t,0,0,5
3:20.464,72167,t,0,0,5
3:20.603,72217,),0,0,2
3:20.772,72278,(,0,0,0
3:20.811,72292,p,0,0,0
3:20.861,72310,),0,0,0
3:20.875,72315,(,0,0,1
3:20.942,72339,N,0,0,0
3:20.967,72348,),0,0,1
3:21.033,72372,(,0,0,2
3:21.061,72382,t,0,0,5
3:21.403,72505,t,0,0,5
3:21.439,72518,),0,0,2
3:21.633,72588,(,0,0,0
3:21.672,72602,p,0,0,0
3:21.717,72618,),0,0,0
3:21.736,72625,(,0,0,1
3:21.792,72645,N,0,0,0
3:21.817,72654,),0,0,1
3:22.444,72880,(,0,0,0
3:22.489,72896,p,0,0,0
3:22.533,72912,),0,0,0
3:22.558,72921,(,0,0,1
3:22.608,72939,N,0,0,0
3:22.636,72949,),0,0,1
3:22.700,72972,(,0,0,2
3:22.822,73016,t,0,0,5
3:22.942,73059,t,0,0,5
3:23.125,73125,),0,0,2
3:23.264,73175,(,0,0,0
3:23.303,73189,p,0,0,0
3:23.347,73205,),0,0,0
3:23.367,73212,(,0,0,1
3:23.414,73229,N,0,0,0
3:23.447,73241,),0,0,1
3:23.553,73279,(,0,0,2
3:23.603,73297,t,0,0,5
3:23.786,73363,t,0,0,5
3:23.822,73376,),0,0,2
3:24.125,73485,(,0,0,0
3:24.164,73499,p,0,0,0
3:24.208,73515,),0,0,0
3:24.228,73522,(,0,0,1
3:24.286,73543,N,0,0,0
3:24.308,73551,),0,0,1
3:24.378,73576,(,0,0,2
3:24.411,73588,t,0,0,5
3:24.569,73645,t,0,0,5
3:24.758,73713,),0,0,2
3:24.842,73743,(,0,0,0
3:24.886,73759,p,0,0,0
3:24.933,73776,),0,0,0
3:24.961,73786,(,0,0,1
3:25.011,73804,N,0,0,0
3:25.036,73813,),0,0,1
3:25.131,73847,(,0,0,2
3:25.206,73874,t,0,0,5
3:25.308,73911,t,0,0,5
3:25.419,73951,),0,0,2
3:25.717,74058,(,0,0,0
3:25.750,74070,p,0,0,0
3:25.789,74084,),0,0,0
3:25.825,74097,(,0,0,1
3:25.867,74112,N,0,0,0
3:25.897,74123,),0,0,1
3:26.075,74187,(,0,0,2
3:26.189,74228,t,0,0,1
3:26.375,74295,),0,0,2
3:26.486,74335,(,0,0,0
3:26.525,74349,p,0,0,0
3:26.569,74365,),0,0,0
3:26.592,74373,(,0,0,1
3:26.644,74392,N,0,0,0
3:26.669,74401,),0,0,1
3:26.714,74417,(,0,0,2
3:26.811,74452,t,0,0,5
3:26.922,74492,t,0,0,5
3:27.078,74548,),0,0,2
3:27.222,74600,(,0,0,0
3:27.264,74615,p,0,0,0
3:27.311,74632,),0,0,0
3:27.339,74642,(,0,0,1
3:27.392,74661,N,0,0,0
3:27.419,74671,),0,0,1
3:27.514,74705,(,0,0,2
3:27.600,74736,t,0,0,5
3:27.742,74787,t,0,0,5
3:27.842,74823,),0,0,2
3:28.169,74941,(,0,0,0
3:28.206,74954,p,0,0,0
3:28.250,74970,),0,0,0
3:28.267,74976,(,0,0,1
3:28.333,75000,N,0,0,0
3:28.361,75010,),0,0,1
3:28.403,75025,(,0,0,2
3:28.456,75044,t,0,0,5
3:28.736,75145,t,0,0,5
3:28.792,75165,),0,0,2
3:29.097,75275,(,0,0,0
3:29.136,75289,p,0,0,0
3:29.181,75305,),0,0,0
3:29.231,75323,(,0,0,1
3:29.256,75332,N,0,0,0
3:29.278,75340,),0,0,1
3:29.347,75365,(,0,0,2
3:29.386,75379,t,0,0,5
3:29.619,75463,t,0,0,5
3:29.661,75478,),0,0,2
3:29.922,75572,(,0,0,0
3:29.961,75586,p,0,0,0
3:30.017,75606,),0,0,0
3:30.064,75623,(,0,0,1
3:30.092,75633,N,0,0,0
3:30.128,75646,),0,0,1
3:30.300,75708,(,0,0,2
3:30.397,75743,t,0,0,1
3:30.575,75807,),0,0,2
3:30.722,75860,(,0,0,0
3:30.761,75874,p,0,0,0
3:30.808,75891,),0,0,0
3:30.831,75899,(,0,0,1
3:30.883,75918,N,0,0,0
3:30.906,75926,),0,0,1
3:31.103,75997,(,0,0,2
3:31.161,76018,t,0,0,1
3:31.308,76071,),0,0,2
3:31.492,76137,(,0,0,0
3:31.528,76150,p,0,0,0
3:31.569,76165,),0,0,0
3:31.589,76172,(,0,0,1
3:31.647,76193,N,0,0,0
3:31.669,76201,),0,0,1
3:32.303,76429,(,0,0,0
3:32.339,76442,p,0,0,0
3:32.381,76457,),0,0,0
3:32.394,76462,(,0,0,1
3:32.444,76480,N,0,0,0
3:32.467,76488,),0,0,1
3:33.097,76715,(,0,0,0
3:33.133,76728,p,0,0,0
3:33.181,76745,),0,0,0
3:33.236,76765,(,0,0,1
3:33.267,76776,N,0,0,0
3:33.292,76785,),0,0,1
3:33.944,77020,(,0,0,0
3:33.983,77034,p,0,0,0
3:34.028,77050,),0,0,0
3:34.089,77072,(,0,0,1
3:34.117,77082,N,0,0,0
3:34.144,77092,),0,0,1
3:34.200,77112,(,0,0,2
3:34.236,77125,t,0,0,5
3:34.458,77205,t,0,0,5
3:34.631,77267,),0,0,2
3:34.811,77332,(,0,0,0
3:34.853,77347,p,0,0,0
3:34.894,77362,),0,0,0
3:34.947,77381,(,0,0,1
3:34.975,77391,N,0,0,0
3:34.997,77399,),0,0,1
3:35.139,77450,(,0,0,2
3:35.169,77461,t,0,0,5
3:35.264,77495,t,0,0,5
3:35.375,77535,),0,0,2
3:35.564,77603,(,0,0,0
3:35.597,77615,p,0,0,0
3:35.642,77631,),0,0,0
3:35.697,77651,(,0,0,1
3:35.725,77661,N,0,0,0
3:35.761,77674,),0,0,1
3:35.808,77691,(,0,0,2
3:35.917,77730,t,0,0,5
3:35.997,77759,t,0,0,5
3:36.111,77800,),0,0,2
3:36.461,77926,(,0,0,0
3:36.497,77939,p,0,0,0
3:36.539,77954,),0,0,0
3:36.572,77966,(,0,0,1
3:36.622,77984,N,0,0,0
3:36.647,77993,),0,0,1
3:37.225,78201,(,0,0,0
3:37.261,78214,p,0,0,0
3:37.308,78231,),0,0,0
3:37.331,78239,(,0,0,1
3:37.386,78259,N,0,0,0
3:37.425,78273,),0,0,1
3:37.628,78346,(,0,0,2
3:37.744,78388,t,0,0,1
3:37.853,78427,),0,0,2
3:38.056,78500,(,0,0,0
3:38.094,78514,p,0,0,0
3:38.136,78529,),0,0,0
3:38.158,78537,(,0,0,1
3:38.211,78556,N,0,0,0
3:38.242,78567,),0,0,1
3:38.256,78572,(,0,0,2
3:38.381,78617,t,0,0,5
3:38.597,78695,t,0,0,5
3:38.617,78702,),0,0,2
3:38.922,78812,(,0,0,0
3:38.967,78828,p,0,0,0
3:39.008,78843,),0,0,0
3:39.064,78863,(,0,0,1
3:39.092,78873,N,0,0,0
3:39.131,78887,),0,0,1
3:39.317,78954,(,0,0,2
3:39.394,78982,t,0,0,1
3:39.525,79029,),0,0,2
3:39.753,79111,(,0,0,0
3:39.789,79124,p,0,0,0
3:39.836,79141,),0,0,0
3:39.894,79162,(,0,0,1
3:39.922,79172,N,0,0,0
3:39.947,79181,),0,0,1
3:40.042,79215,(,0,0,2
3:40.147,79253,t,0,0,5
3:40.253,79291,t,0,0,5
3:40.403,79345,),0,0,2
3:40.667,79440,(,0,0,0
3:40.703,79453,p,0,0,0
3:40.753,79471,),0,0,0
3:40.808,79491,(,0,0,1
3:40.836,79501,N,0,0,0
3:40.861,79510,),0,0,1
3:41.006,79562,(,0,0,2
3:41.044,79576,t,0,0,5
3:41.172,79622,t,0,0,5
3:41.275,79659,),0,0,2
3:41.439,79718,(,0,0,0
3:41.475,79731,p,0,0,0
3:41.517,79746,),0,0,0
3:41.567,79764,(,0,0,1
3:41.603,79777,N,0,0,0
3:41.639,79790,),0,0,1
3:41.644,79792,(,0,0,2
3:41.803,79849,t,0,0,5
3:41.933,79896,t,0,0,5
3:41.978,79912,),0,0,2
3:42.353,80047,(,0,0,0
3:42.383,80058,p,0,0,0
3:42.428,80074,),0,0,0
3:42.461,80086,(,0,0,1
3:42.511,80104,N,0,0,0
3:42.544,80116,),0,0,1
3:42.633,80148,(,0,0,2
3:42.664,80159,t,0,0,5
3:42.822,80216,t,0,0,5
3:42.914,80249,),0,0,2
3:43.142,80331,(,0,0,0
3:43.183,80346,p,0,0,0
3:43.225,80361,),0,0,0
3:43.278,80380,(,0,0,1
3:43.303,80389,N,0,0,0
3:43.325,80397,),0,0,1
3:43.381,80417,(,0,0,2
3:43.419,80431,t,0,0,5
3:43.578,80488,t,0,0,5
3:43.733,80544,),0,0,2
3:43.911,80608,(,0,0,0
3:43.944,80620,p,0,0,0
3:43.989,80636,),0,0,0
3:44.044,80656,(,0,0,1
3:44.069,80665,N,0,0,0
3:44.103,80677,),0,0,1
3:44.161,80698,(,0,0,2
3:44.194,80710,t,0,0,5
3:44.367,80772,t,0,0,5
3:44.450,80802,),0,0,2
3:44.781,80921,(,0,0,0
3:44.811,80932,p,0,0,0
3:44.861,80950,),0,0,0
3:44.914,80969,(,0,0,1
3:44.939,80978,N,0,0,0
3:44.972,80990,),0,0,1
3:44.978,80992,(,0,0,2
3:45.078,81028,t,0,0,5
3:45.253,81091,t,0,0,5
3:45.367,81132,),0,0,2
3:45.547,81197,(,0,0,0
3:45.586,81211,p,0,0,0
3:45.633,81228,),0,0,0
3:45.656,81236,(,0,0,1
3:45.717,81258,N,0,0,0
3:45.742,81267,),0,0,1
3:45.939,81338,(,0,0,2
3:46.014,81365,t,0,0,1
3:46.108,81399,),0,0,2
3:46.497,81539,(,0,0,0
3:46.525,81549,p,0,0,0
3:46.572,81566,),0,0,0
3:46.608,81579,(,0,0,1
3:46.658,81597,N,0,0,0
3:46.719,81619,),0,0,1
3:46.781,81641,(,0,0,2
3:46.817,81654,t,0,0,5
3:46.967,81708,t,0,0,5
3:47.167,81780,),0,0,2
3:47.361,81850,(,0,0,0
3:47.394,81862,p,0,0,0
3:47.436,81877,),0,0,0
3:47.481,81893,(,0,0,1
3:47.508,81903,N,0,0,0
3:47.533,81912,),0,0,1
3:47.733,81984,(,0,0,2
3:47.797,82007,t,0,0,1
3:47.911,82048,),0,0,2
3:48.175,82143,(,0,0,0
3:48.214,82157,p,0,0,0
3:48.256,82172,),0,0,0
3:48.281,82181,(,0,0,1
3:48.333,82200,N,0,0,0
3:48.419,82231,),0,0,1
3:48.544,82276,(,0,0,2
3:48.614,82301,t,0,0,1
3:48.711,82336,),0,0,2
3:48.894,82402,(,0,0,0
3:48.933,82416,p,0,0,0
3:48.978,82432,),0,0,0
3:48.994,82438,(,0,0,1
3:49.058,82461,N,0,0,0
3:49.083,82470,),0,0,1
3:49.789,82724,(,0,0,0
3:49.819,82735,p,0,0,0
3:49.856,82748,),0,0,0
3:49.911,82768,(,0,0,1
3:49.939,82778,N,0,0,0
3:49.961,82786,),0,0,1
3:50.064,82823,(,0,0,2
3:50.111,82840,t,0,0,5
3:50.331,82919,t,0,0,5
3:50.356,82928,),0,0,2
3:50.606,83018,(,0,0,0
3:50.636,83029,p,0,0,0
3:50.683,83046,),0,0,0
3:50.728,83062,(,0,0,1
3:50.761,83074,N,0,0,0
3:50.797,83087,),0,0,1
3:51.461,83326,(,0,0,0
3:51.494,83338,p,0,0,0
3:51.542,83355,),0,0,0
3:51.561,83362,(,0,0,1
3:51.625,83385,N,0,0,0
3:51.650,83394,),0,0,1
3:51.814,83453,(,0,0,2
3:51.847,83465,t,0,0,5
3:51.972,83510,t,0,0,5
3:52.164,83579,),0,0,2
3:52.319,83635,(,0,0,0
3:52.356,83648,p,0,0,0
3:52.400,83664,),0,0,0
3:52.456,83684,(,0,0,1
3:52.483,83694,N,0,0,0
3:52.506,83702,),0,0,1
3:52.664,83759,(,0,0,2
3:52.692,83769,t,0,0,5
3:52.981,83873,t,0,0,5
3:53.000,83880,),0,0,2
3:53.189,83948,(,0,0,0
3:53.228,83962,p,0,0,0
3:53.275,83979,),0,0,0
3:53.325,83997,(,0,0,1
3:53.347,84005,N,0,0,0
3:53.383,84018,),0,0,1
3:53.386,84019,(,0,0,2
3:53.536,84073,t,0,0,5
3:53.619,84103,t,0,0,5
3:53.733,84144,),0,0,2
3:53.911,84208,(,0,0,0
3:53.950,84222,p,0,0,0
3:53.997,84239,),0,0,0
3:54.044,84256,(,0,0,1
3:54.072,84266,N,0,0,0
3:54.097,84275,),0,0,1
3:54.206,84314,(,0,0,2
3:54.278,84340,t,0,0,5
3:54.450,84402,t,0,0,5
3:54.514,84425,),0,0,2
3:54.800,84528,(,0,0,0
3:54.831,84539,p,0,0,0
3:54.878,84556,),0,0,0
3:54.900,84564,(,0,0,1
3:54.950,84582,N,0,0,0
3:54.975,84591,),0,0,1
3:55.542,84795,(,0,0,0
3:55.575,84807,p,0,0,0
3:55.619,84823,),0,0,0
3:55.672,84842,(,0,0,1
3:55.700,84852,N,0,0,0
3:55.725,84861,),0,0,1
3:55.919,84931,(,0,0,2
3:56.006,84962,t,0,0,1
3:56.178,85024,),0,0,2
3:56.389,85100,(,0,0,0
3:56.417,85110,p,0,0,0
3:56.453,85123,),0,0,0
3:56.506,85142,(,0,0,1
3:56.531,85151,N,0,0,0
3:56.553,85159,),0,0,1
3:56.714,85217,(,0,0,2
3:56.736,85225,t,0,0,5
3:56.911,85288,t,0,0,5
3:57.075,85347,),0,0,2
3:57.200,85392,(,0,0,0
3:57.242,85407,p,0,0,0
3:57.286,85423,),0,0,0
3:57.342,85443,(,0,0,1
3:57.367,85452,N,0,0,0
3:57.392,85461,),0,0,1
3:57.531,85511,(,0,0,2
3:57.572,85526,t,0,0,5
3:57.700,85572,t,0,0,5
3:57.864,85631,),0,0,2
3:57.964,85667,(,0,0,0
3:57.997,85679,p,0,0,0
3:58.044,85696,),0,0,0
3:58.072,85706,(,0,0,1
3:58.128,85726,N,0,0,0
3:58.153,85735,),0,0,1
3:58.211,85756,(,0,0,2
3:58.347,85805,t,0,0,0
3:58.467,85848,),0,0,2
3:58.819,85975,(,0,0,0
3:58.853,85987,p,0,0,0
3:58.922,86012,),0,0,0
3:58.939,86018,(,0,0,1
3:59.058,86061,N,0,0,0
3:59.097,86075,),0,0,1
3:59.278,86140,(,0,0,2
3:59.372,86174,t,0,0,1
3:59.561,86242,),0,0,2
3:59.703,86293,(,0,0,0
3:59.742,86307,p,0,0,0
3:59.786,86323,),0,0,0
3:59.806,86330,(,0,0,1
3:59.867,86352,N,0,0,0
3:59.892,86361,),0,0,1
4:00.411,86548,(,0,0,0
4:00.422,86552,p,0,0,0
4:00.506,86582,),0,0,0
4:00.519,86587,(,0,0,1
4:00.636,86629,N,0,0,0
4:00.661,86638,),0,0,1
4:00.742,86667,(,0,0,2
4:00.828,86698,t,0,0,5
4:01.019,86767,t,0,0,5
4:01.056,86780,),0,0,2
4:01.353,86887,(,0,0,0
4:01.389,86900,p,0,0,0
4:01.431,86915,),0,0,0
4:01.461,86926,(,0,0,1
4:01.508,86943,N,0,0,0
4:01.544,86956,),0,0,1
4:02.097,87155,(,0,0,0
4:02.136,87169,p,0,0,0
4:02.181,87185,),0,0,0
4:02.200,87192,(,0,0,1
4:02.256,87212,N,0,0,0
4:02.281,87221,),0,0,1
4:02.394,87262,(,0,0,2
4:02.439,87278,t,0,0,5
4:02.678,87364,t,0,0,5
4:02.722,87380,),0,0,2
4:02.886,87439,(,0,0,0
4:02.928,87454,p,0,0,0
4:02.975,87471,),0,0,0
4:02.997,87479,(,0,0,1
4:03.053,87499,N,0,0,0
4:03.131,87527,),0,0,1
4:03.169,87541,(,0,0,2
4:03.275,87579,t,0,0,5
4:03.564,87683,t,0,0,5
4:03.683,87726,),0,0,2
4:03.792,87765,(,0,0,0
4:03.828,87778,p,0,0,0
4:03.875,87795,),0,0,0
4:03.900,87804,(,0,0,1
4:03.958,87825,N,0,0,0
4:03.994,87838,),0,0,1
4:04.097,87875,(,0,0,2
4:04.125,87885,t,0,0,5
4:04.306,87950,t,0,0,5
4:04.469,88009,),0,0,2
4:04.628,88066,(,0,0,0
4:04.669,88081,p,0,0,0
4:04.714,88097,),0,0,0
4:04.744,88108,(,0,0,1
4:04.797,88127,N,0,0,0
4:04.825,88137,),0,0,1
4:04.933,88176,(,0,0,2
4:04.986,88195,t,0,0,5
4:05.100,88236,t,0,0,5
4:05.242,88287,),0,0,2
4:05.375,88335,(,0,0,0
4:05.411,88348,p,0,0,0
4:05.456,88364,),0,0,0
4:05.489,88376,(,0,0,1
4:05.539,88394,N,0,0,0
4:05.564,88403,),0,0,1
4:05.650,88434,(,0,0,2
4:05.750,88470,t,0,0,5
4:05.889,88520,t,0,0,5
4:05.997,88559,),0,0,2
4:06.122,88604,(,0,0,0
4:06.164,88619,p,0,0,0
4:06.244,88648,),0,0,0
4:06.286,88663,(,0,0,1
4:06.433,88716,N,0,0,0
4:06.458,88725,),0,0,1
4:06.644,88792,(,0,0,2
4:06.764,88835,t,0,0,1
4:06.969,88909,),0,0,2
4:07.122,88964,(,0,0,0
4:07.156,88976,p,0,0,0
4:07.194,88990,),0,0,0
4:07.208,88995,(,0,0,1
4:07.269,89017,N,0,0,0
4:07.294,89026,),0,0,1
4:07.836,89221,(,0,0,0
4:07.878,89236,p,0,0,0
4:07.925,89253,),0,0,0
4:07.972,89270,(,0,0,1
4:08.006,89282,N,0,0,0
4:08.083,89310,),0,0,1
4:08.144,89332,(,0,0,2
4:08.194,89350,t,0,0,5
4:08.411,89428,t,0,0,5
4:08.472,89450,),0,0,2
4:08.692,89529,(,0,0,0
4:08.728,89542,p,0,0,0
4:08.789,89564,),0,0,0
4:08.814,89573,(,0,0,1
4:08.861,89590,N,0,0,0
4:08.894,89602,),0,0,1
4:09.094,89674,(,0,0,2
4:09.189,89708,t,0,0,1
4:09.364,89771,),0,0,2
4:09.539,89834,(,0,0,0
4:09.578,89848,p,0,0,0
4:09.628,89866,),0,0,0
4:09.647,89873,(,0,0,1
4:09.706,89894,N,0,0,0
4:09.731,89903,),0,0,1
4:09.803,89929,(,0,0,2
4:09.922,89972,t,0,0,5
4:10.144,90052,t,0,0,5
4:10.222,90080,),0,0,2
4:10.325,90117,(,0,0,0
4:10.336,90121,p,0,0,0
4:10.417,90150,),0,0,0
4:10.428,90154,(,0,0,1
4:10.550,90198,N,0,0,0
4:10.575,90207,),0,0,1
4:10.647,90233,(,0,0,2
4:10.758,90273,t,0,0,5
4:10.947,90341,t,0,0,5
4:11.067,90384,),0,0,2
4:11.158,90417,(,0,0,0
4:11.200,90432,p,0,0,0
4:11.239,90446,),0,0,0
4:11.272,90458,(,0,0,1
4:11.419,90511,N,0,0,0
4:11.453,90523,),0,0,1
4:11.467,90528,(,0,0,2
4:11.533,90552,t,0,0,5
4:11.778,90640,t,0,0,5
4:11.928,90694,),0,0,2
4:12.044,90736,(,0,0,0
4:12.083,90750,p,0,0,0
4:12.125,90765,),0,0,0
4:12.172,90782,(,0,0,1
4:12.203,90793,N,0,0,0
4:12.228,90802,),0,0,1
4:12.783,91002,(,0,0,0
4:12.822,91016,p,0,0,0
4:12.872,91034,),0,0,0
4:12.892,91041,(,0,0,1
4:12.947,91061,N,0,0,0
4:12.972,91070,),0,0,1
4:13.086,91111,(,0,0,2
4:13.158,91137,t,0,0,5
4:13.300,91188,t,0,0,5
4:13.417,91230,),0,0,2
4:13.483,91254,(,0,0,0
4:13.500,91260,p,0,0,0
4:13.603,91297,),0,0,0
4:13.672,91322,(,0,0,1
4:13.822,91376,N,0,0,0
4:13.847,91385,),0,0,1
4:13.886,91399,(,0,0,2
4:13.969,91429,t,0,0,5
4:14.169,91501,t,0,0,5
4:14.250,91530,),0,0,2
4:14.419,91591,(,0,0,0
4:14.458,91605,p,0,0,0
4:14.506,91622,),0,0,0
4:14.556,91640,(,0,0,1
4:14.583,91650,N,0,0,0
4:14.617,91662,),0,0,1
4:14.622,91664,(,0,0,2
4:14.786,91723,t,0,0,5
4:14.900,91764,t,0,0,5
4:15.067,91824,),0,0,2
4:15.233,91884,(,0,0,0
4:15.278,91900,p,0,0,0
4:15.325,91917,),0,0,0
4:15.347,91925,(,0,0,1
4:15.403,91945,N,0,0,0
4:15.428,91954,),0,0,1
4:15.556,92000,(,0,0,2
4:15.625,92025,t,0,0,5
4:15.744,92068,t,0,0,5
4:15.856,92108,),0,0,2
4:16.078,92188,(,0,0,0
4:16.117,92202,p,0,0,0
4:16.167,92220,),0,0,0
4:16.189,92228,(,0,0,1
4:16.242,92247,N,0,0,0
4:16.267,92256,),0,0,1
4:16.394,92302,(,0,0,2
4:16.450,92322,t,0,0,5
4:16.586,92371,t,0,0,5
4:16.717,92418,),0,0,2
4:16.914,92489,(,0,0,0
4:16.953,92503,p,0,0,0
4:17.003,92521,),0,0,0
4:17.058,92541,(,0,0,1
4:17.100,92556,N,0,0,0
4:17.153,92575,),0,0,1
4:17.278,92620,(,0,0,2
4:17.353,92647,t,0,0,1
4:17.528,92710,),0,0,2
4:17.697,92771,(,0,0,0
4:17.742,92787,p,0,0,0
4:17.789,92804,),0,0,0
4:17.811,92812,(,0,0,1
4:17.869,92833,N,0,0,0
4:17.894,92842,),0,0,1
4:18.450,93042,(,0,0,0
4:18.486,93055,p,0,0,0
4:18.531,93071,),0,0,0
4:18.558,93081,(,0,0,1
4:18.611,93100,N,0,0,0
4:18.633,93108,),0,0,1
4:18.722,93140,(,0,0,2
4:18.814,93173,t,0,0,0
4:18.925,93213,),0,0,2
4:19.183,93306,(,0,0,0
4:19.239,93326,p,0,0,0
4:19.342,93363,),0,0,0
4:19.356,93368,(,0,0,1
4:19.469,93409,N,0,0,0
4:19.506,93422,),0,0,1
4:19.508,93423,(,0,0,2
4:19.603,93457,t,0,0,5
4:19.781,93521,t,0,0,5
4:19.903,93565,),0,0,2
4:20.053,93619,(,0,0,0
4:20.092,93633,p,0,0,0
4:20.133,93648,),0,0,0
4:20.156,93656,(,0,0,1
4:20.206,93674,N,0,0,0
4:20.231,93683,),0,0,1
4:20.328,93718,(,0,0,2
4:20.392,93741,t,0,0,5
4:20.522,93788,t,0,0,5
4:20.650,93834,),0,0,2
4:20.833,93900,(,0,0,0
4:20.878,93916,p,0,0,0
4:20.925,93933,),0,0,0
4:20.942,93939,(,0,0,1
4:21.000,93960,N,0,0,0
4:21.025,93969,),0,0,1
4:21.125,94005,(,0,0,2
4:21.194,94030,t,0,0,5
4:21.422,94112,t,0,0,5
4:21.503,94141,),0,0,2
4:21.514,94145,(,0,0,0
4:21.533,94152,p,0,0,0
4:21.597,94175,),0,0,0
4:21.639,94190,(,0,0,1
4:21.775,94239,N,0,0,0
4:21.831,94259,),0,0,1
4:22.456,94484,(,0,0,0
4:22.494,94498,p,0,0,0
4:22.542,94515,),0,0,0
4:22.561,94522,(,0,0,1
4:22.622,94544,N,0,0,0
4:22.647,94553,),0,0,1
4:22.719,94579,(,0,0,2
4:22.833,94620,t,0,0,0
4:22.950,94662,),0,0,2
4:23.347,94805,(,0,0,1
4:23.486,94855,N,0,0,0
4:23.517,94866,),0,0,1
4:24.133,95088,(,0,0,0
4:24.175,95103,p,0,0,0
4:24.217,95118,),0,0,0
4:24.233,95124,(,0,0,1
4:24.289,95144,N,0,0,0
4:24.317,95154,),0,0,1
4:24.897,95363,(,0,0,0
4:24.936,95377,p,0,0,0
4:24.981,95393,),0,0,0
4:25.006,95402,(,0,0,1
4:25.056,95420,N,0,0,0
4:25.081,95429,),0,0,1
4:25.681,95645,(,0,0,0
4:25.722,95660,p,0,0,0
4:25.767,95676,),0,0,0
4:25.783,95682,(,0,0,1
4:25.836,95701,N,0,0,0
4:25.861,95710,),0,0,1
4:25.919,95731,(,0,0,2
4:26.033,95772,t,0,0,5
4:26.206,95834,t,0,0,5
4:26.253,95851,),0,0,2
4:26.414,95909,(,0,0,0
4:26.453,95923,p,0,0,0
4:26.500,95940,),0,0,0
4:26.522,95948,(,0,0,1
4:26.581,95969,N,0,0,0
4:26.661,95998,),0,0,1
4:26.753,96031,(,0,0,2
4:26.789,96044,t,0,0,5
4:27.000,96120,t,0,0,5
4:27.158,96177,),0,0,2
4:27.239,96206,(,0,0,0
4:27.286,96223,p,0,0,0
4:27.331,96239,),0,0,0
4:27.356,96248,(,0,0,1
4:27.417,96270,N,0,0,0
4:27.442,96279,),0,0,1
4:27.556,96320,(,0,0,2
4:27.583,96330,t,0,0,5
4:27.781,96401,t,0,0,5
4:27.928,96454,),0,0,2
4:27.964,96467,(,0,0,0
4:27.989,96476,p,0,0,0
4:28.119,96523,),0,0,0
4:28.133,96528,(,0,0,1
4:28.247,96569,N,0,0,0
4:28.272,96578,),0,0,1
4:28.836,96781,(,0,0,0
4:28.875,96795,p,0,0,0
4:28.922,96812,),0,0,0
4:28.950,96822,(,0,0,1
4:29.006,96842,N,0,0,0
4:29.033,96852,),0,0,1
4:29.167,96900,(,0,0,2
4:29.214,96917,t,0,0,5
4:29.358,96969,t,0,0,5
4:29.497,97019,),0,0,2
4:29.642,97071,(,0,0,0
4:29.675,97083,p,0,0,0
4:29.703,97093,),0,0,0
4:29.736,97105,(,0,0,1
4:29.883,97158,N,0,0,0
4:29.908,97167,),0,0,1
4:29.978,97192,(,0,0,2
4:30.011,97204,t,0,0,5
4:30.239,97286,t,0,0,5
4:30.414,97349,),0,0,2
4:30.531,97391,(,0,0,0
4:30.572,97406,p,0,0,0
4:30.617,97422,),0,0,0
4:30.636,97429,(,0,0,1
4:30.694,97450,N,0,0,0
4:30.719,97459,),0,0,1
4:31.272,97658,(,0,0,0
4:31.308,97671,p,0,0,0
4:31.356,97688,),0,0,0
4:31.383,97698,(,0,0,1
4:31.433,97716,N,0,0,0
4:31.458,97725,),0,0,1
4:31.514,97745,(,0,0,2
4:31.636,97789,t,0,0,5
4:31.769,97837,t,0,0,5
4:31.933,97896,),0,0,2
4:32.189,97988,(,0,0,1
4:32.300,98028,N,0,0,0
4:32.325,98037,),0,0,1
4:32.444,98080,(,0,0,2
4:32.481,98093,t,0,0,5
4:32.642,98151,t,0,0,5
4:32.750,98190,),0,0,2
4:32.894,98242,(,0,0,0
4:32.931,98255,p,0,0,0
4:32.975,98271,),0,0,0
4:33.008,98283,(,0,0,1
4:33.031,98291,N,0,0,0
4:33.089,98312,),0,0,1
4:33.731,98543,(,0,0,0
4:33.772,98558,p,0,0,0
4:33.822,98576,),0,0,0
4:33.844,98584,(,0,0,1
4:33.900,98604,N,0,0,0
4:33.925,98613,),0,0,1
4:33.992,98637,(,0,0,2
4:34.111,98680,t,0,0,5
4:34.411,98788,t,0,0,5
4:34.494,98818,),0,0,2
4:34.581,98849,(,0,0,0
4:34.619,98863,p,0,0,0
4:34.664,98879,),0,0,0
4:34.689,98888,(,0,0,1
4:34.747,98909,N,0,0,0
4:34.769,98917,),0,0,1
4:34.903,98965,(,0,0,2
4:34.950,98982,t,0,0,5
4:35.114,99041,t,0,0,5
4:35.161,99058,),0,0,2
4:37.814   100013,(,0,0,0
4:37.850   100026,p,0,0,0
4:37.892   100041,),0,0,0
4:37.936   100057,(,0,0,1
4:37.967   100068,N,0,0,0
4:37.997   100079,),0,0,1
4:38.519   100267,(,0,0,0
4:38.556   100280,p,0,0,0
4:38.603   100297,),0,0,0
4:38.653   100315,(,0,0,1
4:38.683   100326,N,0,0,0
4:38.714   100337,),0,0,1
4:38.914   100409,(,0,0,2
4:39.025   100449,t,0,0,4
4:39.469   100609,t,0,0,4
4:39.528   100630,),0,0,2
4:40.308   100911,(,0,0,0
4:40.344   100924,p,0,0,0
4:40.392   100941,),0,0,0
4:40.439   100958,(,0,0,1
4:40.467   100968,N,0,0,0
4:40.500   100980,),0,0,1
4:40.506   100982,(,0,0,2
4:40.667   101040,t,0,0,5
4:40.758   101073,t,0,0,5
4:40.942   101139,),0,0,2
4:41.089   101192,(,0,0,0
4:41.122   101204,p,0,0,0
4:41.167   101220,),0,0,0
4:41.219   101239,(,0,0,1
4:41.247   101249,N,0,0,0
4:41.281   101261,),0,0,1
4:41.356   101288,(,0,0,2
4:41.433   101316,t,0,0,5
4:41.606   101378,t,0,0,5
4:41.642   101391,),0,0,2
4:41.900   101484,(,0,0,0
4:41.939   101498,p,0,0,0
4:41.983   101514,),0,0,0
4:42.033   101532,(,0,0,1
4:42.061   101542,N,0,0,0
4:42.097   101555,),0,0,1
4:42.733   101784,(,0,0,2
4:42.789   101804,t,0,0,4
4:42.847   101825,t,0,0,4
4:42.883   101838,),0,0,2
4:43.472   102050,(,0,0,0
4:43.508   102063,p,0,0,0
4:43.550   102078,),0,0,0
4:43.600   102096,(,0,0,1
4:43.628   102106,N,0,0,0
4:43.656   102116,),0,0,1
4:43.692   102129,(,0,0,2
4:43.817   102174,t,0,0,5
4:43.992   102237,t,0,0,5
4:44.083   102270,),0,0,2
4:44.269   102337,(,0,0,0
4:44.306   102350,p,0,0,0
4:44.350   102366,),0,0,0
4:44.400   102384,(,0,0,1
4:44.419   102391,N,0,0,0
4:44.447   102401,),0,0,1
4:45.078   102628,(,0,0,0
4:45.114   102641,p,0,0,0
4:45.164   102659,),0,0,0
4:45.217   102678,(,0,0,1
4:45.244   102688,N,0,0,0
4:45.281   102701,),0,0,1
4:45.417   102750,(,0,0,2
4:45.458   102765,t,0,0,5
4:45.589   102812,t,0,0,5
4:45.722   102860,),0,0,2
4:45.911   102928,(,0,0,0
4:45.947   102941,p,0,0,0
4:45.994   102958,),0,0,0
4:46.050   102978,(,0,0,1
4:46.078   102988,N,0,0,0
4:46.111   103000,),0,0,1
4:46.244   103048,(,0,0,2
4:46.300   103068,t,0,0,5
4:46.500   103140,t,0,0,5
4:46.572   103166,),0,0,2
4:46.833   103260,(,0,0,0
4:46.864   103271,p,0,0,0
4:46.908   103287,),0,0,0
4:46.967   103308,(,0,0,1
4:46.992   103317,N,0,0,0
4:47.022   103328,),0,0,1
4:47.192   103389,(,0,0,2
4:47.275   103419,t,0,0,1
4:47.431   103475,),0,0,2
4:47.564   103523,(,0,0,0
4:47.600   103536,p,0,0,0
4:47.644   103552,),0,0,0
4:47.703   103573,(,0,0,1
4:47.731   103583,N,0,0,0
4:47.764   103595,),0,0,1
4:48.442   103839,(,0,0,2
4:48.494   103858,t,0,0,0
4:48.550   103878,),0,0,2
4:49.258   104133,(,0,0,0
4:49.294   104146,p,0,0,0
4:49.336   104161,),0,0,0
4:49.389   104180,(,0,0,1
4:49.417   104190,N,0,0,0
4:49.444   104200,),0,0,1
4:50.097   104435,(,0,0,2
4:50.156   104456,t,0,0,4
4:50.208   104475,t,0,0,4
4:50.242   104487,),0,0,2
4:50.933   104736,(,0,0,0
4:50.964   104747,p,0,0,0
4:51.008   104763,),0,0,0
4:51.069   104785,(,0,0,1
4:51.092   104793,N,0,0,0
4:51.125   104805,),0,0,1
4:51.303   104869,(,0,0,2
4:51.400   104904,t,0,0,1
4:51.539   104954,),0,0,2
4:51.758   105033,(,0,0,0
4:51.803   105049,p,0,0,0
4:51.850   105066,),0,0,0
4:51.903   105085,(,0,0,1
4:51.933   105096,N,0,0,0
4:51.967   105108,),0,0,1
4:52.617   105342,(,0,0,2
4:52.678   105364,t,0,0,1
4:52.739   105386,),0,0,2
4:55.058   106221,(,0,0,0
4:55.094   106234,p,0,0,0
4:55.139   106250,),0,0,0
4:55.194   106270,(,0,0,1
4:55.219   106279,N,0,0,0
4:55.247   106289,),0,0,1
4:55.928   106534,(,0,0,2
4:55.969   106549,t,0,0,0
4:56.028   106570,),0,0,2
4:58.508   107463,(,0,0,0
4:58.542   107475,p,0,0,0
4:58.597   107495,),0,0,0
4:58.647   107513,(,0,0,1
4:58.672   107522,N,0,0,0
4:58.703   107533,),0,0,1
4:59.392   107781,(,0,0,2
4:59.422   107792,t,0,0,0
4:59.456   107804,),0,0,2
5:00.086   108031,(,0,0,0
5:00.125   108045,p,0,0,0
5:00.167   108060,),0,0,0
5:00.217   108078,(,0,0,1
5:00.244   108088,N,0,0,0
5:00.278   108100,),0,0,1
5:00.336   108121,(,0,0,2
5:00.372   108134,t,0,0,5
5:00.633   108228,t,0,0,5
5:00.700   108252,),0,0,2
5:00.961   108346,(,0,0,0
5:00.994   108358,p,0,0,0
5:01.036   108373,),0,0,0
5:01.083   108390,(,0,0,1
5:01.108   108399,N,0,0,0
5:01.136   108409,),0,0,1
5:01.731   108623,(,0,0,2
5:01.786   108643,t,0,0,4
5:01.847   108665,t,0,0,4
5:01.881   108677,),0,0,2
5:02.539   108914,(,0,0,0
5:02.572   108926,p,0,0,0
5:02.619   108943,),0,0,0
5:02.667   108960,(,0,0,1
5:02.697   108971,N,0,0,0
5:02.731   108983,),0,0,1
5:02.806   109010,(,0,0,2
5:02.897   109043,t,0,0,5
5:03.003   109081,t,0,0,5
5:03.233   109164,),0,0,2
5:03.372   109214,(,0,0,0
5:03.411   109228,p,0,0,0
5:03.456   109244,),0,0,0
5:03.511   109264,(,0,0,1
5:03.536   109273,N,0,0,0
5:03.567   109284,),0,0,1
5:04.147   109493,(,0,0,0
5:04.181   109505,p,0,0,0
5:04.225   109521,),0,0,0
5:04.281   109541,(,0,0,1
5:04.306   109550,N,0,0,0
5:04.336   109561,),0,0,1
5:04.406   109586,(,0,0,2
5:04.528   109630,t,0,0,5
5:04.739   109706,t,0,0,5
5:04.819   109735,),0,0,2
5:05.050   109818,(,0,0,0
5:05.083   109830,p,0,0,0
5:05.128   109846,),0,0,0
5:05.181   109865,(,0,0,1
5:05.206   109874,N,0,0,0
5:05.236   109885,),0,0,1
5:05.892   110121,(,0,0,2
5:05.944   110140,t,0,0,1
5:06.003   110161,),0,0,2
5:06.653   110395,(,0,0,0
5:06.692   110409,p,0,0,0
5:06.736   110425,),0,0,0
5:06.783   110442,(,0,0,1
5:06.808   110451,N,0,0,0
5:06.839   110462,),0,0,1
5:07.489   110696,(,0,0,2
5:07.542   110715,t,0,0,1
5:07.597   110735,),0,0,2
5:08.158   110937,(,0,0,0
5:08.192   110949,p,0,0,0
5:08.233   110964,),0,0,0
5:08.283   110982,(,0,0,1
5:08.308   110991,N,0,0,0
5:08.336   111001,),0,0,1
5:08.397   111023,(,0,0,2
5:08.508   111063,t,0,0,5
5:08.803   111169,t,0,0,5
5:08.858   111189,),0,0,2
5:09.025   111249,(,0,0,0
5:09.061   111262,p,0,0,0
5:09.103   111277,),0,0,0
5:09.161   111298,(,0,0,1
5:09.183   111306,N,0,0,0
5:09.214   111317,),0,0,1
5:10.664   111839,(,0,0,0
5:10.700   111852,p,0,0,0
5:10.747   111869,),0,0,0
5:10.797   111887,(,0,0,1
5:10.828   111898,N,0,0,0
5:10.858   111909,),0,0,1
5:10.933   111936,(,0,0,2
5:11.042   111975,t,0,0,0
5:11.150   112014,),0,0,2
5:11.489   112136,(,0,0,0
5:11.525   112149,p,0,0,0
5:11.572   112166,),0,0,0
5:11.628   112186,(,0,0,1
5:11.653   112195,N,0,0,0
5:11.683   112206,),0,0,1
5:12.342   112443,(,0,0,2
5:12.397   112463,t,0,0,1
5:12.450   112482,),0,0,2
5:13.072   112706,(,0,0,0
5:13.111   112720,p,0,0,0
5:13.153   112735,),0,0,0
5:13.200   112752,(,0,0,1
5:13.228   112762,N,0,0,0
5:13.253   112771,),0,0,1
5:13.281   112781,(,0,0,2
5:13.403   112825,t,0,0,5
5:13.597   112895,t,0,0,5
5:13.622   112904,),0,0,2
5:13.867   112992,(,0,0,0
5:13.903   113005,p,0,0,0
5:13.947   113021,),0,0,0
5:13.997   113039,(,0,0,1
5:14.022   113048,N,0,0,0
5:14.047   113057,),0,0,1
5:14.703   113293,(,0,0,2
5:14.758   113313,t,0,0,4
5:14.817   113334,t,0,0,4
5:14.861   113350,),0,0,2
5:15.439   113558,(,0,0,0
5:15.472   113570,p,0,0,0
5:15.519   113587,),0,0,0
5:15.578   113608,(,0,0,1
5:15.600   113616,N,0,0,0
5:15.631   113627,),0,0,1
5:15.744   113668,(,0,0,2
5:15.817   113694,t,0,0,5
5:16.172   113822,t,0,0,5
5:16.214   113837,),0,0,2
5:16.372   113894,(,0,0,0
5:16.403   113905,p,0,0,0
5:16.458   113925,),0,0,0
5:16.508   113943,(,0,0,1
5:16.533   113952,N,0,0,0
5:16.564   113963,),0,0,1
5:17.158   114177,(,0,0,0
5:17.197   114191,p,0,0,0
5:17.242   114207,),0,0,0
5:17.294   114226,(,0,0,1
5:17.317   114234,N,0,0,0
5:17.350   114246,),0,0,1
5:18.022   114488,(,0,0,2
5:18.075   114507,t,0,0,1
5:18.136   114529,),0,0,2
5:20.317   115314,(,0,0,0
5:20.353   115327,p,0,0,0
5:20.394   115342,),0,0,0
5:20.444   115360,(,0,0,1
5:20.469   115369,N,0,0,0
5:20.494   115378,),0,0,1
5:20.686   115447,(,0,0,2
5:20.969   115549,t,0,0,1
5:21.286   115663,),0,0,2
5:22.172   115982,(,0,0,0
5:22.203   115993,p,0,0,0
5:22.247   116009,),0,0,0
5:22.308   116031,(,0,0,1
5:22.333   116040,N,0,0,0
5:22.361   116050,),0,0,1
5:23.050   116298,(,0,0,2
5:23.092   116313,t,0,0,0
5:23.144   116332,),0,0,2
5:25.675   117243,(,0,0,0
5:25.686   117247,p,0,0,0
5:25.728   117262,),0,0,0
5:25.781   117281,(,0,0,1
5:25.806   117290,N,0,0,0
5:25.833   117300,),0,0,1
5:26.497   117539,(,0,0,2
5:26.558   117561,t,0,0,1
5:26.608   117579,),0,0,2
5:27.314   117833,(,0,0,0
5:27.350   117846,p,0,0,0
5:27.394   117862,),0,0,0
5:27.447   117881,(,0,0,1
5:27.478   117892,N,0,0,0
5:27.508   117903,),0,0,1
5:28.133   118128,(,0,0,2
5:28.192   118149,t,0,0,4
5:28.261   118174,t,0,0,4
5:28.297   118187,),0,0,2
5:31.528   119350,(,0,0,0
5:31.625   119385,p,0,0,0
5:31.683   119406,),0,0,0
5:31.731   119423,(,0,0,1
5:31.756   119432,N,0,0,0
5:31.786   119443,),0,0,1
5:33.331   119999,(,0,0,0
5:33.364   120011,p,0,0,0
5:33.411   120028,),0,0,0
5:33.461   120046,(,0,0,1
5:33.492   120057,N,0,0,0
5:33.525   120069,),0,0,1
5:33.628   120106,(,0,0,2
5:33.683   120126,t,0,0,5
5:33.819   120175,t,0,0,5
5:33.975   120231,),0,0,2
5:34.214   120317,(,0,0,0
5:34.244   120328,p,0,0,0
5:34.294   120346,),0,0,0
5:34.347   120365,(,0,0,1
5:34.372   120374,N,0,0,0
5:34.406   120386,),0,0,1
5:34.478   120412,(,0,0,2
5:34.500   120420,t,0,0,5
5:34.689   120488,t,0,0,5
5:34.897   120563,),0,0,2
5:35.067   120624,(,0,0,0
5:35.103   120637,p,0,0,0
5:35.147   120653,),0,0,0
5:35.200   120672,(,0,0,1
5:35.225   120681,N,0,0,0
5:35.258   120693,),0,0,1
5:35.264   120695,(,0,0,2
5:35.406   120746,t,0,0,5
5:35.500   120780,t,0,0,5
5:35.669   120841,),0,0,2
5:35.792   120885,(,0,0,0
5:35.828   120898,p,0,0,0
5:35.875   120915,),0,0,0
5:35.928   120934,(,0,0,1
5:35.956   120944,N,0,0,0
5:35.989   120956,),0,0,1
5:36.086   120991,(,0,0,2
5:36.164   121019,t,0,0,5
5:36.267   121056,t,0,0,5
5:36.433   121116,),0,0,2
5:36.681   121205,(,0,0,0
5:36.708   121215,p,0,0,0
5:36.758   121233,),0,0,0
5:36.811   121252,(,0,0,1
5:36.836   121261,N,0,0,0
5:36.864   121271,),0,0,1
5:37.050   121338,(,0,0,2
5:37.172   121382,t,0,0,4
5:37.572   121526,t,0,0,4
5:37.622   121544,),0,0,2
5:39.981   122393,(,0,0,0
5:40.019   122407,p,0,0,0
5:40.061   122422,),0,0,0
5:40.111   122440,(,0,0,1
5:40.144   122452,N,0,0,0
5:40.167   122460,),0,0,1
5:40.803   122689,(,0,0,0
5:40.839   122702,p,0,0,0
5:40.886   122719,),0,0,0
5:40.939   122738,(,0,0,1
5:40.967   122748,N,0,0,0
5:40.994   122758,),0,0,1
5:41.111   122800,(,0,0,2
5:41.178   122824,t,0,0,5
5:41.281   122861,t,0,0,5
5:41.339   122882,),0,0,2
5:41.686   123007,(,0,0,0
5:41.717   123018,p,0,0,0
5:41.767   123036,),0,0,0
5:41.822   123056,(,0,0,1
5:41.847   123065,N,0,0,0
5:41.878   123076,),0,0,1
5:42.072   123146,(,0,0,2
5:42.142   123171,t,0,0,1
5:42.353   123247,),0,0,2
5:42.506   123302,(,0,0,0
5:42.550   123318,p,0,0,0
5:42.597   123335,),0,0,0
5:42.642   123351,(,0,0,1
5:42.669   123361,N,0,0,0
5:42.722   123380,),0,0,1
5:43.247   123569,(,0,0,0
5:43.283   123582,p,0,0,0
5:43.325   123597,),0,0,0
5:43.375   123615,(,0,0,1
5:43.403   123625,N,0,0,0
5:43.428   123634,),0,0,1
5:43.508   123663,(,0,0,2
5:43.597   123695,t,0,0,5
5:43.836   123781,t,0,0,5
5:43.867   123792,),0,0,2
5:44.133   123888,(,0,0,0
5:44.144   123892,p,0,0,0
5:44.189   123908,),0,0,0
5:44.242   123927,(,0,0,1
5:44.264   123935,N,0,0,0
5:44.292   123945,),0,0,1
5:44.472   124010,(,0,0,2
5:44.542   124035,t,0,0,1
5:44.872   124154,),0,0,2
5:46.592   124773,(,0,0,0
5:46.628   124786,p,0,0,0
5:46.672   124802,),0,0,0
5:46.717   124818,(,0,0,1
5:46.753   124831,N,0,0,0
5:46.786   124843,),0,0,1
5:48.250   125370,(,0,0,0
5:48.289   125384,p,0,0,0
5:48.333   125400,),0,0,0
5:48.386   125419,(,0,0,1
5:48.411   125428,N,0,0,0
5:48.439   125438,),0,0,1
5:48.531   125471,(,0,0,2
5:48.603   125497,t,0,0,5
5:48.806   125570,t,0,0,5
5:48.869   125593,),0,0,2
5:49.856   125948,(,0,0,0
5:49.892   125961,p,0,0,0
5:49.936   125977,),0,0,0
5:49.989   125996,(,0,0,1
5:50.014   126005,N,0,0,0
5:50.042   126015,),0,0,1
5:50.119   126043,(,0,0,2
5:50.211   126076,t,0,0,5
5:50.364   126131,t,0,0,5
5:50.428   126154,),0,0,2
5:50.658   126237,(,0,0,0
5:50.700   126252,p,0,0,0
5:50.744   126268,),0,0,0
5:50.803   126289,(,0,0,1
5:50.831   126299,N,0,0,0
5:50.858   126309,),0,0,1
5:50.939   126338,(,0,0,2
5:51.011   126364,t,0,0,5
5:51.233   126444,t,0,0,5
5:51.275   126459,),0,0,2
5:51.514   126545,(,0,0,0
5:51.550   126558,p,0,0,0
5:51.600   126576,),0,0,0
5:51.656   126596,(,0,0,1
5:51.681   126605,N,0,0,0
5:51.711   126616,),0,0,1
5:53.150   127134,(,0,0,0
5:53.192   127149,p,0,0,0
5:53.236   127165,),0,0,0
5:53.286   127183,(,0,0,1
5:53.308   127191,N,0,0,0
5:53.336   127201,),0,0,1
5:53.467   127248,(,0,0,2
5:53.508   127263,t,0,0,5
5:53.711   127336,t,0,0,5
5:53.742   127347,),0,0,2
5:53.939   127418,(,0,0,0
5:53.975   127431,p,0,0,0
5:54.019   127447,),0,0,0
5:54.072   127466,(,0,0,1
5:54.100   127476,N,0,0,0
5:54.136   127489,),0,0,1
5:54.681   127685,(,0,0,0
5:54.717   127698,p,0,0,0
5:54.761   127714,),0,0,0
5:54.808   127731,(,0,0,1
5:54.839   127742,N,0,0,0
5:54.869   127753,),0,0,1
5:54.953   127783,(,0,0,2
5:55.050   127818,t,0,0,5
5:55.183   127866,t,0,0,5
5:55.331   127919,),0,0,2
5:55.550   127998,(,0,0,0
5:55.583   128010,p,0,0,0
5:55.622   128024,),0,0,0
5:55.675   128043,(,0,0,1
5:55.700   128052,N,0,0,0
5:55.733   128064,),0,0,1
5:55.822   128096,(,0,0,2
5:55.897   128123,t,0,0,5
5:56.114   128201,t,0,0,5
5:56.164   128219,),0,0,2
5:56.289   128264,(,0,0,0
5:56.325   128277,p,0,0,0
5:56.367   128292,),0,0,0
5:56.411   128308,(,0,0,1
5:56.439   128318,N,0,0,0
5:56.472   128330,),0,0,1
5:56.597   128375,(,0,0,2
5:56.650   128394,t,0,0,5
5:56.742   128427,t,0,0,5
5:56.867   128472,),0,0,2
5:57.100   128556,(,0,0,0
5:57.139   128570,p,0,0,0
5:57.186   128587,),0,0,0
5:57.239   128606,(,0,0,1
5:57.264   128615,N,0,0,0
5:57.297   128627,),0,0,1
5:57.431   128675,(,0,0,2
5:57.483   128694,t,0,0,5
5:57.625   128745,t,0,0,5
5:57.681   128765,),0,0,2
5:57.917   128850,(,0,0,0
5:57.956   128864,p,0,0,0
5:58.006   128882,),0,0,0
5:58.056   128900,(,0,0,1
5:58.081   128909,N,0,0,0
5:58.114   128921,),0,0,1
5:58.119   128923,(,0,0,2
5:58.294   128986,t,0,0,5
5:58.481   129053,t,0,0,5
5:58.614   129101,),0,0,2
5:58.728   129142,(,0,0,0
5:58.764   129155,p,0,0,0
5:58.814   129173,),0,0,0
5:58.867   129192,(,0,0,1
5:58.892   129201,N,0,0,0
5:58.922   129212,),0,0,1
5:58.928   129214,(,0,0,2
5:59.100   129276,t,0,0,5
5:59.322   129356,t,0,0,5
5:59.364   129371,),0,0,2
5:59.531   129431,(,0,0,0
5:59.569   129445,p,0,0,0
5:59.614   129461,),0,0,0
5:59.672   129482,(,0,0,1
5:59.697   129491,N,0,0,0
5:59.728   129502,),0,0,1
5:59.789   129524,(,0,0,2
5:59.819   129535,t,0,0,5
5:59.989   129596,t,0,0,5
6:00.208   129675,),0,0,2
6:00.336   129721,(,0,0,0
6:00.372   129734,p,0,0,0
6:00.417   129750,),0,0,0
6:00.464   129767,(,0,0,1
6:00.489   129776,N,0,0,0
6:00.519   129787,),0,0,1
6:00.658   129837,(,0,0,2
6:00.697   129851,t,0,0,5
6:00.825   129897,t,0,0,5
6:00.931   129935,),0,0,2
6:01.058   129981,(,0,0,0
6:01.094   129994,p,0,0,0
6:01.139   130010,),0,0,0
6:01.189   130028,(,0,0,1
6:01.217   130038,N,0,0,0
6:01.247   130049,),0,0,1
6:01.350   130086,(,0,0,2
6:01.414   130109,t,0,0,5
6:01.608   130179,t,0,0,5
6:01.711   130216,),0,0,2
6:01.922   130292,(,0,0,0
6:01.956   130304,p,0,0,0
6:02.000   130320,),0,0,0
6:02.056   130340,(,0,0,1
6:02.078   130348,N,0,0,0
6:02.106   130358,),0,0,1
6:02.619   130543,(,0,0,2
6:02.667   130560,t,0,0,0
6:02.725   130581,),0,0,2
6:03.478   130852,(,0,0,0
6:03.517   130866,p,0,0,0
6:03.567   130884,),0,0,0
6:03.622   130904,(,0,0,1
6:03.647   130913,N,0,0,0
6:03.681   130925,),0,0,1
6:03.808   130971,(,0,0,2
6:03.867   130992,t,0,0,5
6:04.175   131103,t,0,0,5
6:04.208   131115,),0,0,2
6:05.144   131452,(,0,0,0
6:05.183   131466,p,0,0,0
6:05.228   131482,),0,0,0
6:05.275   131499,(,0,0,1
6:05.308   131511,N,0,0,0
6:05.336   131521,),0,0,1
6:05.508   131583,(,0,0,2
6:05.633   131628,t,0,0,4
6:05.906   131726,t,0,0,4
6:05.964   131747,),0,0,2
6:06.769   132037,(,0,0,0
6:06.800   132048,p,0,0,0
6:06.844   132064,),0,0,0
6:06.897   132083,(,0,0,1
6:06.922   132092,N,0,0,0
6:06.950   132102,),0,0,1
6:07.131   132167,(,0,0,2
6:07.247   132209,t,0,0,1
6:07.564   132323,),0,0,2
6:08.250   132570,(,0,0,0
6:08.286   132583,p,0,0,0
6:08.328   132598,),0,0,0
6:08.372   132614,(,0,0,1
6:08.400   132624,N,0,0,0
6:08.425   132633,),0,0,1
6:08.550   132678,(,0,0,2
6:08.617   132702,t,0,0,5
6:08.750   132750,t,0,0,5
6:08.906   132806,),0,0,2
6:12.397   134063,(,0,0,0
6:12.433   134076,p,0,0,0
6:12.475   134091,),0,0,0
6:12.522   134108,(,0,0,1
6:12.550   134118,N,0,0,0
6:12.572   134126,),0,0,1
6:12.761   134194,(,0,0,2
6:12.975   134271,t,0,0,1
6:13.164   134339,),0,0,2
6:14.761   134914,(,0,0,0
6:14.800   134928,p,0,0,0
6:14.847   134945,),0,0,0
6:14.900   134964,(,0,0,1
6:14.925   134973,N,0,0,0
6:14.953   134983,),0,0,1
6:17.225   135801,(,0,0,0
6:17.264   135815,p,0,0,0
6:17.314   135833,),0,0,0
6:17.356   135848,(,0,0,1
6:17.383   135858,N,0,0,0
6:17.414   135869,),0,0,1
6:17.608   135939,(,0,0,2
6:17.675   135963,t,0,0,1
6:17.839   136022,),0,0,2
6:18.839   136382,(,0,0,0
6:18.881   136397,p,0,0,0
6:18.925   136413,),0,0,0
6:18.975   136431,(,0,0,1
6:19.000   136440,N,0,0,0
6:19.067   136464,),0,0,1
6:19.125   136485,(,0,0,2
6:19.189   136508,t,0,0,5
6:19.361   136570,t,0,0,5
6:19.456   136604,),0,0,2
6:19.667   136680,(,0,0,0
6:19.700   136692,p,0,0,0
6:19.747   136709,),0,0,0
6:19.800   136728,(,0,0,1
6:19.822   136736,N,0,0,0
6:19.850   136746,),0,0,1
6:20.031   136811,(,0,0,2
6:20.094   136834,t,0,0,4
6:20.414   136949,t,0,0,4
6:20.475   136971,),0,0,2
6:22.058   137541,(,0,0,0
6:22.097   137555,p,0,0,0
6:22.147   137573,),0,0,0
6:22.200   137592,(,0,0,1
6:22.225   137601,N,0,0,0
6:22.253   137611,),0,0,1
6:22.461   137686,(,0,0,2
6:22.619   137743,t,0,0,1
6:22.886   137839,),0,0,2
6:26.825   139257,(,0,0,0
6:26.867   139272,p,0,0,0
6:26.914   139289,),0,0,0
6:26.969   139309,(,0,0,1
6:26.997   139319,N,0,0,0
6:27.022   139328,),0,0,1
6:27.161   139378,(,0,0,2
6:27.217   139398,t,0,0,5
6:27.394   139462,t,0,0,5
6:27.439   139478,),0,0,2
6:27.747   139589,(,0,0,0
6:27.786   139603,p,0,0,0
6:27.831   139619,),0,0,0
6:27.883   139638,(,0,0,1
6:27.911   139648,N,0,0,0
6:27.936   139657,),0,0,1
6:28.153   139735,(,0,0,2
6:28.247   139769,t,0,0,1
6:28.553   139879,),0,0,2
6:29.339   140162,(,0,0,0
6:29.375   140175,p,0,0,0
6:29.419   140191,),0,0,0
6:29.469   140209,(,0,0,1
6:29.497   140219,N,0,0,0
6:29.525   140229,),0,0,1
6:32.428   141274,(,0,0,0
6:32.467   141288,p,0,0,0
6:32.514   141305,),0,0,0
6:32.561   141322,(,0,0,1
6:32.589   141332,N,0,0,0
6:32.617   141342,),0,0,1
6:32.733   141384,(,0,0,2
6:32.811   141412,t,0,0,5
6:32.944   141460,t,0,0,5
6:33.033   141492,),0,0,2
6:34.986   142195,(,0,0,0
6:35.025   142209,p,0,0,0
6:35.075   142227,),0,0,0
6:35.131   142247,(,0,0,1
6:35.156   142256,N,0,0,0
6:35.178   142264,),0,0,1
6:35.269   142297,(,0,0,2
6:35.361   142330,t,0,0,5
6:35.492   142377,t,0,0,5
6:35.664   142439,),0,0,2
6:37.422   143072,(,0,0,0
6:37.461   143086,p,0,0,0
6:37.508   143103,),0,0,0
6:37.561   143122,(,0,0,1
6:37.586   143131,N,0,0,0
6:37.614   143141,),0,0,1
6:37.683   143166,(,0,0,2
6:37.789   143204,t,0,0,5
6:37.944   143260,t,0,0,5
6:37.983   143274,),0,0,2
6:38.269   143377,(,0,0,0
6:38.303   143389,p,0,0,0
6:38.344   143404,),0,0,0
6:38.392   143421,(,0,0,1
6:38.417   143430,N,0,0,0
6:38.442   143439,),0,0,1
6:38.492   143457,(,0,0,2
6:38.636   143509,t,0,0,5
6:38.928   143614,t,0,0,5
6:39.000   143640,),0,0,2
6:39.956   143984,(,0,0,0
6:40.006   144002,p,0,0,0
6:40.053   144019,),0,0,0
6:40.106   144038,(,0,0,1
6:40.131   144047,N,0,0,0
6:40.156   144056,),0,0,1
6:40.739   144266,(,0,0,0
6:40.778   144280,p,0,0,0
6:40.831   144299,),0,0,0
6:40.883   144318,(,0,0,1
6:40.908   144327,N,0,0,0
6:40.944   144340,),0,0,1
6:41.606   144578,(,0,0,0
6:41.667   144600,p,0,0,0
6:41.717   144618,),0,0,0
6:41.769   144637,(,0,0,1
6:41.792   144645,N,0,0,0
6:41.828   144658,),0,0,1
6:41.914   144689,(,0,0,2
6:41.942   144699,t,0,0,5
6:42.158   144777,t,0,0,5
6:42.222   144800,),0,0,2
6:43.214   145157,(,0,0,0
6:43.256   145172,p,0,0,0
6:43.303   145189,),0,0,0
6:43.350   145206,(,0,0,1
6:43.375   145215,N,0,0,0
6:43.400   145224,),0,0,1
6:43.978   145432,(,0,0,0
6:44.017   145446,p,0,0,0
6:44.061   145462,),0,0,0
6:44.114   145481,(,0,0,1
6:44.139   145490,N,0,0,0
6:44.178   145504,),0,0,1
6:44.219   145519,(,0,0,2
6:44.331   145559,t,0,0,5
6:44.469   145609,t,0,0,5
6:44.564   145643,),0,0,2
6:45.672   146042,(,0,0,0
6:45.714   146057,p,0,0,0
6:45.758   146073,),0,0,0
6:45.814   146093,(,0,0,1
6:45.839   146102,N,0,0,0
6:45.894   146122,),0,0,1
6:46.503   146341,(,0,0,0
6:46.542   146355,p,0,0,0
6:46.589   146372,),0,0,0
6:46.644   146392,(,0,0,1
6:46.669   146401,N,0,0,0
6:46.697   146411,),0,0,1
6:46.814   146453,(,0,0,2
6:46.878   146476,t,0,0,5
6:47.047   146537,t,0,0,5
6:47.142   146571,),0,0,2
6:47.383   146658,(,0,0,0
6:47.417   146670,p,0,0,0
6:47.461   146686,),0,0,0
6:47.511   146704,(,0,0,1
6:47.539   146714,N,0,0,0
6:47.567   146724,),0,0,1
6:48.150   146934,(,0,0,0
6:48.192   146949,p,0,0,0
6:48.236   146965,),0,0,0
6:48.289   146984,(,0,0,1
6:48.314   146993,N,0,0,0
6:48.339   147002,),0,0,1
6:48.394   147022,(,0,0,2
6:48.444   147040,t,0,0,5
6:48.719   147139,t,0,0,5
6:48.781   147161,),0,0,2
6:49.806   147530,(,0,0,0
6:49.850   147546,p,0,0,0
6:49.897   147563,),0,0,0
6:49.944   147580,(,0,0,1
6:49.969   147589,N,0,0,0
6:49.997   147599,),0,0,1
6:50.169   147661,(,0,0,2
6:50.250   147690,t,0,0,1
6:50.469   147769,),0,0,2
6:50.553   147799,(,0,0,0
6:50.594   147814,p,0,0,0
6:50.642   147831,),0,0,0
6:50.694   147850,(,0,0,1
6:50.722   147860,N,0,0,0
6:50.747   147869,),0,0,1
6:50.881   147917,(,0,0,2
6:50.917   147930,t,0,0,5
6:51.122   148004,t,0,0,5
6:51.194   148030,),0,0,2
6:51.386   148099,(,0,0,0
6:51.425   148113,p,0,0,0
6:51.472   148130,),0,0,0
6:51.528   148150,(,0,0,1
6:51.553   148159,N,0,0,0
6:51.581   148169,),0,0,1
6:51.708   148215,(,0,0,2
6:51.778   148240,t,0,0,5
6:51.931   148295,t,0,0,5
6:52.017   148326,),0,0,2
6:52.297   148427,(,0,0,0
6:52.333   148440,p,0,0,0
6:52.381   148457,),0,0,0
6:52.431   148475,(,0,0,1
6:52.461   148486,N,0,0,0
6:52.492   148497,),0,0,1
6:52.678   148564,(,0,0,2
6:52.794   148606,t,0,0,1
6:52.961   148666,),0,0,2
6:53.136   148729,(,0,0,0
6:53.175   148743,p,0,0,0
6:53.219   148759,),0,0,0
6:53.261   148774,(,0,0,1
6:53.294   148786,N,0,0,0
6:53.325   148797,),0,0,1
6:53.503   148861,(,0,0,2
6:53.719   148939,t,0,0,1
6:53.925   149013,),0,0,2
6:54.764   149315,(,0,0,0
6:54.794   149326,p,0,0,0
6:54.839   149342,),0,0,0
6:54.892   149361,(,0,0,1
6:54.917   149370,N,0,0,0
6:54.944   149380,),0,0,1
6:55.136   149449,(,0,0,2
6:55.222   149480,t,0,0,1
6:55.333   149520,),0,0,2
6:55.539   149594,(,0,0,0
6:55.578   149608,p,0,0,0
6:55.619   149623,),0,0,0
6:55.675   149643,(,0,0,1
6:55.700   149652,N,0,0,0
6:55.725   149661,),0,0,1
6:55.744   149668,(,0,0,2
6:55.897   149723,t,0,0,5
6:55.989   149756,t,0,0,5
6:56.011   149764,),0,0,2
6:56.281   149861,(,0,0,0
6:56.314   149873,p,0,0,0
6:56.353   149887,),0,0,0
6:56.397   149903,(,0,0,1
6:56.419   149911,N,0,0,0
6:56.456   149924,),0,0,1
6:56.464   149927,(,0,0,2
6:56.608   149979,t,0,0,5
6:56.853   150067,t,0,0,5
6:56.900   150084,),0,0,2
6:57.169   150181,(,0,0,0
6:57.208   150195,p,0,0,0
6:57.256   150212,),0,0,0
6:57.311   150232,(,0,0,1
6:57.336   150241,N,0,0,0
6:57.364   150251,),0,0,1
6:57.569   150325,(,0,0,2
6:57.792   150405,t,0,0,1
6:57.986   150475,),0,0,2
6:58.878   150796,(,0,0,0
6:58.914   150809,p,0,0,0
6:58.958   150825,),0,0,0
6:59.011   150844,(,0,0,1
6:59.036   150853,N,0,0,0
6:59.064   150863,),0,0,1
6:59.083   150870,(,0,0,2
6:59.161   150898,t,0,0,5
6:59.369   150973,t,0,0,5
6:59.503   151021,),0,0,2
6:59.647   151073,(,0,0,0
6:59.683   151086,p,0,0,0
6:59.728   151102,),0,0,0
6:59.781   151121,(,0,0,1
6:59.808   151131,N,0,0,0
6:59.839   151142,),0,0,1
6:59.892   151161,(,0,0,2
7:00.011   151204,t,0,0,5
7:00.142   151251,t,0,0,5
7:00.281   151301,),0,0,2
7:00.464   151367,(,0,0,0
7:00.500   151380,p,0,0,0
7:00.544   151396,),0,0,0
7:00.597   151415,(,0,0,1
7:00.622   151424,N,0,0,0
7:00.656   151436,),0,0,1
7:00.844   151504,(,0,0,2
7:00.981   151553,t,0,0,1
7:01.061   151582,),0,0,2
7:01.267   151656,(,0,0,0
7:01.303   151669,p,0,0,0
7:01.344   151684,),0,0,0
7:01.392   151701,(,0,0,1
7:01.425   151713,N,0,0,0
7:01.456   151724,),0,0,1
7:01.458   151725,(,0,0,2
7:01.575   151767,t,0,0,5
7:01.747   151829,t,0,0,5
7:01.867   151872,),0,0,2
7:02.011   151924,(,0,0,0
7:02.044   151936,p,0,0,0
7:02.086   151951,),0,0,0
7:02.142   151971,(,0,0,1
7:02.164   151979,N,0,0,0
7:02.194   151990,),0,0,1
7:02.253   152011,(,0,0,2
7:02.361   152050,t,0,0,5
7:02.497   152099,t,0,0,5
7:02.642   152151,),0,0,2
7:02.908   152247,(,0,0,0
7:02.947   152261,p,0,0,0
7:03.003   152281,),0,0,0
7:03.056   152300,(,0,0,1
7:03.081   152309,N,0,0,0
7:03.111   152320,),0,0,1
7:03.314   152393,(,0,0,2
7:03.425   152433,t,0,0,1
7:03.567   152484,),0,0,2
7:03.817   152574,(,0,0,0
7:03.861   152590,p,0,0,0
7:03.906   152606,),0,0,0
7:03.961   152626,(,0,0,1
7:03.986   152635,N,0,0,0
7:04.022   152648,),0,0,1
7:04.131   152687,(,0,0,2
7:04.156   152696,t,0,0,5
7:04.272   152738,t,0,0,5
7:04.394   152782,),0,0,2
7:05.522   153188,(,0,0,0
7:05.564   153203,p,0,0,0
7:05.608   153219,),0,0,0
7:05.664   153239,(,0,0,1
7:05.694   153250,N,0,0,0
7:05.722   153260,),0,0,1
7:05.853   153307,(,0,0,2
7:05.900   153324,t,0,0,5
7:06.044   153376,t,0,0,5
7:06.186   153427,),0,0,2
7:08.128   154126,(,0,0,0
7:08.136   154129,p,0,0,0
7:08.178   154144,),0,0,0
7:08.233   154164,(,0,0,1
7:08.258   154173,N,0,0,0
7:08.289   154184,),0,0,1
7:08.311   154192,(,0,0,2
7:08.378   154216,t,0,0,5
7:08.547   154277,t,0,0,5
7:08.647   154313,),0,0,2
7:08.950   154422,(,0,0,0
7:08.981   154433,p,0,0,0
7:09.028   154450,),0,0,0
7:09.089   154472,(,0,0,1
7:09.111   154480,N,0,0,0
7:09.142   154491,),0,0,1
7:09.356   154568,(,0,0,2
7:09.547   154637,t,0,0,1
7:09.675   154683,),0,0,2
7:10.692   155049,(,0,0,0
7:10.728   155062,p,0,0,0
7:10.772   155078,),0,0,0
7:10.833   155100,(,0,0,1
7:10.856   155108,N,0,0,0
7:10.889   155120,),0,0,1
7:11.450   155322,(,0,0,0
7:11.486   155335,p,0,0,0
7:11.531   155351,),0,0,0
7:11.592   155373,(,0,0,1
7:11.617   155382,N,0,0,0
7:11.647   155393,),0,0,1
7:11.722   155420,(,0,0,2
7:11.822   155456,t,0,0,5
7:11.925   155493,t,0,0,5
7:12.033   155532,),0,0,2
7:12.389   155660,(,0,0,0
7:12.422   155672,p,0,0,0
7:12.467   155688,),0,0,0
7:12.522   155708,(,0,0,1
7:12.547   155717,N,0,0,0
7:12.572   155726,),0,0,1
7:12.586   155731,(,0,0,2
7:12.756   155792,t,0,0,5
7:12.886   155839,t,0,0,5
7:13.033   155892,),0,0,2
7:14.122   156284,(,0,0,0
7:14.158   156297,p,0,0,0
7:14.200   156312,),0,0,0
7:14.242   156327,(,0,0,1
7:14.275   156339,N,0,0,0
7:14.306   156350,),0,0,1
7:14.392   156381,(,0,0,2
7:14.428   156394,t,0,0,5
7:14.561   156442,t,0,0,5
7:14.717   156498,),0,0,2
7:14.994   156598,(,0,0,0
7:15.031   156611,p,0,0,0
7:15.078   156628,),0,0,0
7:15.136   156649,(,0,0,1
7:15.158   156657,N,0,0,0
7:15.189   156668,),0,0,1
7:15.211   156676,(,0,0,2
7:15.314   156713,t,0,0,5
7:15.653   156835,t,0,0,5
7:15.689   156848,),0,0,2
7:16.789   157244,(,0,0,0
7:16.822   157256,p,0,0,0
7:16.869   157273,),0,0,0
7:16.925   157293,(,0,0,1
7:16.950   157302,N,0,0,0
7:16.986   157315,),0,0,1
7:17.000   157320,(,0,0,2
7:17.075   157347,t,0,0,5
7:17.264   157415,t,0,0,5
7:17.411   157468,),0,0,2
7:17.631   157547,(,0,0,0
7:17.667   157560,p,0,0,0
7:17.711   157576,),0,0,0
7:17.761   157594,(,0,0,1
7:17.792   157605,N,0,0,0
7:17.819   157615,),0,0,1
7:17.836   157621,(,0,0,2
7:17.917   157650,t,0,0,5
7:18.139   157730,t,0,0,5
7:18.206   157754,),0,0,2
7:19.261   158134,(,0,0,0
7:19.303   158149,p,0,0,0
7:19.347   158165,),0,0,0
7:19.392   158181,(,0,0,1
7:19.422   158192,N,0,0,0
7:19.453   158203,),0,0,1
7:19.464   158207,(,0,0,2
7:19.622   158264,t,0,0,5
7:19.736   158305,t,0,0,5
7:19.844   158344,),0,0,2
7:20.003   158401,(,0,0,0
7:20.036   158413,p,0,0,0
7:20.078   158428,),0,0,0
7:20.128   158446,(,0,0,1
7:20.156   158456,N,0,0,0
7:20.183   158466,),0,0,1
7:20.283   158502,(,0,0,2
7:20.350   158526,t,0,0,5
7:20.678   158644,t,0,0,5
7:20.758   158673,),0,0,2
7:21.764   159035,(,0,0,0
7:21.806   159050,p,0,0,0
7:21.847   159065,),0,0,0
7:21.953   159103,(,0,0,1
7:21.978   159112,N,0,0,0
7:22.008   159123,),0,0,1
7:22.219   159199,(,0,0,2
7:22.319   159235,t,0,0,1
7:22.394   159262,),0,0,2
7:23.514   159665,(,0,0,0
7:23.553   159679,p,0,0,0
7:23.603   159697,),0,0,0
7:23.656   159716,(,0,0,1
7:23.683   159726,N,0,0,0
7:23.717   159738,),0,0,1
7:23.767   159756,(,0,0,2
7:23.844   159784,t,0,0,5
7:24.039   159854,t,0,0,5
7:24.078   159868,),0,0,2
7:24.281   159941,(,0,0,0
7:24.314   159953,p,0,0,0
7:24.358   159969,),0,0,0
7:24.419   159991,(,0,0,1
7:24.442   159999,N,0,0,0
7:24.489   160016,),0,0,1
7:24.600   160056,(,0,0,2
7:24.658   160077,t,0,0,5
7:24.769   160117,t,0,0,5
7:24.825   160137,),0,0,2
7:25.883   160518,(,0,0,0
7:25.928   160534,p,0,0,0
7:25.972   160550,),0,0,0
7:26.025   160569,(,0,0,1
7:26.047   160577,N,0,0,0
7:26.103   160597,),0,0,1
7:26.167   160620,(,0,0,2
7:26.242   160647,t,0,0,5
7:26.392   160701,t,0,0,5
7:26.425   160713,),0,0,2
7:26.756   160832,(,0,0,0
7:26.792   160845,p,0,0,0
7:26.836   160861,),0,0,0
7:26.889   160880,(,0,0,1
7:26.917   160890,N,0,0,0
7:26.953   160903,),0,0,1
7:27.067   160944,(,0,0,2
7:27.142   160971,t,0,0,5
7:27.506   161102,t,0,0,5
7:27.586   161131,),0,0,2
7:28.489   161456,(,0,0,0
7:28.528   161470,p,0,0,0
7:28.572   161486,),0,0,0
7:28.622   161504,(,0,0,1
7:28.653   161515,N,0,0,0
7:28.683   161526,),0,0,1
7:28.886   161599,(,0,0,2
7:29.094   161674,t,0,0,1
7:29.292   161745,),0,0,2
7:30.894   162322,(,0,0,0
7:30.931   162335,p,0,0,0
7:30.972   162350,),0,0,0
7:31.022   162368,(,0,0,1
7:31.050   162378,N,0,0,0
7:31.083   162390,),0,0,1
7:31.161   162418,(,0,0,2
7:31.256   162452,t,0,0,5
7:31.433   162516,t,0,0,5
7:31.508   162543,),0,0,2
7:32.472   162890,(,0,0,0
7:32.511   162904,p,0,0,0
7:32.556   162920,),0,0,0
7:32.606   162938,(,0,0,1
7:32.636   162949,N,0,0,0
7:32.658   162957,),0,0,1
7:32.811   163012,(,0,0,2
7:32.853   163027,t,0,0,5
7:32.983   163074,t,0,0,5
7:33.094   163114,),0,0,2
7:33.250   163170,(,0,0,0
7:33.283   163182,p,0,0,0
7:33.331   163199,),0,0,0
7:33.389   163220,(,0,0,1
7:33.417   163230,N,0,0,0
7:33.450   163242,),0,0,1
7:33.567   163284,(,0,0,2
7:33.636   163309,t,0,0,5
7:33.786   163363,t,0,0,5
7:33.858   163389,),0,0,2
7:34.972   163790,(,0,0,0
7:35.008   163803,p,0,0,0
7:35.053   163819,),0,0,0
7:35.106   163838,(,0,0,1
7:35.131   163847,N,0,0,0
7:35.158   163857,),0,0,1
7:36.622   164384,(,0,0,0
7:36.661   164398,p,0,0,0
7:36.706   164414,),0,0,0
7:36.753   164431,(,0,0,1
7:36.781   164441,N,0,0,0
7:36.836   164461,),0,0,1
7:36.933   164496,(,0,0,2
7:36.986   164515,t,0,0,5
7:37.144   164572,t,0,0,5
7:37.217   164598,),0,0,2
7:39.878   165556,(,0,0,0
7:39.917   165570,p,0,0,0
7:39.961   165586,),0,0,0
7:40.019   165607,(,0,0,1
7:40.044   165616,N,0,0,0
7:40.075   165627,),0,0,1
7:40.217   165678,(,0,0,2
7:40.269   165697,t,0,0,5
7:40.408   165747,t,0,0,5
7:40.489   165776,),0,0,2
7:40.681   165845,(,0,0,0
7:40.714   165857,p,0,0,0
7:40.758   165873,),0,0,0
7:40.819   165895,(,0,0,1
7:40.844   165904,N,0,0,0
7:40.875   165915,),0,0,1
7:40.981   165953,(,0,0,2
7:41.025   165969,t,0,0,5
7:41.169   166021,t,0,0,5
7:41.394   166102,),0,0,2
7:41.583   166170,(,0,0,0
7:41.617   166182,p,0,0,0
7:41.664   166199,),0,0,0
7:41.717   166218,(,0,0,1
7:41.739   166226,N,0,0,0
7:41.769   166237,),0,0,1
7:41.964   166307,(,0,0,2
7:42.092   166353,t,0,0,1
7:42.364   166451,),0,0,2
7:43.969   167029,(,0,0,0
7:44.008   167043,p,0,0,0
7:44.050   167058,),0,0,0
7:44.100   167076,(,0,0,1
7:44.125   167085,N,0,0,0
7:44.150   167094,),0,0,1
7:44.256   167132,(,0,0,2
7:44.325   167157,t,0,0,5
7:44.472   167210,t,0,0,5
7:44.500   167220,),0,0,2
7:45.639   167630,(,0,0,0
7:45.681   167645,p,0,0,0
7:45.728   167662,),0,0,0
7:45.783   167682,(,0,0,1
7:45.811   167692,N,0,0,0
7:45.847   167705,),0,0,1
7:45.989   167756,(,0,0,2
7:46.042   167775,t,0,0,5
7:46.306   167870,t,0,0,5
7:46.367   167892,),0,0,2
7:46.644   167992,(,0,0,0
7:46.678   168004,p,0,0,0
7:46.725   168021,),0,0,0
7:46.783   168042,(,0,0,1
7:46.806   168050,N,0,0,0
7:46.836   168061,),0,0,1
7:47.042   168135,(,0,0,2
7:47.175   168183,t,0,0,1
7:47.292   168225,),0,0,2
7:49.136   168889,(,0,0,0
7:49.172   168902,p,0,0,0
7:49.214   168917,),0,0,0
7:49.269   168937,(,0,0,1
7:49.294   168946,N,0,0,0
7:49.322   168956,),0,0,1
7:49.867   169152,(,0,0,0
7:49.900   169164,p,0,0,0
7:49.944   169180,),0,0,0
7:50.000   169200,(,0,0,1
7:50.025   169209,N,0,0,0
7:50.050   169218,),0,0,1
7:50.131   169247,(,0,0,2
7:50.211   169276,t,0,0,5
7:50.358   169329,t,0,0,5
7:50.397   169343,),0,0,2
7:51.561   169762,(,0,0,0
7:51.603   169777,p,0,0,0
7:51.650   169794,),0,0,0
7:51.703   169813,(,0,0,1
7:51.733   169824,N,0,0,0
7:51.767   169836,),0,0,1
7:51.850   169866,(,0,0,2
7:51.936   169897,t,0,0,5
7:52.069   169945,t,0,0,5
7:52.139   169970,),0,0,2
7:52.494   170098,(,0,0,0
7:52.531   170111,p,0,0,0
7:52.575   170127,),0,0,0
7:52.639   170150,(,0,0,1
7:52.661   170158,N,0,0,0
7:52.697   170171,),0,0,1
7:52.806   170210,(,0,0,2
7:52.836   170221,t,0,0,5
7:53.011   170284,t,0,0,5
7:53.044   170296,),0,0,2
7:54.128   170686,(,0,0,0
7:54.167   170700,p,0,0,0
7:54.211   170716,),0,0,0
7:54.267   170736,(,0,0,1
7:54.292   170745,N,0,0,0
7:54.322   170756,),0,0,1
7:54.389   170780,(,0,0,2
7:54.431   170795,t,0,0,5
7:54.625   170865,t,0,0,5
7:54.675   170883,),0,0,2
7:54.936   170977,(,0,0,0
7:54.972   170990,p,0,0,0
7:55.017   171006,),0,0,0
7:55.067   171024,(,0,0,1
7:55.097   171035,N,0,0,0
7:55.125   171045,),0,0,1
7:55.186   171067,(,0,0,2
7:55.294   171106,t,0,0,5
7:55.467   171168,t,0,0,5
7:55.506   171182,),0,0,2
7:56.528   171550,(,0,0,0
7:56.564   171563,p,0,0,0
7:56.608   171579,),0,0,0
7:56.664   171599,(,0,0,1
7:56.692   171609,N,0,0,0
7:56.719   171619,),0,0,1
7:56.733   171624,(,0,0,2
7:56.911   171688,t,0,0,5
7:57.014   171725,t,0,0,5
7:57.081   171749,),0,0,2
7:58.256   172172,(,0,0,0
7:58.292   172185,p,0,0,0
7:58.342   172203,),0,0,0
7:58.397   172223,(,0,0,1
7:58.419   172231,N,0,0,0
7:58.450   172242,),0,0,1
7:58.536   172273,(,0,0,2
7:58.619   172303,t,0,0,5
7:58.731   172343,t,0,0,5
7:58.861   172390,),0,0,2
7:59.017   172446,(,0,0,0
7:59.050   172458,p,0,0,0
7:59.094   172474,),0,0,0
7:59.150   172494,(,0,0,1
7:59.178   172504,N,0,0,0
7:59.214   172517,),0,0,1
7:59.300   172548,(,0,0,2
7:59.383   172578,t,0,0,5
7:59.736   172705,t,0,0,5
7:59.761   172714,),0,0,2
8:00.669   173041,(,0,0,0
8:00.706   173054,p,0,0,0
8:00.753   173071,),0,0,0
8:00.800   173088,(,0,0,1
8:00.828   173098,N,0,0,0
8:00.864   173111,),0,0,1
8:00.964   173147,(,0,0,2
8:01.033   173172,t,0,0,5
8:01.147   173213,t,0,0,5
8:01.269   173257,),0,0,2
8:03.047   173897,(,0,0,0
8:03.081   173909,p,0,0,0
8:03.128   173926,),0,0,0
8:03.183   173946,(,0,0,1
8:03.208   173955,N,0,0,0
8:03.239   173966,),0,0,1
8:03.444   174040,(,0,0,2
8:03.561   174082,t,0,0,1
8:03.661   174118,),0,0,2
8:05.558   174801,(,0,0,0
8:05.594   174814,p,0,0,0
8:05.639   174830,),0,0,0
8:05.683   174846,(,0,0,1
8:05.714   174857,N,0,0,0
8:05.747   174869,),0,0,1
8:05.867   174912,(,0,0,2
8:05.925   174933,t,0,0,5
8:06.089   174992,t,0,0,5
8:06.133   175008,),0,0,2
8:07.878   175636,(,0,0,0
8:07.911   175648,p,0,0,0
8:07.956   175664,),0,0,0
8:08.011   175684,(,0,0,1
8:08.033   175692,N,0,0,0
8:08.064   175703,),0,0,1
8:08.094   175714,(,0,0,2
8:08.233   175764,t,0,0,5
8:08.411   175828,t,0,0,5
8:08.458   175845,),0,0,2
8:09.547   176237,(,0,0,0
8:09.583   176250,p,0,0,0
8:09.631   176267,),0,0,0
8:09.681   176285,(,0,0,1
8:09.706   176294,N,0,0,0
8:09.736   176305,),0,0,1
8:09.881   176357,(,0,0,2
8:09.911   176368,t,0,0,5
8:10.089   176432,t,0,0,5
8:10.239   176486,),0,0,2
8:10.367   176532,(,0,0,0
8:10.403   176545,p,0,0,0
8:10.450   176562,),0,0,0
8:10.500   176580,(,0,0,1
8:10.531   176591,N,0,0,0
8:10.564   176603,),0,0,1
8:10.569   176605,(,0,0,2
8:10.750   176670,t,0,0,5
8:10.947   176741,t,0,0,5
8:10.992   176757,),0,0,2
8:11.925   177093,(,0,0,0
8:11.958   177105,p,0,0,0
8:12.003   177121,),0,0,0
8:12.053   177139,(,0,0,1
8:12.083   177150,N,0,0,0
8:12.114   177161,),0,0,1
8:12.242   177207,(,0,0,2
8:12.289   177224,t,0,0,5
8:12.422   177272,t,0,0,5
8:12.519   177307,),0,0,2
8:15.847   178505,(,0,0,0
8:15.883   178518,p,0,0,0
8:15.931   178535,),0,0,0
8:15.986   178555,(,0,0,1
8:16.017   178566,N,0,0,0
8:16.047   178577,),0,0,1
8:16.067   178584,(,0,0,2
8:16.239   178646,t,0,0,5
8:16.383   178698,t,0,0,5
8:16.572   178766,),0,0,2
8:53.536   192073,(,0,0,0
8:53.578   192088,p,0,0,0
8:53.639   192110,),0,0,0
8:53.744   192148,(,0,0,1
8:53.783   192162,N,0,0,0
8:53.819   192175,),0,0,1
8:53.972   192230,(,0,0,2
8:54.031   192251,t,0,0,1
8:54.106   192278,),0,0,2
8:57.961   193666,(,0,0,0
8:58.014   193685,p,0,0,0
8:58.100   193716,),0,0,0
8:58.128   193726,(,0,0,1
8:58.156   193736,N,0,0,0
8:58.189   193748,),0,0,1
8:58.350   193806,(,0,0,2
8:58.406   193826,t,0,0,1
8:58.511   193864,),0,0,2
9:00.906   194726,(,0,0,0
9:00.936   194737,p,0,0,0
9:01.014   194765,),0,0,0
9:01.117   194802,(,0,0,1
9:01.158   194817,N,0,0,0
9:01.192   194829,),0,0,1
9:01.336   194881,(,0,0,2
9:01.417   194910,t,0,0,1
9:01.528   194950,),0,0,2
9:03.389   195620,(,0,0,0
9:03.431   195635,p,0,0,0
9:03.506   195662,),0,0,0
9:03.617   195702,(,0,0,1
9:03.644   195712,N,0,0,0
9:03.675   195723,),0,0,1
9:03.906   195806,(,0,0,2
9:03.992   195837,t,0,0,4
9:04.117   195882,t,0,0,4
9:04.156   195896,),0,0,2
9:06.397   196703,(,0,0,0
9:06.517   196746,p,0,0,0
9:06.564   196763,),0,0,0
9:06.694   196810,(,0,0,1
9:06.722   196820,N,0,0,0
9:06.786   196843,),0,0,1
9:06.933   196896,(,0,0,2
9:07.006   196922,t,0,0,4
9:07.144   196972,t,0,0,4
9:07.183   196986,),0,0,2
9:07.983   197274,(,0,0,0
9:08.028   197290,p,0,0,0
9:08.131   197327,),0,0,0
9:08.133   197328,(,0,0,1
9:08.200   197352,N,0,0,0
9:08.222   197360,),0,0,1
9:08.336   197401,(,0,0,2
9:08.406   197426,t,0,0,5
9:08.736   197545,t,0,0,5
9:08.758   197553,),0,0,2
9:09.261   197734,(,0,0,1
9:09.300   197748,N,0,0,0
9:09.328   197758,),0,0,1
9:10.400   198144,(,0,0,1
9:10.425   198153,N,0,0,0
9:10.475   198171,),0,0,1
9:10.508   198183,(,0,0,2
9:10.561   198202,t,0,0,0
9:10.608   198219,),0,0,2
9:14.322   199556,(,0,0,0
9:14.408   199587,p,0,0,0
9:14.472   199610,),0,0,0
9:14.531   199631,(,0,0,1
9:14.542   199635,N,0,0,0
9:14.561   199642,),0,0,1
9:15.228   199882,(,0,0,2
9:15.275   199899,t,0,0,0
9:15.331   199919,),0,0,2
9:16.072   200186,(,0,0,0
9:16.108   200199,p,0,0,0
9:16.156   200216,),0,0,0
9:16.217   200238,(,0,0,1
9:16.231   200243,N,0,0,0
9:16.247   200249,),0,0,1
9:16.928   200494,(,0,0,2
9:16.975   200511,t,0,0,0
9:17.025   200529,),0,0,2
9:17.667   200760,(,0,0,0
9:17.703   200773,p,0,0,0
9:17.750   200790,),0,0,0
9:17.817   200814,(,0,0,1
9:17.831   200819,N,0,0,0
9:17.850   200826,),0,0,1
9:18.497   201059,(,0,0,2
9:18.539   201074,t,0,0,5
9:18.606   201098,t,0,0,5
9:18.661   201118,),0,0,2
9:19.242   201327,(,0,0,0
9:19.278   201340,p,0,0,0
9:19.319   201355,),0,0,0
9:19.364   201371,(,0,0,1
9:19.400   201384,N,0,0,0
9:19.417   201390,),0,0,1
9:19.658   201477,(,0,0,0
9:19.689   201488,p,0,0,0
9:19.744   201508,),0,0,0
9:19.822   201536,(,0,0,1
9:19.861   201550,N,0,0,0
9:19.878   201556,),0,0,1
9:20.003   201601,(,0,0,2
9:20.050   201618,t,0,0,5
9:20.181   201665,t,0,0,5
9:20.211   201676,),0,0,2
9:21.808   202251,(,0,0,0
9:21.842   202263,p,0,0,0
9:21.883   202278,),0,0,0
9:21.919   202291,(,0,0,1
9:22.053   202339,N,0,0,0
9:22.111   202360,),0,0,1
9:22.189   202388,(,0,0,2
9:22.256   202412,t,0,0,5
9:22.403   202465,t,0,0,5
9:22.506   202502,),0,0,2
9:23.778   202960,(,0,0,0
9:23.811   202972,p,0,0,0
9:23.856   202988,),0,0,0
9:23.914   203009,(,0,0,1
9:23.931   203015,N,0,0,0
9:23.947   203021,),0,0,1
9:24.103   203077,(,0,0,2
9:24.139   203090,t,0,0,5
9:24.267   203136,t,0,0,5
9:24.386   203179,),0,0,2
9:24.633   203268,(,0,0,0
9:24.683   203286,p,0,0,0
9:24.728   203302,),0,0,0
9:24.789   203324,(,0,0,1
9:24.800   203328,N,0,0,0
9:24.822   203336,),0,0,1
9:24.900   203364,(,0,0,2
9:24.958   203385,t,0,0,5
9:25.103   203437,t,0,0,5
9:25.197   203471,),0,0,2
9:25.364   203531,(,0,0,0
9:25.397   203543,p,0,0,0
9:25.439   203558,),0,0,0
9:25.486   203575,(,0,0,1
9:25.519   203587,N,0,0,0
9:25.536   203593,),0,0,1
9:26.194   203830,(,0,0,2
9:26.242   203847,t,0,0,4
9:26.306   203870,t,0,0,4
9:26.333   203880,),0,0,2
9:26.867   204072,(,0,0,0
9:26.906   204086,p,0,0,0
9:26.953   204103,),0,0,0
9:27.017   204126,(,0,0,1
9:27.033   204132,N,0,0,0
9:27.056   204140,),0,0,1
9:27.197   204191,(,0,0,2
9:27.250   204210,t,0,0,5
9:27.364   204251,t,0,0,5
9:27.408   204267,),0,0,2
9:28.689   204728,(,0,0,0
9:28.769   204757,p,0,0,0
9:28.861   204790,),0,0,0
9:28.900   204804,(,0,0,1
9:28.942   204819,N,0,0,0
9:28.956   204824,),0,0,1
9:29.031   204851,(,0,0,2
9:29.108   204879,t,0,0,5
9:29.225   204921,t,0,0,5
9:29.294   204946,),0,0,2
9:29.844   205144,(,0,0,0
9:29.875   205155,p,0,0,0
9:29.919   205171,),0,0,0
9:29.989   205196,(,0,0,1
9:30.003   205201,N,0,0,0
9:30.019   205207,),0,0,1
9:30.247   205289,(,0,0,2
9:30.333   205320,t,0,0,4
9:30.458   205365,t,0,0,4
9:30.494   205378,),0,0,2
9:32.161   205978,(,0,0,0
9:32.233   206004,p,0,0,0
9:32.333   206040,),0,0,0
9:32.372   206054,(,0,0,1
9:32.383   206058,N,0,0,0
9:32.400   206064,),0,0,1
9:32.814   206213,(,0,0,2
9:32.844   206224,t,0,0,0
9:32.892   206241,),0,0,2
9:33.536   206473,(,0,0,0
9:33.567   206484,p,0,0,0
9:33.617   206502,),0,0,0
9:33.667   206520,(,0,0,1
9:33.681   206525,N,0,0,0
9:33.700   206532,),0,0,1
9:35.961   207346,(,0,0,0
9:36.000   207360,p,0,0,0
9:36.039   207374,),0,0,0
9:36.122   207404,(,0,0,1
9:36.136   207409,N,0,0,0
9:36.242   207447,),0,0,1
9:36.686   207607,(,0,0,2
9:36.711   207616,t,0,0,0
9:36.739   207626,),0,0,2
9:40.089   208832,(,0,0,0
9:40.139   208850,p,0,0,0
9:40.233   208884,),0,0,0
9:40.261   208894,(,0,0,1
9:40.289   208904,N,0,0,0
9:40.311   208912,),0,0,1
9:40.472   208970,(,0,0,2
9:40.528   208990,t,0,0,4
9:40.797   209087,t,0,0,4
9:40.828   209098,),0,0,2
9:41.514   209345,(,0,0,0
9:41.556   209360,p,0,0,0
9:41.597   209375,),0,0,0
9:41.694   209410,(,0,0,1
9:41.719   209419,N,0,0,0
9:41.742   209427,),0,0,1
9:42.231   209603,(,0,0,2
9:42.256   209612,t,0,0,0
9:42.289   209624,),0,0,2
9:42.969   209869,(,0,0,0
9:43.014   209885,p,0,0,0
9:43.061   209902,),0,0,0
9:43.117   209922,(,0,0,1
9:43.158   209937,N,0,0,0
9:43.172   209942,),0,0,1
9:43.433   210036,(,0,0,2
9:43.494   210058,t,0,0,4
9:43.647   210113,t,0,0,4
9:43.681   210125,),0,0,2
9:47.908   211647,(,0,0,0
9:47.942   211659,p,0,0,0
9:47.994   211678,),0,0,0
9:48.067   211704,(,0,0,1
9:48.083   211710,N,0,0,0
9:48.100   211716,),0,0,1
9:48.125   211725,(,0,0,2
9:48.214   211757,t,0,0,5
9:48.411   211828,t,0,0,5
9:48.572   211886,),0,0,2
9:52.122   213164,(,0,0,0
9:52.156   213176,p,0,0,0
9:52.203   213193,),0,0,0
9:52.261   213214,(,0,0,1
9:52.286   213223,N,0,0,0
9:52.306   213230,),0,0,1
9:52.397   213263,(,0,0,2
9:52.508   213303,t,0,0,5
9:52.650   213354,t,0,0,5
9:52.761   213394,),0,0,2
9:52.964   213467,(,0,0,0
9:53.003   213481,p,0,0,0
9:53.050   213498,),0,0,0
9:53.117   213522,(,0,0,1
9:53.131   213527,N,0,0,0
9:53.147   213533,),0,0,1
9:53.836   213781,(,0,0,2
9:53.900   213804,t,0,0,1
9:53.950   213822,),0,0,2
9:54.628   214066,(,0,0,0
9:54.664   214079,p,0,0,0
9:54.708   214095,),0,0,0
9:54.772   214118,(,0,0,1
9:54.783   214122,N,0,0,0
9:54.803   214129,),0,0,1
9:55.497   214379,(,0,0,2
9:55.547   214397,t,0,0,1
9:55.608   214419,),0,0,2
9:59.553   215839,(,0,0,0
9:59.589   215852,p,0,0,0
9:59.636   215869,),0,0,0
9:59.700   215892,(,0,0,1
9:59.717   215898,N,0,0,0
9:59.736   215905,),0,0,1
   10:00.425   216153,(,0,0,2
   10:00.467   216168,t,0,0,0
   10:00.519   216187,),0,0,2
   10:01.000   216360,(,0,0,0
   10:01.028   216370,p,0,0,0
   10:01.092   216393,),0,0,0
   10:01.175   216423,(,0,0,1
   10:01.325   216477,N,0,0,0
   10:01.375   216495,),0,0,1
   10:01.544   216556,(,0,0,2
   10:01.600   216576,t,0,0,1
   10:01.817   216654,),0,0,2
   10:01.964   216707,(,0,0,0
   10:02.000   216720,p,0,0,0
   10:02.042   216735,),0,0,0
   10:02.094   216754,(,0,0,1
   10:02.119   216763,N,0,0,0
   10:02.136   216769,),0,0,1
   10:02.797   217007,(,0,0,2
   10:02.847   217025,t,0,0,0
   10:02.897   217043,),0,0,2
   10:03.667   217320,(,0,0,0
   10:03.703   217333,p,0,0,0
   10:03.753   217351,),0,0,0
   10:03.797   217367,(,0,0,1
   10:03.831   217379,N,0,0,0
   10:03.850   217386,),0,0,1
   10:04.064   217463,(,0,0,2
   10:04.153   217495,t,0,0,1
   10:04.364   217571,),0,0,2
   10:04.525   217629,(,0,0,0
   10:04.567   217644,p,0,0,0
   10:04.614   217661,),0,0,0
   10:04.681   217685,(,0,0,1
   10:04.697   217691,N,0,0,0
   10:04.714   217697,),0,0,1
   10:04.811   217732,(,0,0,2
   10:04.847   217745,t,0,0,5
   10:04.989   217796,t,0,0,5
   10:05.078   217828,),0,0,2
   10:05.319   217915,(,0,0,0
   10:05.353   217927,p,0,0,0
   10:05.394   217942,),0,0,0
   10:05.461   217966,(,0,0,1
   10:05.475   217971,N,0,0,0
   10:05.497   217979,),0,0,1
   10:06.175   218223,(,0,0,2
   10:06.217   218238,t,0,0,0
   10:06.275   218259,),0,0,2
   10:07.011   218524,(,0,0,0
   10:07.047   218537,p,0,0,0
   10:07.089   218552,),0,0,0
   10:07.150   218574,(,0,0,1
   10:07.164   218579,N,0,0,0
   10:07.181   218585,),0,0,1
   10:07.869   218833,(,0,0,2
   10:07.897   218843,t,0,0,0
   10:07.931   218855,),0,0,2
   10:09.472   219410,(,0,0,0
   10:09.506   219422,p,0,0,0
   10:09.550   219438,),0,0,0
   10:09.594   219454,(,0,0,1
   10:09.631   219467,N,0,0,0
   10:09.647   219473,),0,0,1
   10:09.661   219478,(,0,0,2
   10:09.772   219518,t,0,0,5
   10:09.925   219573,t,0,0,5
   10:10.086   219631,),0,0,2
   10:10.233   219684,(,0,0,0
   10:10.269   219697,p,0,0,0
   10:10.317   219714,),0,0,0
   10:10.383   219738,(,0,0,1
   10:10.400   219744,N,0,0,0
   10:10.417   219750,),0,0,1
   10:13.306   220790,(,0,0,0
   10:13.342   220803,p,0,0,0
   10:13.389   220820,),0,0,0
   10:13.458   220845,(,0,0,1
   10:13.472   220850,N,0,0,0
   10:13.492   220857,),0,0,1
   10:13.681   220925,(,0,0,2
   10:13.792   220965,t,0,0,1
   10:13.964   221027,),0,0,2
   10:15.103   221437,(,0,0,0
   10:15.133   221448,p,0,0,0
   10:15.175   221463,),0,0,0
   10:15.247   221489,(,0,0,1
   10:15.261   221494,N,0,0,0
   10:15.281   221501,),0,0,1
   10:15.481   221573,(,0,0,2
   10:15.756   221672,t,0,0,1
   10:16.072   221786,),0,0,2
   10:20.072   223226,(,0,0,0
   10:20.153   223255,p,0,0,0
   10:20.244   223288,),0,0,0
   10:20.319   223315,(,0,0,1
   10:20.372   223334,N,0,0,0
   10:20.394   223342,),0,0,1
   10:20.842   223503,(,0,0,2
   10:20.869   223513,t,0,0,0
   10:20.900   223524,),0,0,2
   10:22.236   224005,(,0,0,0
   10:22.269   224017,p,0,0,0
   10:22.342   224043,),0,0,0
   10:22.497   224099,(,0,0,1
   10:22.539   224114,N,0,0,0
   10:22.558   224121,),0,0,1
   10:25.811   225292,(,0,0,0
   10:25.850   225306,p,0,0,0
   10:25.944   225340,),0,0,0
   10:25.992   225357,(,0,0,1
   10:26.006   225362,N,0,0,0
   10:26.028   225370,),0,0,1
   10:26.567   225564,(,0,0,2
   10:26.597   225575,t,0,0,0
   10:26.628   225586,),0,0,2
   10:28.667   226320,(,0,0,0
   10:28.719   226339,p,0,0,0
   10:28.758   226353,),0,0,0
   10:28.903   226405,(,0,0,1
   10:28.931   226415,N,0,0,0
   10:28.953   226423,),0,0,1
   10:29.172   226502,(,0,0,2
   10:29.239   226526,t,0,0,4
   10:29.486   226615,t,0,0,4
   10:29.508   226623,),0,0,2
   10:30.644   227032,(,0,0,0
   10:30.683   227046,p,0,0,0
   10:30.728   227062,),0,0,0
   10:30.800   227088,(,0,0,1
   10:30.839   227102,N,0,0,0
   10:30.856   227108,),0,0,1
   10:31.369   227293,(,0,0,2
   10:31.394   227302,t,0,0,5
   10:31.428   227314,t,0,0,5
   10:31.478   227332,),0,0,2
   10:34.578   228448,(,0,0,0
   10:34.622   228464,p,0,0,0
   10:34.669   228481,),0,0,0
   10:34.714   228497,(,0,0,1
   10:34.783   228522,N,0,0,0
   10:34.800   228528,),0,0,1
   10:35.067   228624,(,0,0,2
   10:35.131   228647,t,0,0,4
   10:35.364   228731,t,0,0,4
   10:35.389   228740,),0,0,2
   10:36.053   228979,(,0,0,0
   10:36.092   228993,p,0,0,0
   10:36.136   229009,),0,0,0
   10:36.192   229029,(,0,0,1
   10:36.206   229034,N,0,0,0
   10:36.308   229071,),0,0,1
   10:36.678   229204,(,0,0,2
   10:36.703   229213,t,0,0,0
   10:36.783   229242,),0,0,2
   10:44.139   231890,(,0,0,1
   10:44.156   231896,N,0,0,0
   10:44.306   231950,),0,0,1
   10:44.369   231973,(,0,0,2
   10:44.433   231996,t,0,0,1
   10:44.597   232055,),0,0,2
   10:48.050   233298,(,0,0,0
   10:48.086   233311,p,0,0,0
   10:48.136   233329,),0,0,0
   10:48.183   233346,(,0,0,1
   10:48.208   233355,N,0,0,0
   10:48.233   233364,),0,0,1
   10:48.422   233432,(,0,0,2
   10:48.492   233457,t,0,0,1
   10:48.531   233471,),0,0,2
   10:48.792   233565,(,0,0,1
   10:48.983   233634,N,0,0,0
   10:49.044   233656,),0,0,1
   10:49.194   233710,(,0,0,2
   10:49.267   233736,t,0,0,1
   10:49.417   233790,),0,0,2
   10:49.603   233857,(,0,0,0
   10:49.647   233873,p,0,0,0
   10:49.694   233890,),0,0,0
   10:49.739   233906,(,0,0,1
   10:49.764   233915,N,0,0,0
   10:49.783   233922,),0,0,1
   10:50.478   234172,(,0,0,2
   10:50.508   234183,t,0,0,0
   10:50.550   234198,),0,0,2
   10:53.644   235312,(,0,0,0
   10:53.708   235335,p,0,0,0
   10:53.744   235348,),0,0,0
   10:53.789   235364,(,0,0,1
   10:53.881   235397,N,0,0,0
   10:54.042   235455,),0,0,1
   10:54.044   235456,t,0,0,2
   10:54.242   235527,),0,0,2
   10:54.417   235590,(,0,0,1
   10:54.525   235629,N,0,0,0
   10:54.547   235637,),0,0,1
   10:54.731   235703,(,0,0,2
   10:54.844   235744,t,0,0,1
   10:54.889   235760,),0,0,2
   10:55.075   235827,(,0,0,0
   10:55.114   235841,p,0,0,0
   10:55.158   235857,),0,0,0
   10:55.211   235876,(,0,0,1
   10:55.236   235885,N,0,0,0
   10:55.258   235893,),0,0,1
   10:55.914   236129,(,0,0,2
   10:55.969   236149,t,0,0,0
   10:56.017   236166,),0,0,2
   10:57.500   236700,(,0,0,0
   10:57.536   236713,p,0,0,0
   10:57.583   236730,),0,0,0
   10:57.642   236751,(,0,0,1
   10:57.667   236760,N,0,0,0
   10:57.689   236768,),0,0,1
   10:57.756   236792,(,0,0,2
   10:57.808   236811,t,0,0,5
   10:58.167   236940,t,0,0,5
   10:58.194   236950,),0,0,2
   10:58.331   236999,(,0,0,0
   10:58.369   237013,p,0,0,0
   10:58.419   237031,),0,0,0
   10:58.483   237054,(,0,0,1
   10:58.522   237068,N,0,0,0
   10:58.525   237069,),0,0,1
   10:59.228   237322,(,0,0,2
   10:59.258   237333,t,0,0,0
   10:59.294   237346,),0,0,2
   11:00.708   237855,(,0,0,0
   11:00.747   237869,p,0,0,0
   11:00.797   237887,),0,0,0
   11:00.861   237910,(,0,0,1
   11:00.897   237923,N,0,0,0
   11:00.900   237924,),0,0,1
   11:01.608   238179,(,0,0,2
   11:01.639   238190,t,0,0,0
   11:01.675   238203,),0,0,2
   11:02.242   238407,(,0,0,0
   11:02.278   238420,p,0,0,0
   11:02.319   238435,),0,0,0
   11:02.367   238452,(,0,0,1
