Elapsedtime,sample,Type,Sub,Chan,Num
0:00.339,122,(,0,0,0
0:00.400,144,p,0,0,0
0:00.447,161,),0,0,0
0:00.464,167,(,0,0,1
0:00.567,204,N,0,0,0
0:00.614,221,),0,0,1
0:00.708,255,(,0,0,2
0:00.797,287,t,0,0,4
0:00.919,331,t,0,0,4
0:00.994,358,),0,0,2
0:01.142,411,(,0,0,0
0:01.178,424,p,0,0,0
0:01.222,440,),0,0,0
0:01.264,455,(,0,0,1
0:01.333,480,N,0,0,0
0:01.367,492,),0,0,1
0:01.500,540,(,0,0,2
0:01.572,566,t,0,0,4
0:01.686,607,t,0,0,4
0:01.803,649,),0,0,2
0:01.914,689,(,0,0,0
0:01.953,703,p,0,0,0
0:02.006,722,),0,0,0
0:02.031,731,(,0,0,1
0:02.108,759,N,0,0,0
0:02.142,771,),0,0,1
0:02.231,803,(,0,0,2
0:02.347,845,t,0,0,4
0:02.472,890,t,0,0,4
0:02.567,924,),0,0,2
0:02.689,968,(,0,0,0
0:02.728,982,p,0,0,0
0:02.778,1000,),0,0,0
0:02.800,1008,(,0,0,1
0:02.872,1034,N,0,0,0
0:02.919,1051,),0,0,1
0:03.025,1089,(,0,0,2
0:03.100,1116,t,0,0,4
0:03.217,1158,t,0,0,4
0:03.314,1193,),0,0,2
0:03.428,1234,(,0,0,0
0:03.475,1251,p,0,0,0
0:03.525,1269,),0,0,0
0:03.567,1284,(,0,0,1
0:03.628,1306,N,0,0,0
0:03.675,1323,),0,0,1
0:03.742,1347,(,0,0,2
0:03.844,1384,t,0,0,4
0:03.950,1422,t,0,0,4
0:04.047,1457,),0,0,2
0:04.186,1507,(,0,0,0
0:04.217,1518,p,0,0,0
0:04.261,1534,),0,0,0
0:04.300,1548,(,0,0,1
0:04.372,1574,N,0,0,0
0:04.428,1594,),0,0,1
0:04.500,1620,(,0,0,2
0:04.600,1656,t,0,0,4
0:04.736,1705,t,0,0,4
0:04.792,1725,),0,0,2
0:04.947,1781,(,0,0,0
0:04.986,1795,p,0,0,0
0:05.042,1815,),0,0,0
0:05.086,1831,(,0,0,1
0:05.153,1855,N,0,0,0
0:05.183,1866,),0,0,1
0:05.272,1898,(,0,0,2
0:05.383,1938,t,0,0,4
0:05.503,1981,t,0,0,4
0:05.581,2009,),0,0,2
0:05.692,2049,(,0,0,0
0:05.747,2069,p,0,0,0
0:05.797,2087,),0,0,0
0:05.831,2099,(,0,0,1
0:05.903,2125,N,0,0,0
0:05.933,2136,),0,0,1
0:06.044,2176,(,0,0,2
0:06.136,2209,t,0,0,4
0:06.267,2256,t,0,0,4
0:06.325,2277,),0,0,2
0:06.436,2317,(,0,0,0
0:06.475,2331,p,0,0,0
0:06.519,2347,),0,0,0
0:06.558,2361,(,0,0,1
0:06.619,2383,N,0,0,0
0:06.653,2395,),0,0,1
0:06.794,2446,(,0,0,2
0:06.853,2467,t,0,0,1
0:06.942,2499,),0,0,2
0:07.158,2577,(,0,0,0
0:07.194,2590,p,0,0,0
0:07.250,2610,),0,0,0
0:07.292,2625,(,0,0,1
0:07.350,2646,N,0,0,0
0:07.381,2657,),0,0,1
0:07.503,2701,(,0,0,2
0:07.586,2731,t,0,0,4
0:07.711,2776,t,0,0,4
0:07.794,2806,),0,0,2
0:07.892,2841,(,0,0,0
0:07.928,2854,p,0,0,0
0:07.972,2870,),0,0,0
0:08.003,2881,(,0,0,1
0:08.075,2907,N,0,0,0
0:08.125,2925,),0,0,1
0:08.244,2968,(,0,0,2
0:08.308,2991,t,0,0,4
0:08.419,3031,t,0,0,4
0:08.531,3071,),0,0,2
0:08.619,3103,(,0,0,0
0:08.664,3119,p,0,0,0
0:08.714,3137,),0,0,0
0:08.756,3152,(,0,0,1
0:08.817,3174,N,0,0,0
0:08.872,3194,),0,0,1
0:08.925,3213,(,0,0,2
0:09.047,3257,t,0,0,4
0:09.164,3299,t,0,0,4
0:09.258,3333,),0,0,2
0:09.350,3366,(,0,0,0
0:09.406,3386,p,0,0,0
0:09.461,3406,),0,0,0
0:09.500,3420,(,0,0,1
0:09.567,3444,N,0,0,0
0:09.617,3462,),0,0,1
0:09.703,3493,(,0,0,2
0:09.792,3525,t,0,0,4
0:09.908,3567,t,0,0,4
0:10.008,3603,),0,0,2
0:10.097,3635,(,0,0,0
0:10.147,3653,p,0,0,0
0:10.194,3670,),0,0,0
0:10.233,3684,(,0,0,1
0:10.306,3710,N,0,0,0
0:10.353,3727,),0,0,1
0:10.444,3760,(,0,0,2
0:10.531,3791,t,0,0,4
0:10.653,3835,t,0,0,4
0:10.736,3865,),0,0,2
0:10.825,3897,(,0,0,0
0:10.867,3912,p,0,0,0
0:10.922,3932,),0,0,0
0:10.961,3946,(,0,0,1
0:11.019,3967,N,0,0,0
0:11.075,3987,),0,0,1
0:11.156,4016,(,0,0,2
0:11.250,4050,t,0,0,4
0:11.364,4091,t,0,0,4
0:11.461,4126,),0,0,2
0:11.564,4163,(,0,0,0
0:11.603,4177,p,0,0,0
0:11.656,4196,),0,0,0
0:11.703,4213,(,0,0,1
0:11.769,4237,N,0,0,0
0:11.817,4254,),0,0,1
0:11.914,4289,(,0,0,2
0:12.011,4324,t,0,0,4
0:12.131,4367,t,0,0,4
0:12.236,4405,),0,0,2
0:12.339,4442,(,0,0,0
0:12.381,4457,p,0,0,0
0:12.428,4474,),0,0,0
0:12.467,4488,(,0,0,1
0:12.536,4513,N,0,0,0
0:12.586,4531,),0,0,1
0:12.656,4556,(,0,0,2
0:12.767,4596,t,0,0,4
0:12.886,4639,t,0,0,4
0:12.986,4675,),0,0,2
0:13.081,4709,(,0,0,0
0:13.119,4723,p,0,0,0
0:13.169,4741,),0,0,0
0:13.206,4754,(,0,0,1
0:13.272,4778,N,0,0,0
0:13.319,4795,),0,0,1
0:13.381,4817,(,0,0,2
0:13.483,4854,t,0,0,4
0:13.594,4894,t,0,0,4
0:13.672,4922,),0,0,2
0:13.789,4964,(,0,0,0
0:13.831,4979,p,0,0,0
0:13.881,4997,),0,0,0
0:13.931,5015,(,0,0,1
0:13.989,5036,N,0,0,0
0:14.033,5052,),0,0,1
0:14.139,5090,(,0,0,2
0:14.211,5116,t,0,0,4
0:14.319,5155,t,0,0,4
0:14.431,5195,),0,0,2
0:14.531,5231,(,0,0,0
0:14.567,5244,p,0,0,0
0:14.617,5262,),0,0,0
0:14.664,5279,(,0,0,1
0:14.722,5300,N,0,0,0
0:14.753,5311,),0,0,1
0:14.850,5346,(,0,0,2
0:14.939,5378,t,0,0,4
0:15.061,5422,t,0,0,4
0:15.153,5455,),0,0,2
0:15.264,5495,(,0,0,0
0:15.303,5509,p,0,0,0
0:15.358,5529,),0,0,0
0:15.403,5545,(,0,0,1
0:15.467,5568,N,0,0,0
0:15.497,5579,),0,0,1
0:15.608,5619,(,0,0,2
0:15.694,5650,t,0,0,4
0:15.817,5694,t,0,0,4
0:15.897,5723,),0,0,2
0:16.028,5770,(,0,0,0
0:16.064,5783,p,0,0,0
0:16.114,5801,),0,0,0
0:16.164,5819,(,0,0,1
0:16.225,5841,N,0,0,0
0:16.278,5860,),0,0,1
0:16.375,5895,(,0,0,2
0:16.458,5925,t,0,0,4
0:16.578,5968,t,0,0,4
0:16.661,5998,),0,0,2
0:16.767,6036,(,0,0,0
0:16.811,6052,p,0,0,0
0:16.861,6070,),0,0,0
0:16.900,6084,(,0,0,1
0:16.964,6107,N,0,0,0
0:17.017,6126,),0,0,1
0:17.117,6162,(,0,0,2
0:17.197,6191,t,0,0,4
0:17.297,6227,t,0,0,4
0:17.403,6265,),0,0,2
0:17.500,6300,(,0,0,0
0:17.547,6317,p,0,0,0
0:17.597,6335,),0,0,0
0:17.636,6349,(,0,0,1
0:17.694,6370,N,0,0,0
0:17.747,6389,),0,0,1
0:17.817,6414,(,0,0,2
0:17.925,6453,t,0,0,4
0:18.050,6498,t,0,0,4
0:18.114,6521,),0,0,2
0:18.239,6566,(,0,0,0
0:18.292,6585,p,0,0,0
0:18.336,6601,),0,0,0
0:18.394,6622,(,0,0,1
0:18.456,6644,N,0,0,0
0:18.503,6661,),0,0,1
0:18.614,6701,(,0,0,2
0:18.686,6727,t,0,0,4
0:18.803,6769,t,0,0,4
0:18.894,6802,),0,0,2
0:19.025,6849,(,0,0,0
0:19.064,6863,p,0,0,0
0:19.114,6881,),0,0,0
0:19.164,6899,(,0,0,1
0:19.219,6919,N,0,0,0
0:19.250,6930,),0,0,1
0:19.350,6966,(,0,0,2
0:19.444,7000,t,0,0,4
0:19.553,7039,t,0,0,4
0:19.650,7074,),0,0,2
0:19.764,7115,(,0,0,0
0:19.797,7127,p,0,0,0
0:19.850,7146,),0,0,0
0:19.897,7163,(,0,0,1
0:19.956,7184,N,0,0,0
0:19.986,7195,),0,0,1
0:20.078,7228,(,0,0,2
0:20.178,7264,t,0,0,4
0:20.289,7304,t,0,0,4
0:20.392,7341,),0,0,2
0:20.469,7369,(,0,0,0
0:20.514,7385,p,0,0,0
0:20.564,7403,),0,0,0
0:20.603,7417,(,0,0,1
0:20.675,7443,N,0,0,0
0:20.708,7455,),0,0,1
0:20.783,7482,(,0,0,2
0:20.897,7523,t,0,0,4
0:21.000,7560,t,0,0,4
0:21.106,7598,),0,0,2
0:21.172,7622,(,0,0,0
0:21.247,7649,p,0,0,0
0:21.300,7668,),0,0,0
0:21.336,7681,(,0,0,1
0:21.408,7707,N,0,0,0
0:21.458,7725,),0,0,1
0:21.542,7755,(,0,0,2
0:21.642,7791,t,0,0,4
0:21.753,7831,t,0,0,4
0:21.836,7861,),0,0,2
0:21.925,7893,(,0,0,0
0:21.989,7916,p,0,0,0
0:22.042,7935,),0,0,0
0:22.100,7956,(,0,0,1
0:22.156,7976,N,0,0,0
0:22.186,7987,),0,0,1
0:22.278,8020,(,0,0,2
0:22.392,8061,t,0,0,1
0:22.483,8094,),0,0,2
0:22.692,8169,(,0,0,0
0:22.750,8190,p,0,0,0
0:22.797,8207,),0,0,0
0:22.836,8221,(,0,0,1
0:22.911,8248,N,0,0,0
0:22.944,8260,),0,0,1
0:23.058,8301,(,0,0,2
0:23.150,8334,t,0,0,1
0:23.247,8369,),0,0,2
0:23.408,8427,(,0,0,1
0:23.539,8474,N,0,0,0
0:23.608,8499,),0,0,1
0:23.669,8521,(,0,0,2
0:23.775,8559,t,0,0,1
0:23.886,8599,),0,0,2
0:24.175,8703,(,0,0,0
0:24.225,8721,p,0,0,0
0:24.272,8738,),0,0,0
0:24.308,8751,(,0,0,1
0:24.378,8776,N,0,0,0
0:24.425,8793,),0,0,1
0:24.508,8823,(,0,0,2
0:24.608,8859,t,0,0,4
0:24.733,8904,t,0,0,4
0:24.831,8939,),0,0,2
0:24.925,8973,(,0,0,0
0:24.964,8987,p,0,0,0
0:25.008,9003,),0,0,0
0:25.064,9023,(,0,0,1
0:25.125,9045,N,0,0,0
0:25.178,9064,),0,0,1
0:25.275,9099,(,0,0,2
0:25.361,9130,t,0,0,4
0:25.464,9167,t,0,0,4
0:25.569,9205,),0,0,2
0:25.689,9248,(,0,0,0
0:25.725,9261,p,0,0,0
0:25.778,9280,),0,0,0
0:25.811,9292,(,0,0,1
0:25.889,9320,N,0,0,0
0:25.922,9332,),0,0,1
0:26.022,9368,(,0,0,2
0:26.125,9405,t,0,0,4
0:26.228,9442,t,0,0,4
0:26.325,9477,),0,0,2
0:26.422,9512,(,0,0,0
0:26.469,9529,p,0,0,0
0:26.519,9547,),0,0,0
0:26.544,9556,(,0,0,1
0:26.628,9586,N,0,0,0
0:26.683,9606,),0,0,1
0:26.786,9643,(,0,0,2
0:26.853,9667,t,0,0,4
0:26.969,9709,t,0,0,4
0:27.064,9743,),0,0,2
0:27.169,9781,(,0,0,0
0:27.211,9796,p,0,0,0
0:27.256,9812,),0,0,0
0:27.300,9828,(,0,0,1
0:27.361,9850,N,0,0,0
0:27.394,9862,),0,0,1
0:27.517,9906,(,0,0,2
0:27.597,9935,t,0,0,1
0:27.681,9965,),0,0,2
0:27.892,10041,(,0,0,0
0:27.950,10062,p,0,0,0
0:28.003,10081,),0,0,0
0:28.039,10094,(,0,0,1
0:28.106,10118,N,0,0,0
0:28.139,10130,),0,0,1
0:28.222,10160,(,0,0,2
0:28.336,10201,t,0,0,4
0:28.453,10243,t,0,0,4
0:28.553,10279,),0,0,2
0:28.664,10319,(,0,0,0
0:28.700,10332,p,0,0,0
0:28.747,10349,),0,0,0
0:28.800,10368,(,0,0,1
0:28.853,10387,N,0,0,0
0:28.900,10404,),0,0,1
0:28.992,10437,(,0,0,2
0:29.103,10477,t,0,0,4
0:29.228,10522,t,0,0,4
0:29.306,10550,),0,0,2
0:29.436,10597,(,0,0,0
0:29.472,10610,p,0,0,0
0:29.519,10627,),0,0,0
0:29.569,10645,(,0,0,1
0:29.631,10667,N,0,0,0
0:29.683,10686,),0,0,1
0:29.756,10712,(,0,0,2
0:29.867,10752,t,0,0,4
0:29.989,10796,t,0,0,4
0:30.092,10833,),0,0,2
0:30.208,10875,(,0,0,0
0:30.244,10888,p,0,0,0
0:30.289,10904,),0,0,0
0:30.336,10921,(,0,0,1
0:30.389,10940,N,0,0,0
0:30.419,10951,),0,0,1
0:30.461,10966,(,0,0,2
0:30.611,11020,t,0,0,4
0:30.717,11058,t,0,0,4
0:30.811,11092,),0,0,2
0:30.936,11137,(,0,0,0
0:30.981,11153,p,0,0,0
0:31.031,11171,),0,0,0
0:31.078,11188,(,0,0,1
0:31.136,11209,N,0,0,0
0:31.189,11228,),0,0,1
0:31.253,11251,(,0,0,2
0:31.358,11289,t,0,0,4
0:31.475,11331,t,0,0,4
0:31.558,11361,),0,0,2
0:31.672,11402,(,0,0,0
0:31.717,11418,p,0,0,0
0:31.769,11437,),0,0,0
0:31.814,11453,(,0,0,1
0:31.881,11477,N,0,0,0
0:31.925,11493,),0,0,1
0:32.047,11537,(,0,0,2
0:32.114,11561,t,0,0,4
0:32.231,11603,t,0,0,4
0:32.336,11641,),0,0,2
0:32.456,11684,(,0,0,0
0:32.500,11700,p,0,0,0
0:32.547,11717,),0,0,0
0:32.578,11728,(,0,0,1
0:32.667,11760,N,0,0,0
0:32.722,11780,),0,0,1
0:32.814,11813,(,0,0,2
0:32.911,11848,t,0,0,4
0:33.028,11890,t,0,0,4
0:33.089,11912,),0,0,2
0:33.222,11960,(,0,0,0
0:33.269,11977,p,0,0,0
0:33.322,11996,),0,0,0
0:33.344,12004,(,0,0,1
0:33.431,12035,N,0,0,0
0:33.461,12046,),0,0,1
0:33.583,12090,(,0,0,2
0:33.672,12122,t,0,0,4
0:33.789,12164,t,0,0,4
0:33.875,12195,),0,0,2
0:33.983,12234,(,0,0,0
0:34.031,12251,p,0,0,0
0:34.078,12268,),0,0,0
0:34.119,12283,(,0,0,1
0:34.189,12308,N,0,0,0
0:34.242,12327,),0,0,1
0:34.319,12355,(,0,0,2
0:34.428,12394,t,0,0,4
0:34.544,12436,t,0,0,4
0:34.636,12469,),0,0,2
0:34.744,12508,(,0,0,0
0:34.789,12524,p,0,0,0
0:34.839,12542,),0,0,0
0:34.894,12562,(,0,0,1
0:34.950,12582,N,0,0,0
0:35.000,12600,),0,0,1
0:35.056,12620,(,0,0,2
0:35.183,12666,t,0,0,4
0:35.300,12708,t,0,0,4
0:35.381,12737,),0,0,2
0:35.506,12782,(,0,0,0
0:35.542,12795,p,0,0,0
0:35.583,12810,),0,0,0
0:35.633,12828,(,0,0,1
0:35.700,12852,N,0,0,0
0:35.750,12870,),0,0,1
0:35.819,12895,(,0,0,2
0:35.939,12938,t,0,0,4
0:36.058,12981,t,0,0,4
0:36.150,13014,),0,0,2
0:36.267,13056,(,0,0,0
0:36.306,13070,p,0,0,0
0:36.361,13090,),0,0,0
0:36.406,13106,(,0,0,1
0:36.469,13129,N,0,0,0
0:36.503,13141,),0,0,1
0:36.617,13182,(,0,0,2
0:36.717,13218,t,0,0,4
0:36.850,13266,t,0,0,4
0:36.925,13293,),0,0,2
0:37.042,13335,(,0,0,0
0:37.078,13348,p,0,0,0
0:37.128,13366,),0,0,0
0:37.172,13382,(,0,0,1
0:37.225,13401,N,0,0,0
0:37.258,13413,),0,0,1
0:37.347,13445,(,0,0,2
0:37.453,13483,t,0,0,4
0:37.569,13525,t,0,0,4
0:37.656,13556,),0,0,2
0:37.775,13599,(,0,0,0
0:37.814,13613,p,0,0,0
0:37.861,13630,),0,0,0
0:37.881,13637,(,0,0,1
0:37.964,13667,N,0,0,0
0:38.017,13686,),0,0,1
0:38.092,13713,(,0,0,2
0:38.189,13748,t,0,0,4
0:38.300,13788,t,0,0,4
0:38.356,13808,),0,0,2
0:38.503,13861,(,0,0,0
0:38.550,13878,p,0,0,0
0:38.600,13896,),0,0,0
0:38.617,13902,(,0,0,1
0:38.700,13932,N,0,0,0
0:38.761,13954,),0,0,1
0:38.794,13966,(,0,0,2
0:38.939,14018,t,0,0,4
0:39.058,14061,t,0,0,4
0:39.175,14103,),0,0,2
0:39.283,14142,(,0,0,0
0:39.319,14155,p,0,0,0
0:39.372,14174,),0,0,0
0:39.414,14189,(,0,0,1
0:39.483,14214,N,0,0,0
0:39.536,14233,),0,0,1
0:39.594,14254,(,0,0,2
0:39.714,14297,t,0,0,4
0:39.822,14336,t,0,0,4
0:39.906,14366,),0,0,2
0:40.017,14406,(,0,0,0
0:40.064,14423,p,0,0,0
0:40.111,14440,),0,0,0
0:40.150,14454,(,0,0,1
0:40.225,14481,N,0,0,0
0:40.269,14497,),0,0,1
0:40.358,14529,(,0,0,2
0:40.453,14563,t,0,0,4
0:40.567,14604,t,0,0,4
0:40.664,14639,),0,0,2
0:40.761,14674,(,0,0,0
0:40.800,14688,p,0,0,0
0:40.847,14705,),0,0,0
0:40.883,14718,(,0,0,1
0:40.950,14742,N,0,0,0
0:40.981,14753,),0,0,1
0:41.094,14794,(,0,0,2
0:41.189,14828,t,0,0,4
0:41.300,14868,t,0,0,4
0:41.378,14896,),0,0,2
0:41.486,14935,(,0,0,0
0:41.533,14952,p,0,0,0
0:41.583,14970,),0,0,0
0:41.636,14989,(,0,0,1
0:41.692,15009,N,0,0,0
0:41.722,15020,),0,0,1
0:41.819,15055,(,0,0,2
0:41.936,15097,t,0,0,4
0:42.056,15140,t,0,0,4
0:42.144,15172,),0,0,2
0:42.222,15200,(,0,0,0
0:42.275,15219,p,0,0,0
0:42.319,15235,),0,0,0
0:42.372,15254,(,0,0,1
0:42.431,15275,N,0,0,0
0:42.481,15293,),0,0,1
0:42.592,15333,(,0,0,2
0:42.664,15359,t,0,0,4
0:42.797,15407,t,0,0,4
0:42.878,15436,),0,0,2
0:42.978,15472,(,0,0,0
0:43.028,15490,p,0,0,0
0:43.075,15507,),0,0,0
0:43.117,15522,(,0,0,1
0:43.186,15547,N,0,0,0
0:43.219,15559,),0,0,1
0:43.306,15590,(,0,0,2
0:43.433,15636,t,0,0,4
0:43.558,15681,t,0,0,4
0:43.661,15718,),0,0,2
0:43.764,15755,(,0,0,0
0:43.806,15770,p,0,0,0
0:43.853,15787,),0,0,0
0:43.883,15798,(,0,0,1
0:43.953,15823,N,0,0,0
0:44.000,15840,),0,0,1
0:44.092,15873,(,0,0,2
0:44.175,15903,t,0,0,4
0:44.297,15947,t,0,0,4
0:44.378,15976,),0,0,2
0:44.508,16023,(,0,0,0
0:44.561,16042,p,0,0,0
0:44.608,16059,),0,0,0
0:44.647,16073,(,0,0,1
0:44.711,16096,N,0,0,0
0:44.758,16113,),0,0,1
0:44.836,16141,(,0,0,2
0:44.933,16176,t,0,0,4
0:45.036,16213,t,0,0,4
0:45.147,16253,),0,0,2
0:45.275,16299,(,0,0,0
0:45.311,16312,p,0,0,0
0:45.358,16329,),0,0,0
0:45.411,16348,(,0,0,1
0:45.475,16371,N,0,0,0
0:45.525,16389,),0,0,1
0:45.594,16414,(,0,0,2
0:45.717,16458,t,0,0,4
0:45.856,16508,t,0,0,4
0:45.947,16541,),0,0,2
0:46.083,16590,(,0,0,0
0:46.122,16604,p,0,0,0
0:46.175,16623,),0,0,0
0:46.217,16638,(,0,0,1
0:46.286,16663,N,0,0,0
0:46.336,16681,),0,0,1
0:46.431,16715,(,0,0,2
0:46.519,16747,t,0,0,4
0:46.642,16791,t,0,0,4
0:46.722,16820,),0,0,2
0:46.861,16870,(,0,0,0
0:46.903,16885,p,0,0,0
0:46.953,16903,),0,0,0
0:46.986,16915,(,0,0,1
0:47.058,16941,N,0,0,0
0:47.092,16953,),0,0,1
0:47.203,16993,(,0,0,2
0:47.294,17026,t,0,0,4
0:47.397,17063,t,0,0,4
0:47.489,17096,),0,0,2
0:47.608,17139,(,0,0,0
0:47.644,17152,p,0,0,0
0:47.700,17172,),0,0,0
0:47.750,17190,(,0,0,1
0:47.806,17210,N,0,0,0
0:47.858,17229,),0,0,1
0:47.925,17253,(,0,0,2
0:48.039,17294,t,0,0,4
0:48.156,17336,t,0,0,4
0:48.225,17361,),0,0,2
0:48.375,17415,(,0,0,0
0:48.414,17429,p,0,0,0
0:48.467,17448,),0,0,0
0:48.522,17468,(,0,0,1
0:48.578,17488,N,0,0,0
0:48.631,17507,),0,0,1
0:48.728,17542,(,0,0,2
0:48.814,17573,t,0,0,4
0:48.928,17614,t,0,0,4
0:48.989,17636,),0,0,2
0:49.125,17685,(,0,0,0
0:49.183,17706,p,0,0,0
0:49.231,17723,),0,0,0
0:49.283,17742,(,0,0,1
0:49.347,17765,N,0,0,0
0:49.394,17782,),0,0,1
0:49.406,17786,(,0,0,2
0:49.578,17848,t,0,0,4
0:49.692,17889,t,0,0,4
0:49.769,17917,),0,0,2
0:49.919,17971,(,0,0,0
0:49.961,17986,p,0,0,0
0:50.008,18003,),0,0,0
0:50.053,18019,(,0,0,1
0:50.122,18044,N,0,0,0
0:50.156,18056,),0,0,1
0:50.258,18093,(,0,0,2
0:50.364,18131,t,0,0,4
0:50.486,18175,t,0,0,4
0:50.575,18207,),0,0,2
0:50.678,18244,(,0,0,0
0:50.722,18260,p,0,0,0
0:50.778,18280,),0,0,0
0:50.814,18293,(,0,0,1
0:50.878,18316,N,0,0,0
0:50.908,18327,),0,0,1
0:50.994,18358,(,0,0,2
0:51.117,18402,t,0,0,4
0:51.228,18442,t,0,0,4
0:51.325,18477,),0,0,2
0:51.422,18512,(,0,0,0
0:51.464,18527,p,0,0,0
0:51.514,18545,),0,0,0
0:51.556,18560,(,0,0,1
0:51.617,18582,N,0,0,0
0:51.664,18599,),0,0,1
0:51.747,18629,(,0,0,2
0:51.836,18661,t,0,0,4
0:51.958,18705,t,0,0,4
0:52.047,18737,),0,0,2
0:52.158,18777,(,0,0,0
0:52.197,18791,p,0,0,0
0:52.247,18809,),0,0,0
0:52.289,18824,(,0,0,1
0:52.358,18849,N,0,0,0
0:52.408,18867,),0,0,1
0:52.456,18884,(,0,0,2
0:52.594,18934,t,0,0,4
0:52.700,18972,t,0,0,4
0:52.819,19015,),0,0,2
0:52.914,19049,(,0,0,0
0:52.964,19067,p,0,0,0
0:53.014,19085,),0,0,0
0:53.056,19100,(,0,0,1
0:53.122,19124,N,0,0,0
0:53.172,19142,),0,0,1
0:53.200,19152,(,0,0,2
0:53.347,19205,t,0,0,4
0:53.456,19244,t,0,0,4
0:53.561,19282,),0,0,2
0:53.631,19307,(,0,0,0
0:53.692,19329,p,0,0,0
0:53.744,19348,),0,0,0
0:53.792,19365,(,0,0,1
0:53.858,19389,N,0,0,0
0:53.906,19406,),0,0,1
0:53.972,19430,(,0,0,2
0:54.081,19469,t,0,0,4
0:54.181,19505,t,0,0,4
0:54.275,19539,),0,0,2
0:54.344,19564,(,0,0,0
0:54.400,19584,p,0,0,0
0:54.450,19602,),0,0,0
0:54.489,19616,(,0,0,1
0:54.558,19641,N,0,0,0
0:54.592,19653,),0,0,1
0:54.694,19690,(,0,0,2
0:54.792,19725,t,0,0,4
0:54.897,19763,t,0,0,4
0:54.983,19794,),0,0,2
0:55.078,19828,(,0,0,0
0:55.128,19846,p,0,0,0
0:55.181,19865,),0,0,0
0:55.228,19882,(,0,0,1
0:55.292,19905,N,0,0,0
0:55.322,19916,),0,0,1
0:55.439,19958,(,0,0,2
0:55.528,19990,t,0,0,4
0:55.636,20029,t,0,0,4
0:55.719,20059,),0,0,2
0:55.819,20095,(,0,0,0
0:55.861,20110,p,0,0,0
0:55.908,20127,),0,0,0
0:55.956,20144,(,0,0,1
0:56.022,20168,N,0,0,0
0:56.056,20180,),0,0,1
0:56.114,20201,(,0,0,2
0:56.258,20253,t,0,0,4
0:56.369,20293,t,0,0,4
0:56.489,20336,),0,0,2
0:56.564,20363,(,0,0,0
0:56.608,20379,p,0,0,0
0:56.664,20399,),0,0,0
0:56.708,20415,(,0,0,1
0:56.769,20437,N,0,0,0
0:56.803,20449,),0,0,1
0:56.897,20483,(,0,0,2
0:57.011,20524,t,0,0,4
0:57.136,20569,t,0,0,4
0:57.239,20606,),0,0,2
0:57.317,20634,(,0,0,0
0:57.361,20650,p,0,0,0
0:57.411,20668,),0,0,0
0:57.458,20685,(,0,0,1
0:57.517,20706,N,0,0,0
0:57.567,20724,),0,0,1
0:57.611,20740,(,0,0,2
0:57.744,20788,t,0,0,4
0:57.869,20833,t,0,0,4
0:57.958,20865,),0,0,2
0:58.039,20894,(,0,0,0
0:58.106,20918,p,0,0,0
0:58.147,20933,),0,0,0
0:58.192,20949,(,0,0,1
0:58.253,20971,N,0,0,0
0:58.303,20989,),0,0,1
0:58.317,20994,(,0,0,2
0:58.481,21053,t,0,0,4
0:58.586,21091,t,0,0,4
0:58.686,21127,),0,0,2
0:58.778,21160,(,0,0,0
0:58.819,21175,p,0,0,0
0:58.875,21195,),0,0,0
0:58.917,21210,(,0,0,1
0:58.978,21232,N,0,0,0
0:59.011,21244,),0,0,1
0:59.114,21281,(,0,0,2
0:59.217,21318,t,0,0,4
0:59.336,21361,t,0,0,4
0:59.428,21394,),0,0,2
0:59.533,21432,(,0,0,0
0:59.575,21447,p,0,0,0
0:59.622,21464,),0,0,0
0:59.683,21486,(,0,0,1
0:59.742,21507,N,0,0,0
0:59.794,21526,),0,0,1
0:59.906,21566,(,0,0,2
0:59.978,21592,t,0,0,4
1:00.086,21631,t,0,0,4
1:00.167,21660,),0,0,2
1:00.286,21703,(,0,0,0
1:00.322,21716,p,0,0,0
1:00.375,21735,),0,0,0
1:00.422,21752,(,0,0,1
1:00.489,21776,N,0,0,0
1:00.542,21795,),0,0,1
1:00.631,21827,(,0,0,2
1:00.725,21861,t,0,0,4
1:00.828,21898,t,0,0,4
1:00.917,21930,),0,0,2
1:01.014,21965,(,0,0,0
1:01.056,21980,p,0,0,0
1:01.103,21997,),0,0,0
1:01.128,22006,(,0,0,1
1:01.208,22035,N,0,0,0
1:01.264,22055,),0,0,1
1:01.350,22086,(,0,0,2
1:01.431,22115,t,0,0,4
1:01.544,22156,t,0,0,4
1:01.603,22177,),0,0,2
1:01.722,22220,(,0,0,1
1:01.811,22252,N,0,0,0
1:01.889,22280,),0,0,1
1:01.956,22304,(,0,0,2
1:02.067,22344,t,0,0,1
1:02.183,22386,),0,0,2
1:02.483,22494,(,0,0,0
1:02.539,22514,p,0,0,0
1:02.589,22532,),0,0,0
1:02.625,22545,(,0,0,1
1:02.697,22571,N,0,0,0
1:02.753,22591,),0,0,1
1:02.800,22608,(,0,0,2
1:02.944,22660,t,0,0,4
1:03.067,22704,t,0,0,4
1:03.158,22737,),0,0,2
1:03.258,22773,(,0,0,0
1:03.306,22790,p,0,0,0
1:03.361,22810,),0,0,0
1:03.394,22822,(,0,0,1
1:03.467,22848,N,0,0,0
1:03.497,22859,),0,0,1
1:03.594,22894,(,0,0,2
1:03.700,22932,t,0,0,1
1:03.806,22970,),0,0,2
1:03.958,23025,(,0,0,1
1:04.019,23047,N,0,0,0
1:04.064,23063,),0,0,1
1:04.142,23091,(,0,0,2
1:04.231,23123,t,0,0,4
1:04.336,23161,t,0,0,4
1:04.367,23172,),0,0,2
1:04.636,23269,(,0,0,0
1:04.683,23286,p,0,0,0
1:04.731,23303,),0,0,0
1:04.769,23317,(,0,0,1
1:04.833,23340,N,0,0,0
1:04.878,23356,),0,0,1
1:04.950,23382,(,0,0,2
1:05.064,23423,t,0,0,4
1:05.181,23465,t,0,0,4
1:05.261,23494,),0,0,2
1:05.439,23558,(,0,0,0
1:05.478,23572,p,0,0,0
1:05.528,23590,),0,0,0
1:05.569,23605,(,0,0,1
1:05.636,23629,N,0,0,0
1:05.683,23646,),0,0,1
1:05.778,23680,(,0,0,2
1:05.875,23715,t,0,0,4
1:05.997,23759,t,0,0,4
1:06.058,23781,),0,0,2
1:06.244,23848,(,0,0,0
1:06.286,23863,p,0,0,0
1:06.339,23882,),0,0,0
1:06.392,23901,(,0,0,1
1:06.450,23922,N,0,0,0
1:06.503,23941,),0,0,1
1:06.578,23968,(,0,0,2
1:06.683,24006,t,0,0,4
1:06.797,24047,t,0,0,4
1:06.850,24066,),0,0,2
1:07.025,24129,(,0,0,0
1:07.072,24146,p,0,0,0
1:07.122,24164,),0,0,0
1:07.175,24183,(,0,0,1
1:07.236,24205,N,0,0,0
1:07.289,24224,),0,0,1
1:07.372,24254,(,0,0,2
1:07.469,24289,t,0,0,1
1:07.558,24321,),0,0,2
1:07.797,24407,(,0,0,0
1:07.844,24424,p,0,0,0
1:07.892,24441,),0,0,0
1:07.931,24455,(,0,0,1
1:07.997,24479,N,0,0,0
1:08.050,24498,),0,0,1
1:08.136,24529,(,0,0,2
1:08.231,24563,t,0,0,4
1:08.339,24602,t,0,0,4
1:08.450,24642,),0,0,2
1:08.575,24687,(,0,0,0
1:08.611,24700,p,0,0,0
1:08.664,24719,),0,0,0
1:08.700,24732,(,0,0,1
1:08.769,24757,N,0,0,0
1:08.800,24768,),0,0,1
1:08.881,24797,(,0,0,2
1:09.003,24841,t,0,0,4
1:09.111,24880,t,0,0,4
1:09.194,24910,),0,0,2
1:09.322,24956,(,0,0,0
1:09.367,24972,p,0,0,0
1:09.417,24990,),0,0,0
1:09.467,25008,(,0,0,1
1:09.528,25030,N,0,0,0
1:09.558,25041,),0,0,1
1:09.667,25080,(,0,0,2
1:09.775,25119,t,0,0,4
1:09.897,25163,t,0,0,4
1:09.967,25188,),0,0,2
1:10.111,25240,(,0,0,0
1:10.150,25254,p,0,0,0
1:10.200,25272,),0,0,0
1:10.258,25293,(,0,0,1
1:10.314,25313,N,0,0,0
1:10.361,25330,),0,0,1
1:10.475,25371,(,0,0,2
1:10.553,25399,t,0,0,4
1:10.669,25441,t,0,0,4
1:10.747,25469,),0,0,2
1:10.869,25513,(,0,0,0
1:10.908,25527,p,0,0,0
1:10.953,25543,),0,0,0
1:10.997,25559,(,0,0,1
1:11.061,25582,N,0,0,0
1:11.114,25601,),0,0,1
1:11.200,25632,(,0,0,2
1:11.292,25665,t,0,0,4
1:11.408,25707,t,0,0,4
1:11.500,25740,),0,0,2
1:11.606,25778,(,0,0,0
1:11.644,25792,p,0,0,0
1:11.694,25810,),0,0,0
1:11.733,25824,(,0,0,1
1:11.800,25848,N,0,0,0
1:11.847,25865,),0,0,1
1:11.917,25890,(,0,0,2
1:12.028,25930,t,0,0,4
1:12.136,25969,t,0,0,4
1:12.233,26004,),0,0,2
1:12.358,26049,(,0,0,0
1:12.397,26063,p,0,0,0
1:12.447,26081,),0,0,0
1:12.497,26099,(,0,0,1
1:12.561,26122,N,0,0,0
1:12.608,26139,),0,0,1
1:12.714,26177,(,0,0,2
1:12.753,26191,t,0,0,1
1:12.792,26205,),0,0,2
1:12.956,26264,(,0,0,1
1:13.064,26303,N,0,0,0
1:13.150,26334,),0,0,1
1:13.175,26343,(,0,0,2
1:13.256,26372,t,0,0,4
1:13.372,26414,t,0,0,4
1:13.414,26429,),0,0,2
1:13.886,26599,(,0,0,0
1:13.931,26615,p,0,0,0
1:13.983,26634,),0,0,0
1:14.022,26648,(,0,0,1
1:14.078,26668,N,0,0,0
1:14.111,26680,),0,0,1
1:14.206,26714,(,0,0,2
1:14.322,26756,t,0,0,1
1:14.414,26789,),0,0,2
1:14.589,26852,(,0,0,0
1:14.650,26874,p,0,0,0
1:14.703,26893,),0,0,0
1:14.736,26905,(,0,0,1
1:14.814,26933,N,0,0,0
1:14.864,26951,),0,0,1
1:14.944,26980,(,0,0,2
1:15.036,27013,t,0,0,4
1:15.147,27053,t,0,0,4
1:15.228,27082,),0,0,2
1:15.361,27130,(,0,0,0
1:15.397,27143,p,0,0,0
1:15.450,27162,),0,0,0
1:15.469,27169,(,0,0,1
1:15.564,27203,N,0,0,0
1:15.611,27220,),0,0,1
1:15.675,27243,(,0,0,2
1:15.783,27282,t,0,0,4
1:15.883,27318,t,0,0,4
1:15.978,27352,),0,0,2
1:16.075,27387,(,0,0,0
1:16.119,27403,p,0,0,0
1:16.169,27421,),0,0,0
1:16.219,27439,(,0,0,1
1:16.281,27461,N,0,0,0
1:16.336,27481,),0,0,1
1:16.414,27509,(,0,0,2
1:16.517,27546,t,0,0,4
1:16.644,27592,t,0,0,4
1:16.722,27620,),0,0,2
1:16.825,27657,(,0,0,0
1:16.869,27673,p,0,0,0
1:16.925,27693,),0,0,0
1:16.969,27709,(,0,0,1
1:17.036,27733,N,0,0,0
1:17.081,27749,),0,0,1
1:17.181,27785,(,0,0,2
1:17.275,27819,t,0,0,4
1:17.403,27865,t,0,0,4
1:17.489,27896,),0,0,2
1:17.586,27931,(,0,0,0
1:17.625,27945,p,0,0,0
1:17.669,27961,),0,0,0
1:17.717,27978,(,0,0,1
1:17.781,28001,N,0,0,0
1:17.814,28013,),0,0,1
1:17.939,28058,(,0,0,2
1:18.019,28087,t,0,0,4
1:18.142,28131,t,0,0,4
1:18.225,28161,),0,0,2
1:18.333,28200,(,0,0,0
1:18.378,28216,p,0,0,0
1:18.428,28234,),0,0,0
1:18.464,28247,(,0,0,1
1:18.522,28268,N,0,0,0
1:18.575,28287,),0,0,1
1:18.644,28312,(,0,0,2
1:18.750,28350,t,0,0,4
1:18.875,28395,t,0,0,4
1:18.961,28426,),0,0,2
1:19.078,28468,(,0,0,0
1:19.119,28483,p,0,0,0
1:19.167,28500,),0,0,0
1:19.222,28520,(,0,0,1
1:19.278,28540,N,0,0,0
1:19.325,28557,),0,0,1
1:19.408,28587,(,0,0,2
1:19.517,28626,t,0,0,4
1:19.644,28672,t,0,0,4
1:19.739,28706,),0,0,2
1:19.864,28751,(,0,0,0
1:19.906,28766,p,0,0,0
1:19.958,28785,),0,0,0
1:19.997,28799,(,0,0,1
1:20.067,28824,N,0,0,0
1:20.114,28841,),0,0,1
1:20.175,28863,(,0,0,2
1:20.289,28904,t,0,0,4
1:20.408,28947,t,0,0,4
1:20.489,28976,),0,0,2
1:20.617,29022,(,0,0,0
1:20.658,29037,p,0,0,0
1:20.708,29055,),0,0,0
1:20.761,29074,(,0,0,1
1:20.819,29095,N,0,0,0
1:20.881,29117,),0,0,1
1:20.975,29151,(,0,0,2
1:21.042,29175,t,0,0,1
1:21.131,29207,),0,0,2
1:21.336,29281,(,0,0,0
1:21.392,29301,p,0,0,0
1:21.447,29321,),0,0,0
1:21.494,29338,(,0,0,1
1:21.556,29360,N,0,0,0
1:21.589,29372,),0,0,1
1:21.692,29409,(,0,0,2
1:21.786,29443,t,0,0,4
1:21.903,29485,t,0,0,4
1:21.942,29499,),0,0,2
1:22.100,29556,(,0,0,0
1:22.153,29575,p,0,0,0
1:22.206,29594,),0,0,0
1:22.242,29607,(,0,0,1
1:22.317,29634,N,0,0,0
1:22.364,29651,),0,0,1
1:22.475,29691,(,0,0,2
1:22.547,29717,t,0,0,4
1:22.650,29754,t,0,0,4
1:22.744,29788,),0,0,2
1:22.861,29830,(,0,0,0
1:22.897,29843,p,0,0,0
1:22.947,29861,),0,0,0
1:22.997,29879,(,0,0,1
1:23.061,29902,N,0,0,0
1:23.094,29914,),0,0,1
1:23.242,29967,(,0,0,2
1:23.306,29990,t,0,0,4
1:23.419,30031,t,0,0,4
1:23.506,30062,),0,0,2
1:23.631,30107,(,0,0,0
1:23.669,30121,p,0,0,0
1:23.722,30140,),0,0,0
1:23.767,30156,(,0,0,1
1:23.831,30179,N,0,0,0
1:23.886,30199,),0,0,1
1:23.956,30224,(,0,0,2
1:24.081,30269,t,0,0,4
1:24.192,30309,t,0,0,4
1:24.275,30339,),0,0,2
1:24.403,30385,(,0,0,0
1:24.447,30401,p,0,0,0
1:24.503,30421,),0,0,0
1:24.539,30434,(,0,0,1
1:24.603,30457,N,0,0,0
1:24.653,30475,),0,0,1
1:24.744,30508,(,0,0,2
1:24.836,30541,t,0,0,4
1:24.964,30587,t,0,0,4
1:25.033,30612,),0,0,2
1:25.164,30659,(,0,0,0
1:25.206,30674,p,0,0,0
1:25.250,30690,),0,0,0
1:25.297,30707,(,0,0,1
1:25.356,30728,N,0,0,0
1:25.400,30744,),0,0,1
1:25.469,30769,(,0,0,2
1:25.572,30806,t,0,0,4
1:25.686,30847,t,0,0,4
1:25.781,30881,),0,0,2
1:25.903,30925,(,0,0,0
1:25.942,30939,p,0,0,0
1:25.989,30956,),0,0,0
1:26.033,30972,(,0,0,1
1:26.097,30995,N,0,0,0
1:26.131,31007,),0,0,1
1:26.217,31038,(,0,0,2
1:26.333,31080,t,0,0,1
1:26.425,31113,),0,0,2
1:26.658,31197,(,0,0,0
1:26.700,31212,p,0,0,0
1:26.753,31231,),0,0,0
1:26.800,31248,(,0,0,1
1:26.856,31268,N,0,0,0
1:26.886,31279,),0,0,1
1:26.975,31311,(,0,0,2
1:27.089,31352,t,0,0,4
1:27.214,31397,t,0,0,4
1:27.275,31419,),0,0,2
1:27.392,31461,(,0,0,0
1:27.431,31475,p,0,0,0
1:27.483,31494,),0,0,0
1:27.508,31503,(,0,0,1
1:27.592,31533,N,0,0,0
1:27.639,31550,),0,0,1
1:27.692,31569,(,0,0,2
1:27.817,31614,t,0,0,4
1:27.922,31652,t,0,0,4
1:28.006,31682,),0,0,2
1:28.078,31708,(,0,0,0
1:28.136,31729,p,0,0,0
1:28.183,31746,),0,0,0
1:28.228,31762,(,0,0,1
1:28.286,31783,N,0,0,0
1:28.317,31794,),0,0,1
1:28.386,31819,(,0,0,2
1:28.525,31869,t,0,0,4
1:28.625,31905,t,0,0,4
1:28.708,31935,),0,0,2
1:28.825,31977,(,0,0,0
1:28.858,31989,p,0,0,0
1:28.908,32007,),0,0,0
1:28.964,32027,(,0,0,1
1:29.019,32047,N,0,0,0
1:29.072,32066,),0,0,1
1:29.153,32095,(,0,0,2
1:29.250,32130,t,0,0,4
1:29.372,32174,t,0,0,4
1:29.467,32208,),0,0,2
1:29.561,32242,(,0,0,0
1:29.594,32254,p,0,0,0
1:29.642,32271,),0,0,0
1:29.692,32289,(,0,0,1
1:29.753,32311,N,0,0,0
1:29.806,32330,),0,0,1
1:29.881,32357,(,0,0,2
1:29.992,32397,t,0,0,4
1:30.108,32439,t,0,0,4
1:30.203,32473,),0,0,2
1:30.292,32505,(,0,0,0
1:30.336,32521,p,0,0,0
1:30.389,32540,),0,0,0
1:30.436,32557,(,0,0,1
1:30.492,32577,N,0,0,0
1:30.525,32589,),0,0,1
1:30.617,32622,(,0,0,2
1:30.731,32663,t,0,0,4
1:30.853,32707,t,0,0,4
1:30.944,32740,),0,0,2
1:31.044,32776,(,0,0,0
1:31.086,32791,p,0,0,0
1:31.133,32808,),0,0,0
1:31.181,32825,(,0,0,1
1:31.242,32847,N,0,0,0
1:31.289,32864,),0,0,1
1:31.381,32897,(,0,0,2
1:31.469,32929,t,0,0,4
1:31.592,32973,t,0,0,4
1:31.683,33006,),0,0,2
1:31.781,33041,(,0,0,0
1:31.828,33058,p,0,0,0
1:31.875,33075,),0,0,0
1:31.908,33087,(,0,0,1
1:31.975,33111,N,0,0,0
1:32.025,33129,),0,0,1
1:32.086,33151,(,0,0,2
1:32.203,33193,t,0,0,4
1:32.322,33236,t,0,0,4
1:32.411,33268,),0,0,2
1:32.475,33291,(,0,0,0
1:32.536,33313,p,0,0,0
1:32.586,33331,),0,0,0
1:32.636,33349,(,0,0,1
1:32.694,33370,N,0,0,0
1:32.744,33388,),0,0,1
1:32.825,33417,(,0,0,2
1:32.931,33455,t,0,0,4
1:33.036,33493,t,0,0,4
1:33.111,33520,),0,0,2
1:33.239,33566,(,0,0,0
1:33.283,33582,p,0,0,0
1:33.333,33600,),0,0,0
1:33.378,33616,(,0,0,1
1:33.456,33644,N,0,0,0
1:33.506,33662,),0,0,1
1:33.553,33679,(,0,0,2
1:33.697,33731,t,0,0,4
1:33.819,33775,t,0,0,4
1:33.908,33807,),0,0,2
1:33.994,33838,(,0,0,0
1:34.033,33852,p,0,0,0
1:34.089,33872,),0,0,0
1:34.133,33888,(,0,0,1
1:34.194,33910,N,0,0,0
1:34.250,33930,),0,0,1
1:34.292,33945,(,0,0,2
1:34.425,33993,t,0,0,4
1:34.553,34039,t,0,0,4
1:34.636,34069,),0,0,2
1:34.714,34097,(,0,0,0
1:34.764,34115,p,0,0,0
1:34.811,34132,),0,0,0
1:34.847,34145,(,0,0,1
1:34.914,34169,N,0,0,0
1:34.958,34185,),0,0,1
1:34.972,34190,(,0,0,2
1:35.136,34249,t,0,0,4
1:35.261,34294,t,0,0,4
1:35.358,34329,),0,0,2
1:35.453,34363,(,0,0,0
1:35.492,34377,p,0,0,0
1:35.536,34393,),0,0,0
1:35.575,34407,(,0,0,1
1:35.639,34430,N,0,0,0
1:35.672,34442,),0,0,1
1:35.753,34471,(,0,0,2
1:35.875,34515,t,0,0,4
1:35.992,34557,t,0,0,4
1:36.103,34597,),0,0,2
1:36.172,34622,(,0,0,0
1:36.233,34644,p,0,0,0
1:36.286,34663,),0,0,0
1:36.317,34674,(,0,0,1
1:36.383,34698,N,0,0,0
1:36.428,34714,),0,0,1
1:36.489,34736,(,0,0,2
1:36.608,34779,t,0,0,4
1:36.742,34827,t,0,0,4
1:36.833,34860,),0,0,2
1:36.936,34897,(,0,0,0
1:36.978,34912,p,0,0,0
1:37.028,34930,),0,0,0
1:37.078,34948,(,0,0,1
1:37.139,34970,N,0,0,0
1:37.183,34986,),0,0,1
1:37.258,35013,(,0,0,2
1:37.356,35048,t,0,0,4
1:37.464,35087,t,0,0,4
1:37.569,35125,),0,0,2
1:37.669,35161,(,0,0,0
1:37.719,35179,p,0,0,0
1:37.772,35198,),0,0,0
1:37.808,35211,(,0,0,1
1:37.881,35237,N,0,0,0
1:37.936,35257,),0,0,1
1:38.019,35287,(,0,0,2
1:38.108,35319,t,0,0,4
1:38.217,35358,t,0,0,4
1:38.292,35385,),0,0,2
1:38.400,35424,(,0,0,0
1:38.444,35440,p,0,0,0
1:38.500,35460,),0,0,0
1:38.547,35477,(,0,0,1
1:38.606,35498,N,0,0,0
1:38.656,35516,),0,0,1
1:38.722,35540,(,0,0,2
1:38.833,35580,t,0,0,4
1:38.961,35626,t,0,0,4
1:39.039,35654,),0,0,2
1:39.142,35691,(,0,0,0
1:39.178,35704,p,0,0,0
1:39.219,35719,),0,0,0
1:39.247,35729,(,0,0,1
1:39.325,35757,N,0,0,0
1:39.372,35774,),0,0,1
1:39.428,35794,(,0,0,2
1:39.556,35840,t,0,0,4
1:39.669,35881,t,0,0,4
1:39.767,35916,),0,0,2
1:39.850,35946,(,0,0,0
1:39.894,35962,p,0,0,0
1:39.950,35982,),0,0,0
1:39.978,35992,(,0,0,1
1:40.053,36019,N,0,0,0
1:40.083,36030,),0,0,1
1:40.175,36063,(,0,0,2
1:40.294,36106,t,0,0,4
1:40.422,36152,t,0,0,4
1:40.511,36184,),0,0,2
1:40.608,36219,(,0,0,0
1:40.656,36236,p,0,0,0
1:40.706,36254,),0,0,0
1:40.744,36268,(,0,0,1
1:40.811,36292,N,0,0,0
1:40.856,36308,),0,0,1
1:40.928,36334,(,0,0,2
1:41.036,36373,t,0,0,4
1:41.142,36411,t,0,0,4
1:41.239,36446,),0,0,2
1:41.319,36475,(,0,0,0
1:41.392,36501,p,0,0,0
1:41.444,36520,),0,0,0
1:41.478,36532,(,0,0,1
1:41.550,36558,N,0,0,0
1:41.597,36575,),0,0,1
1:41.683,36606,(,0,0,2
1:41.769,36637,t,0,0,4
1:41.886,36679,t,0,0,4
1:41.972,36710,),0,0,2
1:42.072,36746,(,0,0,0
1:42.117,36762,p,0,0,0
1:42.169,36781,),0,0,0
1:42.211,36796,(,0,0,1
1:42.275,36819,N,0,0,0
1:42.328,36838,),0,0,1
1:42.400,36864,(,0,0,2
1:42.503,36901,t,0,0,4
1:42.611,36940,t,0,0,4
1:42.686,36967,),0,0,2
1:42.825,37017,(,0,0,0
1:42.861,37030,p,0,0,0
1:42.911,37048,),0,0,0
1:42.950,37062,(,0,0,1
1:43.031,37091,N,0,0,0
1:43.081,37109,),0,0,1
1:43.131,37127,(,0,0,2
1:43.261,37174,t,0,0,1
1:43.344,37204,),0,0,2
1:43.567,37284,(,0,0,0
1:43.608,37299,p,0,0,0
1:43.656,37316,),0,0,0
1:43.683,37326,(,0,0,1
1:43.767,37356,N,0,0,0
1:43.800,37368,),0,0,1
1:43.831,37379,(,0,0,2
1:44.003,37441,t,0,0,4
1:44.119,37483,t,0,0,4
1:44.217,37518,),0,0,2
1:44.311,37552,(,0,0,0
1:44.358,37569,p,0,0,0
1:44.408,37587,),0,0,0
1:44.453,37603,(,0,0,1
1:44.519,37627,N,0,0,0
1:44.550,37638,),0,0,1
1:44.631,37667,(,0,0,2
1:44.761,37714,t,0,0,4
1:44.875,37755,t,0,0,4
1:44.975,37791,),0,0,2
1:45.056,37820,(,0,0,0
1:45.103,37837,p,0,0,0
1:45.150,37854,),0,0,0
1:45.183,37866,(,0,0,1
1:45.256,37892,N,0,0,0
1:45.303,37909,),0,0,1
1:45.394,37942,(,0,0,2
1:45.489,37976,t,0,0,4
1:45.603,38017,t,0,0,4
1:45.711,38056,),0,0,2
1:45.775,38079,(,0,0,0
1:45.822,38096,p,0,0,0
1:45.875,38115,),0,0,0
1:45.914,38129,(,0,0,1
1:45.972,38150,N,0,0,0
1:46.025,38169,),0,0,1
1:46.097,38195,(,0,0,2
1:46.200,38232,t,0,0,4
1:46.314,38273,t,0,0,4
1:46.408,38307,),0,0,2
1:46.489,38336,(,0,0,0
1:46.542,38355,p,0,0,0
1:46.592,38373,),0,0,0
1:46.644,38392,(,0,0,1
1:46.700,38412,N,0,0,0
1:46.747,38429,),0,0,1
1:46.856,38468,(,0,0,2
1:46.931,38495,t,0,0,4
1:47.047,38537,t,0,0,4
1:47.136,38569,),0,0,2
1:47.244,38608,(,0,0,0
1:47.294,38626,p,0,0,0
1:47.344,38644,),0,0,0
1:47.386,38659,(,0,0,1
1:47.450,38682,N,0,0,0
1:47.506,38702,),0,0,1
1:47.578,38728,(,0,0,2
1:47.686,38767,t,0,0,4
1:47.800,38808,t,0,0,4
1:47.892,38841,),0,0,2
1:47.972,38870,(,0,0,0
1:48.022,38888,p,0,0,0
1:48.069,38905,),0,0,0
1:48.117,38922,(,0,0,1
1:48.178,38944,N,0,0,0
1:48.231,38963,),0,0,1
1:48.306,38990,(,0,0,2
1:48.414,39029,t,0,0,4
1:48.531,39071,t,0,0,4
1:48.619,39103,),0,0,2
1:48.714,39137,(,0,0,0
1:48.753,39151,p,0,0,0
1:48.794,39166,),0,0,0
1:48.842,39183,(,0,0,1
1:48.900,39204,N,0,0,0
1:48.931,39215,),0,0,1
1:49.033,39252,(,0,0,2
1:49.125,39285,t,0,0,4
1:49.236,39325,t,0,0,4
1:49.339,39362,),0,0,2
1:49.417,39390,(,0,0,0
1:49.464,39407,p,0,0,0
1:49.514,39425,),0,0,0
1:49.553,39439,(,0,0,1
1:49.614,39461,N,0,0,0
1:49.664,39479,),0,0,1
1:49.742,39507,(,0,0,2
1:49.850,39546,t,0,0,4
1:49.969,39589,t,0,0,4
1:50.075,39627,),0,0,2
1:50.153,39655,(,0,0,0
1:50.194,39670,p,0,0,0
1:50.244,39688,),0,0,0
1:50.286,39703,(,0,0,1
1:50.347,39725,N,0,0,0
1:50.394,39742,),0,0,1
1:50.519,39787,(,0,0,2
1:50.575,39807,t,0,0,4
1:50.692,39849,t,0,0,4
1:50.797,39887,),0,0,2
1:50.875,39915,(,0,0,0
1:50.939,39938,p,0,0,0
1:50.989,39956,),0,0,0
1:51.019,39967,(,0,0,1
1:51.086,39991,N,0,0,0
1:51.139,40010,),0,0,1
1:51.158,40017,(,0,0,2
1:51.319,40075,t,0,0,4
1:51.436,40117,t,0,0,4
1:51.539,40154,),0,0,2
1:51.622,40184,(,0,0,0
1:51.681,40205,p,0,0,0
1:51.731,40223,),0,0,0
1:51.783,40242,(,0,0,1
1:51.836,40261,N,0,0,0
1:51.883,40278,),0,0,1
1:51.931,40295,(,0,0,2
1:52.047,40337,t,0,0,4
1:52.156,40376,t,0,0,4
1:52.219,40399,),0,0,2
1:52.328,40438,(,0,0,0
1:52.397,40463,p,0,0,0
1:52.439,40478,),0,0,0
1:52.486,40495,(,0,0,1
1:52.553,40519,N,0,0,0
1:52.583,40530,),0,0,1
1:52.625,40545,(,0,0,2
1:52.781,40601,t,0,0,4
1:52.892,40641,t,0,0,4
1:52.986,40675,),0,0,2
1:53.072,40706,(,0,0,0
1:53.117,40722,p,0,0,0
1:53.172,40742,),0,0,0
1:53.217,40758,(,0,0,1
1:53.272,40778,N,0,0,0
1:53.303,40789,),0,0,1
1:53.333,40800,(,0,0,2
1:53.506,40862,t,0,0,4
1:53.631,40907,t,0,0,4
1:53.719,40939,),0,0,2
1:53.836,40981,(,0,0,0
1:53.878,40996,p,0,0,0
1:53.931,41015,),0,0,0
1:53.983,41034,(,0,0,1
1:54.042,41055,N,0,0,0
1:54.092,41073,),0,0,1
1:54.217,41118,(,0,0,2
1:54.286,41143,t,0,0,4
1:54.406,41186,t,0,0,4
1:54.508,41223,),0,0,2
1:54.614,41261,(,0,0,0
1:54.653,41275,p,0,0,0
1:54.700,41292,),0,0,0
1:54.722,41300,(,0,0,1
1:54.806,41330,N,0,0,0
1:54.839,41342,),0,0,1
1:54.933,41376,(,0,0,2
1:55.039,41414,t,0,0,4
1:55.167,41460,t,0,0,4
1:55.258,41493,),0,0,2
1:55.378,41536,(,0,0,0
1:55.411,41548,p,0,0,0
1:55.458,41565,),0,0,0
1:55.489,41576,(,0,0,1
1:55.558,41601,N,0,0,0
1:55.608,41619,),0,0,1
1:55.658,41637,(,0,0,2
1:55.778,41680,t,0,0,4
1:55.892,41721,t,0,0,4
1:55.958,41745,),0,0,2
1:56.083,41790,(,0,0,0
1:56.144,41812,p,0,0,0
1:56.194,41830,),0,0,0
1:56.225,41841,(,0,0,1
1:56.294,41866,N,0,0,0
1:56.344,41884,),0,0,1
1:56.400,41904,(,0,0,2
1:56.522,41948,t,0,0,4
1:56.639,41990,t,0,0,4
1:56.736,42025,),0,0,2
1:56.856,42068,(,0,0,0
1:56.900,42084,p,0,0,0
1:56.950,42102,),0,0,0
1:56.989,42116,(,0,0,1
1:57.050,42138,N,0,0,0
1:57.100,42156,),0,0,1
1:57.192,42189,(,0,0,2
1:57.267,42216,t,0,0,4
1:57.381,42257,t,0,0,4
1:57.481,42293,),0,0,2
1:57.589,42332,(,0,0,0
1:57.644,42352,p,0,0,0
1:57.697,42371,),0,0,0
1:57.725,42381,(,0,0,1
1:57.806,42410,N,0,0,0
1:57.839,42422,),0,0,1
1:57.867,42432,(,0,0,2
1:58.042,42495,t,0,0,4
1:58.164,42539,t,0,0,4
1:58.250,42570,),0,0,2
1:58.358,42609,(,0,0,0
1:58.403,42625,p,0,0,0
1:58.456,42644,),0,0,0
1:58.511,42664,(,0,0,1
1:58.567,42684,N,0,0,0
1:58.600,42696,),0,0,1
1:58.953,42823,(,0,0,2
1:59.000,42840,t,0,0,1
1:59.072,42866,),0,0,2
1:59.356,42968,(,0,0,1
1:59.425,42993,N,0,0,0
1:59.500,43020,),0,0,1
1:59.536,43033,(,0,0,2
1:59.631,43067,t,0,0,1
1:59.758,43113,),0,0,2
2:00.422,43352,(,0,0,0
2:00.461,43366,p,0,0,0
2:00.497,43379,),0,0,0
2:00.525,43389,(,0,0,1
2:00.594,43414,N,0,0,0
2:00.628,43426,),0,0,1
2:00.772,43478,(,0,0,2
2:00.869,43513,t,0,0,1
2:00.967,43548,),0,0,2
2:01.089,43592,(,0,0,1
2:01.208,43635,N,0,0,0
2:01.239,43646,),0,0,1
2:01.383,43698,(,0,0,2
2:01.467,43728,t,0,0,0
2:01.581,43769,),0,0,2
2:02.150,43974,(,0,0,0
2:02.200,43992,p,0,0,0
2:02.253,44011,),0,0,0
2:02.283,44022,(,0,0,1
2:02.344,44044,N,0,0,0
2:02.394,44062,),0,0,1
2:02.475,44091,(,0,0,2
2:02.586,44131,t,0,0,1
2:02.683,44166,),0,0,2
2:02.939,44258,(,0,0,0
2:02.975,44271,p,0,0,0
2:03.019,44287,),0,0,0
2:03.058,44301,(,0,0,1
2:03.125,44325,N,0,0,0
2:03.175,44343,),0,0,1
2:03.242,44367,(,0,0,2
2:03.358,44409,t,0,0,4
2:03.467,44448,t,0,0,4
2:03.558,44481,),0,0,2
2:03.697,44531,(,0,0,0
2:03.744,44548,p,0,0,0
2:03.778,44560,),0,0,0
2:03.792,44565,(,0,0,1
2:03.847,44585,N,0,0,0
2:03.897,44603,),0,0,1
2:03.964,44627,(,0,0,2
2:04.069,44665,t,0,0,1
2:04.181,44705,),0,0,2
2:04.467,44808,(,0,0,0
2:04.508,44823,p,0,0,0
2:04.558,44841,),0,0,0
2:04.594,44854,(,0,0,1
2:04.664,44879,N,0,0,0
2:04.711,44896,),0,0,1
2:04.797,44927,(,0,0,2
2:04.906,44966,t,0,0,4
2:05.022,45008,t,0,0,4
2:05.117,45042,),0,0,2
2:05.231,45083,(,0,0,0
2:05.289,45104,p,0,0,0
2:05.342,45123,),0,0,0
2:05.392,45141,(,0,0,1
2:05.450,45162,N,0,0,0
2:05.506,45182,),0,0,1
2:05.575,45207,(,0,0,2
2:05.683,45246,t,0,0,4
2:05.797,45287,t,0,0,4
2:05.864,45311,),0,0,2
2:06.000,45360,(,0,0,0
2:06.044,45376,p,0,0,0
2:06.086,45391,),0,0,0
2:06.100,45396,(,0,0,1
2:06.172,45422,N,0,0,0
2:06.222,45440,),0,0,1
2:06.297,45467,(,0,0,2
2:06.408,45507,t,0,0,1
2:06.511,45544,),0,0,2
2:06.731,45623,(,0,0,0
2:06.775,45639,p,0,0,0
2:06.825,45657,),0,0,0
2:06.858,45669,(,0,0,1
2:06.925,45693,N,0,0,0
2:06.975,45711,),0,0,1
2:07.044,45736,(,0,0,2
2:07.161,45778,t,0,0,4
2:07.275,45819,t,0,0,4
2:07.389,45860,),0,0,2
2:07.481,45893,(,0,0,0
2:07.522,45908,p,0,0,0
2:07.572,45926,),0,0,0
2:07.625,45945,(,0,0,1
2:07.681,45965,N,0,0,0
2:07.711,45976,),0,0,1
2:07.844,46024,(,0,0,2
2:07.925,46053,t,0,0,4
2:08.044,46096,t,0,0,4
2:08.150,46134,),0,0,2
2:08.317,46194,(,0,0,1
2:08.372,46214,N,0,0,0
2:08.425,46233,),0,0,1
2:08.478,46252,(,0,0,2
2:08.600,46296,t,0,0,1
2:08.708,46335,),0,0,2
2:08.969,46429,(,0,0,0
2:09.008,46443,p,0,0,0
2:09.058,46461,),0,0,0
2:09.097,46475,(,0,0,1
2:09.161,46498,N,0,0,0
2:09.208,46515,),0,0,1
2:09.244,46528,(,0,0,2
2:09.381,46577,t,0,0,4
2:09.492,46617,t,0,0,4
2:09.608,46659,),0,0,2
2:09.683,46686,(,0,0,0
2:09.739,46706,p,0,0,0
2:09.792,46725,),0,0,0
2:09.831,46739,(,0,0,1
2:09.897,46763,N,0,0,0
2:09.944,46780,),0,0,1
2:10.047,46817,(,0,0,2
2:10.119,46843,t,0,0,4
2:10.231,46883,t,0,0,4
2:10.328,46918,),0,0,2
2:10.461,46966,(,0,0,1
2:10.536,46993,N,0,0,0
2:10.589,47012,),0,0,1
2:10.669,47041,(,0,0,2
2:10.758,47073,t,0,0,1
2:10.864,47111,),0,0,2
2:11.164,47219,(,0,0,0
2:11.214,47237,p,0,0,0
2:11.269,47257,),0,0,0
2:11.317,47274,(,0,0,1
2:11.375,47295,N,0,0,0
2:11.406,47306,),0,0,1
2:11.489,47336,(,0,0,2
2:11.606,47378,t,0,0,4
2:11.722,47420,t,0,0,4
2:11.831,47459,),0,0,2
2:11.922,47492,(,0,0,0
2:11.972,47510,p,0,0,0
2:12.025,47529,),0,0,0
2:12.064,47543,(,0,0,1
2:12.139,47570,N,0,0,0
2:12.169,47581,),0,0,1
2:12.253,47611,t,0,0,3
2:12.367,47652,),0,0,2
2:12.406,47666,(,0,0,0
2:12.489,47696,p,0,0,0
2:12.553,47719,),0,0,0
2:12.594,47734,(,0,0,1
2:12.661,47758,N,0,0,0
2:12.714,47777,),0,0,1
2:12.783,47802,(,0,0,2
2:12.889,47840,t,0,0,1
2:12.994,47878,),0,0,2
2:13.400,48024,(,0,0,0
2:13.442,48039,p,0,0,0
2:13.489,48056,),0,0,0
2:13.528,48070,(,0,0,1
2:13.583,48090,N,0,0,0
2:13.614,48101,),0,0,1
2:13.708,48135,(,0,0,2
2:13.831,48179,t,0,0,4
2:13.947,48221,t,0,0,4
2:14.056,48260,),0,0,2
2:14.125,48285,(,0,0,0
2:14.181,48305,p,0,0,0
2:14.231,48323,),0,0,0
2:14.269,48337,(,0,0,1
2:14.342,48363,N,0,0,0
2:14.392,48381,),0,0,1
2:14.492,48417,(,0,0,2
2:14.572,48446,t,0,0,1
2:14.675,48483,),0,0,2
2:14.803,48529,(,0,0,1
2:14.889,48560,N,0,0,0
2:14.942,48579,),0,0,1
2:15.033,48612,(,0,0,2
2:15.125,48645,t,0,0,1
2:15.233,48684,),0,0,2
2:15.639,48830,(,0,0,0
2:15.686,48847,p,0,0,0
2:15.736,48865,),0,0,0
2:15.767,48876,(,0,0,1
2:15.839,48902,N,0,0,0
2:15.889,48920,),0,0,1
2:15.986,48955,(,0,0,2
2:16.072,48986,t,0,0,4
2:16.183,49026,t,0,0,4
2:16.264,49055,),0,0,2
2:16.372,49094,(,0,0,0
2:16.414,49109,p,0,0,0
2:16.464,49127,),0,0,0
2:16.500,49140,(,0,0,1
2:16.575,49167,N,0,0,0
2:16.622,49184,),0,0,1
2:16.700,49212,(,0,0,2
2:16.792,49245,t,0,0,1
2:16.875,49275,),0,0,2
2:17.033,49332,(,0,0,1
2:17.117,49362,N,0,0,0
2:17.211,49396,),0,0,1
2:17.269,49417,(,0,0,2
2:17.358,49449,t,0,0,1
2:17.467,49488,),0,0,2
2:17.833,49620,(,0,0,0
2:17.878,49636,p,0,0,0
2:17.928,49654,),0,0,0
2:17.967,49668,(,0,0,1
2:18.036,49693,N,0,0,0
2:18.086,49711,),0,0,1
2:18.175,49743,(,0,0,2
2:18.283,49782,t,0,0,4
2:18.400,49824,t,0,0,4
2:18.472,49850,),0,0,2
2:18.564,49883,(,0,0,1
2:18.686,49927,N,0,0,0
2:18.758,49953,),0,0,1
2:18.808,49971,(,0,0,2
2:18.947,50021,t,0,0,1
2:19.064,50063,),0,0,2
2:19.067,50064,(,0,0,0
2:19.081,50069,p,0,0,0
2:19.119,50083,),0,0,0
2:19.272,50138,(,0,0,1
2:19.344,50164,N,0,0,0
2:19.436,50197,),0,0,1
2:19.500,50220,(,0,0,2
2:19.567,50244,t,0,0,1
2:19.681,50285,),0,0,2
2:20.064,50423,(,0,0,0
2:20.103,50437,p,0,0,0
2:20.153,50455,),0,0,0
2:20.194,50470,(,0,0,1
2:20.247,50489,N,0,0,0
2:20.292,50505,),0,0,1
2:20.333,50520,(,0,0,2
2:20.478,50572,t,0,0,4
2:20.606,50618,t,0,0,4
2:20.672,50642,),0,0,2
2:20.769,50677,(,0,0,0
2:20.822,50696,p,0,0,0
2:20.872,50714,),0,0,0
2:20.919,50731,(,0,0,1
2:20.981,50753,N,0,0,0
2:21.011,50764,),0,0,1
2:21.125,50805,(,0,0,2
2:21.225,50841,t,0,0,4
2:21.336,50881,t,0,0,4
2:21.392,50901,),0,0,2
2:21.531,50951,(,0,0,0
2:21.583,50970,p,0,0,0
2:21.639,50990,),0,0,0
2:21.694,51010,(,0,0,1
2:21.753,51031,N,0,0,0
2:21.786,51043,),0,0,1
2:21.886,51079,(,0,0,2
2:21.992,51117,t,0,0,1
2:22.078,51148,),0,0,2
2:22.289,51224,(,0,0,0
2:22.328,51238,p,0,0,0
2:22.378,51256,),0,0,0
2:22.403,51265,(,0,0,1
2:22.478,51292,N,0,0,0
2:22.528,51310,),0,0,1
2:22.589,51332,(,0,0,2
2:22.708,51375,t,0,0,1
2:22.806,51410,),0,0,2
2:22.961,51466,(,0,0,0
2:23.025,51489,p,0,0,0
2:23.078,51508,),0,0,0
2:23.106,51518,(,0,0,1
2:23.183,51546,N,0,0,0
2:23.214,51557,),0,0,1
2:23.317,51594,(,0,0,2
2:23.408,51627,t,0,0,4
2:23.519,51667,t,0,0,4
2:23.611,51700,),0,0,2
2:23.700,51732,(,0,0,0
2:23.747,51749,p,0,0,0
2:23.800,51768,),0,0,0
2:23.842,51783,(,0,0,1
2:23.906,51806,N,0,0,0
2:23.950,51822,),0,0,1
2:24.011,51844,(,0,0,2
2:24.128,51886,t,0,0,4
2:24.239,51926,t,0,0,4
2:24.331,51959,),0,0,2
2:24.403,51985,(,0,0,0
2:24.461,52006,p,0,0,0
2:24.514,52025,),0,0,0
2:24.539,52034,(,0,0,1
2:24.628,52066,N,0,0,0
2:24.661,52078,),0,0,1
2:24.778,52120,(,0,0,2
2:24.869,52153,t,0,0,4
2:24.992,52197,t,0,0,4
2:25.072,52226,),0,0,2
2:25.156,52256,(,0,0,0
2:25.203,52273,p,0,0,0
2:25.256,52292,),0,0,0
2:25.272,52298,(,0,0,1
2:25.364,52331,N,0,0,0
2:25.400,52344,),0,0,1
2:25.486,52375,(,0,0,2
2:25.608,52419,t,0,0,4
2:25.753,52471,t,0,0,4
2:25.828,52498,),0,0,2
2:25.867,52512,(,0,0,0
2:25.944,52540,p,0,0,0
2:25.994,52558,),0,0,0
2:26.036,52573,(,0,0,1
2:26.103,52597,N,0,0,0
2:26.153,52615,),0,0,1
2:26.225,52641,(,0,0,2
2:26.333,52680,t,0,0,4
2:26.444,52720,t,0,0,4
2:26.536,52753,),0,0,2
2:26.603,52777,(,0,0,0
2:26.656,52796,p,0,0,0
2:26.703,52813,),0,0,0
2:26.739,52826,(,0,0,1
2:26.806,52850,N,0,0,0
2:26.853,52867,),0,0,1
2:26.933,52896,(,0,0,2
2:27.031,52931,t,0,0,4
2:27.150,52974,t,0,0,4
2:27.228,53002,),0,0,2
2:27.319,53035,(,0,0,0
2:27.361,53050,p,0,0,0
2:27.406,53066,),0,0,0
2:27.439,53078,(,0,0,1
2:27.511,53104,N,0,0,0
2:27.542,53115,),0,0,1
2:27.653,53155,(,0,0,2
2:27.739,53186,t,0,0,4
2:27.878,53236,t,0,0,4
2:27.953,53263,),0,0,2
2:28.042,53295,(,0,0,0
2:28.097,53315,p,0,0,0
2:28.142,53331,),0,0,0
2:28.175,53343,(,0,0,1
2:28.256,53372,N,0,0,0
2:28.300,53388,),0,0,1
2:28.358,53409,(,0,0,2
2:28.494,53458,t,0,0,4
2:28.636,53509,t,0,0,4
2:28.692,53529,),0,0,2
2:28.800,53568,(,0,0,0
2:28.839,53582,p,0,0,0
2:28.894,53602,),0,0,0
2:28.933,53616,(,0,0,1
2:28.997,53639,N,0,0,0
2:29.031,53651,),0,0,1
2:29.092,53673,(,0,0,2
2:29.231,53723,t,0,0,4
2:29.331,53759,t,0,0,4
2:29.433,53796,),0,0,2
2:29.497,53819,(,0,0,0
2:29.547,53837,p,0,0,0
2:29.597,53855,),0,0,0
2:29.639,53870,(,0,0,1
2:29.697,53891,N,0,0,0
2:29.728,53902,),0,0,1
2:29.850,53946,(,0,0,2
2:29.928,53974,t,0,0,4
2:30.036,54013,t,0,0,4
2:30.106,54038,),0,0,2
2:30.222,54080,(,0,0,0
2:30.253,54091,p,0,0,0
2:30.306,54110,),0,0,0
2:30.342,54123,(,0,0,1
2:30.403,54145,N,0,0,0
2:30.439,54158,),0,0,1
2:30.544,54196,(,0,0,2
2:30.636,54229,t,0,0,4
2:30.758,54273,t,0,0,4
2:30.811,54292,),0,0,2
2:30.936,54337,(,0,0,0
2:30.972,54350,p,0,0,0
2:31.008,54363,),0,0,0
2:31.031,54371,(,0,0,1
2:31.097,54395,N,0,0,0
2:31.133,54408,),0,0,1
2:31.244,54448,(,0,0,2
2:31.339,54482,t,0,0,4
2:31.489,54536,t,0,0,4
2:31.550,54558,),0,0,2
2:31.664,54599,(,0,0,0
2:31.719,54619,p,0,0,0
2:31.769,54637,),0,0,0
2:31.806,54650,(,0,0,1
2:31.878,54676,N,0,0,0
2:31.908,54687,),0,0,1
2:32.011,54724,(,0,0,2
2:32.117,54762,t,0,0,4
2:32.225,54801,t,0,0,4
2:32.325,54837,),0,0,2
2:32.403,54865,(,0,0,0
2:32.472,54890,p,0,0,0
2:32.525,54909,),0,0,0
2:32.544,54916,(,0,0,1
2:32.631,54947,N,0,0,0
2:32.675,54963,),0,0,1
2:32.750,54990,(,0,0,2
2:32.847,55025,t,0,0,1
2:32.942,55059,),0,0,2
2:33.167,55140,(,0,0,0
2:33.206,55154,p,0,0,0
2:33.253,55171,),0,0,0
2:33.303,55189,(,0,0,1
2:33.361,55210,N,0,0,0
2:33.394,55222,),0,0,1
2:33.447,55241,(,0,0,2
2:33.589,55292,t,0,0,4
2:33.706,55334,t,0,0,4
2:33.792,55365,),0,0,2
2:33.897,55403,(,0,0,0
2:33.936,55417,p,0,0,0
2:33.967,55428,),0,0,0
2:33.978,55432,(,0,0,1
2:34.042,55455,N,0,0,0
2:34.086,55471,),0,0,1
2:34.172,55502,(,0,0,2
2:34.275,55539,t,0,0,1
2:34.383,55578,),0,0,2
2:34.664,55679,(,0,0,0
2:34.703,55693,p,0,0,0
2:34.756,55712,),0,0,0
2:34.803,55729,(,0,0,1
2:34.867,55752,N,0,0,0
2:34.897,55763,),0,0,1
2:35.022,55808,(,0,0,2
2:35.111,55840,t,0,0,4
2:35.236,55885,t,0,0,4
2:35.292,55905,),0,0,2
2:35.439,55958,(,0,0,0
2:35.478,55972,p,0,0,0
2:35.525,55989,),0,0,0
2:35.575,56007,(,0,0,1
2:35.633,56028,N,0,0,0
2:35.664,56039,),0,0,1
2:35.764,56075,(,0,0,2
2:35.872,56114,t,0,0,4
2:35.992,56157,t,0,0,4
2:36.078,56188,),0,0,2
2:36.192,56229,(,0,0,0
2:36.225,56241,p,0,0,0
2:36.275,56259,),0,0,0
2:36.308,56271,(,0,0,1
2:36.372,56294,N,0,0,0
2:36.419,56311,),0,0,1
2:36.486,56335,(,0,0,2
2:36.600,56376,t,0,0,4
2:36.717,56418,t,0,0,4
2:36.806,56450,),0,0,2
2:36.908,56487,(,0,0,0
2:36.947,56501,p,0,0,0
2:36.989,56516,),0,0,0
2:37.011,56524,(,0,0,1
2:37.081,56549,N,0,0,0
2:37.131,56567,),0,0,1
2:37.250,56610,(,0,0,2
2:37.322,56636,t,0,0,1
2:37.442,56679,),0,0,2
2:37.608,56739,(,0,0,0
2:37.686,56767,p,0,0,0
2:37.731,56783,),0,0,0
2:37.753,56791,(,0,0,1
2:37.831,56819,N,0,0,0
2:37.864,56831,),0,0,1
2:37.947,56861,(,0,0,2
2:38.067,56904,t,0,0,4
2:38.164,56939,t,0,0,4
2:38.233,56964,),0,0,2
2:38.381,57017,(,0,0,0
2:38.417,57030,p,0,0,0
2:38.467,57048,),0,0,0
2:38.481,57053,(,0,0,1
2:38.569,57085,N,0,0,0
2:38.606,57098,),0,0,1
2:38.733,57144,(,0,0,2
2:38.817,57174,t,0,0,4
2:38.928,57214,t,0,0,4
2:39.006,57242,),0,0,2
2:39.125,57285,(,0,0,0
2:39.161,57298,p,0,0,0
2:39.211,57316,),0,0,0
2:39.242,57327,(,0,0,1
2:39.319,57355,N,0,0,0
2:39.364,57371,),0,0,1
2:39.439,57398,(,0,0,2
2:39.542,57435,t,0,0,4
2:39.733,57504,t,0,0,4
2:39.761,57514,),0,0,2
2:39.828,57538,(,0,0,0
2:39.864,57551,p,0,0,0
2:39.919,57571,),0,0,0
2:39.936,57577,(,0,0,1
2:40.011,57604,N,0,0,0
2:40.050,57618,),0,0,1
2:40.125,57645,(,0,0,2
2:40.239,57686,t,0,0,1
2:40.328,57718,),0,0,2
2:40.503,57781,(,0,0,0
2:40.561,57802,p,0,0,0
2:40.606,57818,),0,0,0
2:40.619,57823,(,0,0,1
2:40.711,57856,N,0,0,0
2:40.747,57869,),0,0,1
2:40.894,57922,(,0,0,2
2:40.950,57942,t,0,0,4
2:41.056,57980,t,0,0,4
2:41.114,58001,),0,0,2
2:41.247,58049,(,0,0,0
2:41.286,58063,p,0,0,0
2:41.344,58084,),0,0,0
2:41.375,58095,(,0,0,1
2:41.444,58120,N,0,0,0
2:41.481,58133,),0,0,1
2:41.600,58176,(,0,0,2
2:41.700,58212,t,0,0,4
2:41.833,58260,t,0,0,4
2:41.861,58270,),0,0,2
2:41.997,58319,(,0,0,0
2:42.036,58333,p,0,0,0
2:42.081,58349,),0,0,0
2:42.111,58360,(,0,0,1
2:42.181,58385,N,0,0,0
2:42.214,58397,),0,0,1
2:42.322,58436,(,0,0,2
2:42.414,58469,t,0,0,1
2:42.511,58504,),0,0,2
2:42.683,58566,(,0,0,0
2:42.739,58586,p,0,0,0
2:42.783,58602,),0,0,0
2:42.828,58618,(,0,0,1
2:42.886,58639,N,0,0,0
2:42.917,58650,),0,0,1
2:43.033,58692,(,0,0,2
2:43.103,58717,t,0,0,1
2:43.208,58755,),0,0,2
2:43.403,58825,(,0,0,0
2:43.439,58838,p,0,0,0
2:43.481,58853,),0,0,0
2:43.528,58870,(,0,0,1
2:43.583,58890,N,0,0,0
2:43.617,58902,),0,0,1
2:43.692,58929,(,0,0,2
2:43.803,58969,t,0,0,1
2:43.892,59001,),0,0,2
2:43.981,59033,(,0,0,1
2:44.056,59060,N,0,0,0
2:44.103,59077,),0,0,1
2:44.211,59116,(,0,0,2
2:44.281,59141,t,0,0,1
2:44.397,59183,),0,0,2
2:44.806,59330,(,0,0,0
2:44.836,59341,p,0,0,0
2:44.883,59358,),0,0,0
2:44.919,59371,(,0,0,1
2:44.989,59396,N,0,0,0
2:45.022,59408,),0,0,1
2:45.092,59433,(,0,0,2
2:45.236,59485,t,0,0,4
2:45.364,59531,t,0,0,4
2:45.436,59557,),0,0,2
2:45.486,59575,(,0,0,0
2:45.558,59601,p,0,0,0
2:45.614,59621,),0,0,0
2:45.650,59634,(,0,0,1
2:45.722,59660,N,0,0,0
2:45.753,59671,),0,0,1
2:45.886,59719,(,0,0,2
2:45.950,59742,t,0,0,4
2:46.061,59782,t,0,0,4
2:46.136,59809,),0,0,2
2:46.239,59846,(,0,0,0
2:46.275,59859,p,0,0,0
2:46.322,59876,),0,0,0
2:46.356,59888,(,0,0,1
2:46.428,59914,N,0,0,0
2:46.481,59933,),0,0,1
2:46.550,59958,(,0,0,2
2:46.661,59998,t,0,0,4
2:46.769,60037,t,0,0,4
2:46.847,60065,),0,0,2
2:46.919,60091,(,0,0,0
2:46.986,60115,p,0,0,0
2:47.036,60133,),0,0,0
2:47.078,60148,(,0,0,1
2:47.133,60168,N,0,0,0
2:47.186,60187,),0,0,1
2:47.231,60203,(,0,0,2
2:47.353,60247,t,0,0,4
2:47.464,60287,t,0,0,4
2:47.550,60318,),0,0,2
2:47.667,60360,(,0,0,0
2:47.706,60374,p,0,0,0
2:47.753,60391,),0,0,0
2:47.786,60403,(,0,0,1
2:47.867,60432,N,0,0,0
2:47.914,60449,),0,0,1
2:47.978,60472,(,0,0,2
2:48.103,60517,t,0,0,4
2:48.222,60560,t,0,0,4
2:48.317,60594,),0,0,2
2:48.419,60631,(,0,0,0
2:48.464,60647,p,0,0,0
2:48.514,60665,),0,0,0
2:48.547,60677,(,0,0,1
2:48.619,60703,N,0,0,0
2:48.653,60715,),0,0,1
2:48.683,60726,(,0,0,2
2:48.847,60785,t,0,0,4
2:48.964,60827,t,0,0,4
2:49.044,60856,),0,0,2
2:49.136,60889,(,0,0,0
2:49.189,60908,p,0,0,0
2:49.239,60926,),0,0,0
2:49.281,60941,(,0,0,1
2:49.342,60963,N,0,0,0
2:49.394,60982,),0,0,1
2:49.458,61005,(,0,0,2
2:49.561,61042,t,0,0,4
2:49.669,61081,t,0,0,4
2:49.733,61104,),0,0,2
2:49.822,61136,(,0,0,0
2:49.894,61162,p,0,0,0
2:49.944,61180,),0,0,0
2:49.981,61193,(,0,0,1
2:50.047,61217,N,0,0,0
2:50.100,61236,),0,0,1
2:50.122,61244,(,0,0,2
2:50.275,61299,t,0,0,4
2:50.381,61337,t,0,0,4
2:50.439,61358,),0,0,2
2:50.558,61401,(,0,0,0
2:50.611,61420,p,0,0,0
2:50.664,61439,),0,0,0
2:50.686,61447,(,0,0,1
2:50.769,61477,N,0,0,0
2:50.800,61488,),0,0,1
2:50.900,61524,(,0,0,2
2:51.006,61562,t,0,0,4
2:51.111,61600,t,0,0,4
2:51.189,61628,),0,0,2
2:51.286,61663,(,0,0,0
2:51.331,61679,p,0,0,0
2:51.378,61696,),0,0,0
2:51.397,61703,(,0,0,1
2:51.481,61733,N,0,0,0
2:51.514,61745,),0,0,1
2:51.628,61786,(,0,0,2
2:51.717,61818,t,0,0,4
2:51.814,61853,t,0,0,4
2:51.914,61889,),0,0,2
2:52.003,61921,(,0,0,0
2:52.050,61938,p,0,0,0
2:52.100,61956,),0,0,0
2:52.147,61973,(,0,0,1
2:52.206,61994,N,0,0,0
2:52.261,62014,),0,0,1
2:52.303,62029,(,0,0,2
2:52.439,62078,t,0,0,1
2:52.533,62112,),0,0,2
2:52.675,62163,(,0,0,1
2:52.742,62187,N,0,0,0
2:52.789,62204,),0,0,1
2:52.853,62227,(,0,0,2
2:52.942,62259,t,0,0,1
2:53.031,62291,),0,0,2
2:53.311,62392,(,0,0,0
2:53.372,62414,p,0,0,0
2:53.422,62432,),0,0,0
2:53.458,62445,(,0,0,1
2:53.528,62470,N,0,0,0
2:53.578,62488,),0,0,1
2:53.639,62510,(,0,0,2
2:53.753,62551,t,0,0,4
2:53.867,62592,t,0,0,4
2:53.972,62630,),0,0,2
2:54.092,62673,(,0,0,0
2:54.150,62694,p,0,0,0
2:54.197,62711,),0,0,0
2:54.219,62719,(,0,0,1
2:54.294,62746,N,0,0,0
2:54.325,62757,),0,0,1
2:54.400,62784,(,0,0,2
2:54.519,62827,t,0,0,4
2:54.636,62869,t,0,0,4
2:54.694,62890,),0,0,2
2:54.772,62918,(,0,0,0
2:54.814,62933,p,0,0,0
2:54.853,62947,),0,0,0
2:54.886,62959,(,0,0,1
2:54.956,62984,N,0,0,0
2:54.989,62996,),0,0,1
2:55.094,63034,(,0,0,2
2:55.186,63067,t,0,0,4
2:55.331,63119,t,0,0,4
2:55.394,63142,),0,0,2
2:55.608,63219,(,0,0,0
2:55.661,63238,p,0,0,0
2:55.711,63256,),0,0,0
2:55.728,63262,(,0,0,1
2:55.806,63290,N,0,0,0
2:55.861,63310,),0,0,1
2:55.939,63338,(,0,0,2
2:56.047,63377,t,0,0,4
2:56.164,63419,t,0,0,4
2:56.256,63452,),0,0,2
2:56.350,63486,(,0,0,0
2:56.400,63504,p,0,0,0
2:56.447,63521,),0,0,0
2:56.483,63534,(,0,0,1
2:56.542,63555,N,0,0,0
2:56.597,63575,),0,0,1
2:56.669,63601,(,0,0,2
2:56.758,63633,t,0,0,4
2:56.881,63677,t,0,0,4
2:56.961,63706,),0,0,2
2:57.067,63744,(,0,0,0
2:57.106,63758,p,0,0,0
2:57.156,63776,),0,0,0
2:57.211,63796,(,0,0,1
2:57.264,63815,N,0,0,0
2:57.308,63831,),0,0,1
2:57.372,63854,(,0,0,2
2:57.492,63897,t,0,0,4
2:57.631,63947,t,0,0,4
2:57.717,63978,),0,0,2
2:57.844,64024,(,0,0,0
2:57.883,64038,p,0,0,0
2:57.928,64054,),0,0,0
2:57.961,64066,(,0,0,1
2:58.028,64090,N,0,0,0
2:58.075,64107,),0,0,1
2:58.086,64111,(,0,0,2
2:58.256,64172,t,0,0,4
2:58.375,64215,t,0,0,4
2:58.486,64255,),0,0,2
2:58.583,64290,(,0,0,0
2:58.636,64309,p,0,0,0
2:58.683,64326,),0,0,0
2:58.719,64339,(,0,0,1
2:58.781,64361,N,0,0,0
2:58.836,64381,),0,0,1
2:58.908,64407,(,0,0,2
2:59.014,64445,t,0,0,4
2:59.128,64486,t,0,0,4
2:59.253,64531,),0,0,2
2:59.353,64567,(,0,0,0
2:59.397,64583,p,0,0,0
2:59.450,64602,),0,0,0
2:59.489,64616,(,0,0,1
2:59.553,64639,N,0,0,0
2:59.606,64658,),0,0,1
2:59.619,64663,(,0,0,2
2:59.772,64718,t,0,0,4
2:59.903,64765,t,0,0,4
2:59.981,64793,),0,0,2
3:00.083,64830,(,0,0,0
3:00.131,64847,p,0,0,0
3:00.181,64865,),0,0,0
3:00.225,64881,(,0,0,1
3:00.292,64905,N,0,0,0
3:00.342,64923,),0,0,1
3:00.406,64946,(,0,0,2
3:00.514,64985,t,0,0,4
3:00.622,65024,t,0,0,4
3:00.722,65060,),0,0,2
3:00.803,65089,(,0,0,0
3:00.861,65110,p,0,0,0
3:00.911,65128,),0,0,0
3:00.950,65142,(,0,0,1
3:01.011,65164,N,0,0,0
3:01.042,65175,),0,0,1
3:01.100,65196,(,0,0,2
3:01.233,65244,t,0,0,4
3:01.358,65289,t,0,0,4
3:01.467,65328,),0,0,2
3:01.544,65356,(,0,0,0
3:01.592,65373,p,0,0,0
3:01.642,65391,),0,0,0
3:01.689,65408,(,0,0,1
3:01.753,65431,N,0,0,0
3:01.806,65450,),0,0,1
3:01.869,65473,(,0,0,2
3:01.994,65518,t,0,0,4
3:02.119,65563,t,0,0,4
3:02.214,65597,),0,0,2
3:02.319,65635,(,0,0,0
3:02.358,65649,p,0,0,0
3:02.400,65664,),0,0,0
3:02.422,65672,(,0,0,1
3:02.503,65701,N,0,0,0
3:02.536,65713,),0,0,1
3:02.658,65757,(,0,0,2
3:02.731,65783,t,0,0,4
3:02.853,65827,t,0,0,4
3:02.956,65864,),0,0,2
3:03.022,65888,(,0,0,0
3:03.075,65907,p,0,0,0
3:03.122,65924,),0,0,0
3:03.158,65937,(,0,0,1
3:03.217,65958,N,0,0,0
3:03.267,65976,),0,0,1
3:03.361,66010,(,0,0,2
3:03.428,66034,t,0,0,4
3:03.536,66073,t,0,0,4
3:03.628,66106,),0,0,2
3:03.722,66140,(,0,0,0
3:03.769,66157,p,0,0,0
3:03.814,66173,),0,0,0
3:03.856,66188,(,0,0,1
3:03.919,66211,N,0,0,0
3:03.969,66229,),0,0,1
3:03.981,66233,(,0,0,2
3:04.139,66290,t,0,0,4
3:04.261,66334,t,0,0,4
3:04.306,66350,),0,0,2
3:04.458,66405,(,0,0,0
3:04.497,66419,p,0,0,0
3:04.550,66438,),0,0,0
3:04.564,66443,(,0,0,1
3:04.650,66474,N,0,0,0
3:04.703,66493,),0,0,1
3:04.764,66515,(,0,0,2
3:04.864,66551,t,0,0,4
3:04.975,66591,t,0,0,4
3:05.086,66631,),0,0,2
3:05.183,66666,(,0,0,0
3:05.225,66681,p,0,0,0
3:05.278,66700,),0,0,0
3:05.322,66716,(,0,0,1
3:05.383,66738,N,0,0,0
3:05.431,66755,),0,0,1
3:05.544,66796,(,0,0,2
3:05.606,66818,t,0,0,1
3:05.694,66850,),0,0,2
3:05.792,66885,(,0,0,0
3:05.822,66896,p,0,0,0
3:05.872,66914,),0,0,0
3:05.931,66935,(,0,0,1
3:05.997,66959,N,0,0,0
3:06.044,66976,),0,0,1
3:06.139,67010,(,0,0,2
3:06.222,67040,t,0,0,4
3:06.336,67081,t,0,0,4
3:06.422,67112,),0,0,2
3:06.694,67210,(,0,0,1
3:06.781,67241,N,0,0,0
3:06.836,67261,),0,0,1
3:06.931,67295,(,0,0,2
3:07.022,67328,t,0,0,4
3:07.142,67371,t,0,0,4
3:07.253,67411,),0,0,2
3:07.358,67449,(,0,0,0
3:07.403,67465,p,0,0,0
3:07.447,67481,),0,0,0
3:07.464,67487,(,0,0,1
3:07.550,67518,N,0,0,0
3:07.608,67539,),0,0,1
3:07.675,67563,(,0,0,2
3:07.767,67596,t,0,0,4
3:07.892,67641,t,0,0,4
3:07.931,67655,),0,0,2
3:08.061,67702,(,0,0,1
3:08.169,67741,N,0,0,0
3:08.244,67768,),0,0,1
3:08.328,67798,(,0,0,2
3:08.422,67832,t,0,0,1
3:08.533,67872,),0,0,2
3:08.858,67989,(,0,0,0
3:08.900,68004,p,0,0,0
3:08.956,68024,),0,0,0
3:08.994,68038,(,0,0,1
3:09.061,68062,N,0,0,0
3:09.108,68079,),0,0,1
3:09.200,68112,(,0,0,2
3:09.292,68145,t,0,0,4
3:09.408,68187,t,0,0,4
3:09.525,68229,),0,0,2
3:09.608,68259,(,0,0,0
3:09.653,68275,p,0,0,0
3:09.697,68291,),0,0,0
3:09.731,68303,(,0,0,1
3:09.806,68330,N,0,0,0
3:09.839,68342,),0,0,1
3:09.942,68379,(,0,0,2
3:10.031,68411,t,0,0,4
3:10.136,68449,t,0,0,4
3:10.247,68489,),0,0,2
3:10.353,68527,(,0,0,0
3:10.389,68540,p,0,0,0
3:10.442,68559,),0,0,0
3:10.464,68567,(,0,0,1
3:10.544,68596,N,0,0,0
3:10.578,68608,),0,0,1
3:10.644,68632,(,0,0,2
3:10.769,68677,t,0,0,4
3:10.881,68717,t,0,0,4
3:10.989,68756,),0,0,2
3:11.094,68794,(,0,0,0
3:11.136,68809,p,0,0,0
3:11.189,68828,),0,0,0
3:11.228,68842,(,0,0,1
3:11.300,68868,N,0,0,0
3:11.347,68885,),0,0,1
3:11.439,68918,(,0,0,2
3:11.531,68951,t,0,0,4
3:11.644,68992,t,0,0,4
3:11.700,69012,),0,0,2
3:11.836,69061,(,0,0,0
3:11.881,69077,p,0,0,0
3:11.925,69093,),0,0,0
3:11.964,69107,(,0,0,1
3:12.042,69135,N,0,0,0
3:12.094,69154,),0,0,1
3:12.167,69180,(,0,0,2
3:12.269,69217,t,0,0,1
3:12.367,69252,),0,0,2
3:12.597,69335,(,0,0,0
3:12.642,69351,p,0,0,0
3:12.694,69370,),0,0,0
3:12.728,69382,(,0,0,1
3:12.800,69408,N,0,0,0
3:12.833,69420,),0,0,1
3:12.953,69463,(,0,0,2
3:13.044,69496,t,0,0,4
3:13.153,69535,t,0,0,4
3:13.256,69572,),0,0,2
3:13.333,69600,(,0,0,0
3:13.392,69621,p,0,0,0
3:13.439,69638,),0,0,0
3:13.489,69656,(,0,0,1
3:13.542,69675,N,0,0,0
3:13.586,69691,),0,0,1
3:13.678,69724,(,0,0,2
3:13.772,69758,t,0,0,4
3:13.900,69804,t,0,0,4
3:13.992,69837,),0,0,2
3:14.097,69875,(,0,0,0
3:14.136,69889,p,0,0,0
3:14.178,69904,),0,0,0
3:14.222,69920,(,0,0,1
3:14.283,69942,N,0,0,0
3:14.336,69961,),0,0,1
3:14.400,69984,(,0,0,2
3:14.508,70023,t,0,0,4
3:14.611,70060,t,0,0,4
3:14.725,70101,),0,0,2
3:14.797,70127,(,0,0,0
3:14.858,70149,p,0,0,0
3:14.911,70168,),0,0,0
3:14.953,70183,(,0,0,1
3:15.011,70204,N,0,0,0
3:15.042,70215,),0,0,1
3:15.108,70239,(,0,0,2
3:15.247,70289,t,0,0,4
3:15.358,70329,t,0,0,4
3:15.461,70366,),0,0,2
3:15.572,70406,(,0,0,0
3:15.611,70420,p,0,0,0
3:15.664,70439,),0,0,0
3:15.703,70453,(,0,0,1
3:15.769,70477,N,0,0,0
3:15.817,70494,),0,0,1
3:15.883,70518,(,0,0,2
3:15.997,70559,t,0,0,4
3:16.108,70599,t,0,0,4
3:16.200,70632,),0,0,2
3:16.322,70676,(,0,0,0
3:16.358,70689,p,0,0,0
3:16.408,70707,),0,0,0
3:16.431,70715,(,0,0,1
3:16.517,70746,N,0,0,0
3:16.578,70768,),0,0,1
3:16.611,70780,(,0,0,2
3:16.753,70831,t,0,0,4
3:16.856,70868,t,0,0,4
3:16.964,70907,),0,0,2
3:17.058,70941,(,0,0,0
3:17.106,70958,p,0,0,0
3:17.158,70977,),0,0,0
3:17.194,70990,(,0,0,1
3:17.253,71011,N,0,0,0
3:17.286,71023,),0,0,1
3:17.358,71049,(,0,0,2
3:17.489,71096,t,0,0,4
3:17.617,71142,t,0,0,4
3:17.692,71169,),0,0,2
3:17.800,71208,(,0,0,0
3:17.842,71223,p,0,0,0
3:17.894,71242,),0,0,0
3:17.933,71256,(,0,0,1
3:18.000,71280,N,0,0,0
3:18.050,71298,),0,0,1
3:18.153,71335,(,0,0,2
3:18.233,71364,t,0,0,4
3:18.347,71405,t,0,0,4
3:18.431,71435,),0,0,2
3:18.550,71478,(,0,0,0
3:18.586,71491,p,0,0,0
3:18.628,71506,),0,0,0
3:18.642,71511,(,0,0,1
3:18.725,71541,N,0,0,0
3:18.781,71561,),0,0,1
3:18.878,71596,(,0,0,2
3:18.964,71627,t,0,0,4
3:19.075,71667,t,0,0,4
3:19.161,71698,),0,0,2
3:19.286,71743,(,0,0,0
3:19.325,71757,p,0,0,0
3:19.375,71775,),0,0,0
3:19.403,71785,(,0,0,1
3:19.478,71812,N,0,0,0
3:19.508,71823,),0,0,1
3:19.642,71871,(,0,0,2
3:19.700,71892,t,0,0,4
3:19.844,71944,t,0,0,4
3:19.936,71977,),0,0,2
3:20.028,72010,(,0,0,0
3:20.069,72025,p,0,0,0
3:20.117,72042,),0,0,0
3:20.136,72049,(,0,0,1
3:20.217,72078,N,0,0,0
3:20.264,72095,),0,0,1
3:20.336,72121,(,0,0,2
3:20.433,72156,t,0,0,4
3:20.547,72197,t,0,0,4
3:20.658,72237,),0,0,2
3:20.756,72272,(,0,0,0
3:20.792,72285,p,0,0,0
3:20.839,72302,),0,0,0
3:20.872,72314,(,0,0,1
3:20.944,72340,N,0,0,0
3:20.978,72352,),0,0,1
3:21.078,72388,(,0,0,2
3:21.164,72419,t,0,0,1
3:21.258,72453,),0,0,2
3:21.467,72528,(,0,0,0
3:21.508,72543,p,0,0,0
3:21.558,72561,),0,0,0
3:21.603,72577,(,0,0,1
3:21.667,72600,N,0,0,0
3:21.714,72617,),0,0,1
3:21.817,72654,(,0,0,2
3:21.897,72683,t,0,0,4
3:22.017,72726,t,0,0,4
3:22.125,72765,),0,0,2
3:22.233,72804,(,0,0,0
3:22.275,72819,p,0,0,0
3:22.322,72836,),0,0,0
3:22.364,72851,(,0,0,1
3:22.433,72876,N,0,0,0
3:22.467,72888,),0,0,1
3:22.575,72927,(,0,0,2
3:22.672,72962,t,0,0,4
3:22.789,73004,t,0,0,4
3:22.886,73039,),0,0,2
3:22.964,73067,(,0,0,0
3:23.028,73090,p,0,0,0
3:23.075,73107,),0,0,0
3:23.106,73118,(,0,0,1
3:23.181,73145,N,0,0,0
3:23.211,73156,),0,0,1
3:23.303,73189,(,0,0,2
3:23.411,73228,t,0,0,4
3:23.542,73275,t,0,0,4
3:23.636,73309,),0,0,2
3:23.706,73334,(,0,0,0
3:23.772,73358,p,0,0,0
3:23.822,73376,),0,0,0
3:23.864,73391,(,0,0,1
3:23.922,73412,N,0,0,0
3:23.972,73430,),0,0,1
3:24.058,73461,(,0,0,2
3:24.139,73490,t,0,0,4
3:24.250,73530,t,0,0,4
3:24.375,73575,),0,0,2
3:24.464,73607,(,0,0,0
3:24.500,73620,p,0,0,0
3:24.542,73635,),0,0,0
3:24.572,73646,(,0,0,1
3:24.650,73674,N,0,0,0
3:24.683,73686,),0,0,1
3:24.789,73724,(,0,0,2
3:24.883,73758,t,0,0,4
3:24.989,73796,t,0,0,4
3:25.100,73836,),0,0,2
3:25.192,73869,(,0,0,0
3:25.239,73886,p,0,0,0
3:25.289,73904,),0,0,0
3:25.306,73910,(,0,0,1
3:25.383,73938,N,0,0,0
3:25.433,73956,),0,0,1
3:25.511,73984,(,0,0,2
3:25.606,74018,t,0,0,4
3:25.719,74059,t,0,0,4
3:25.833,74100,),0,0,2
3:25.917,74130,(,0,0,0
3:25.975,74151,p,0,0,0
3:26.025,74169,),0,0,0
3:26.039,74174,(,0,0,1
3:26.136,74209,N,0,0,0
3:26.183,74226,),0,0,1
3:26.278,74260,(,0,0,2
3:26.361,74290,t,0,0,4
3:26.481,74333,t,0,0,4
3:26.572,74366,),0,0,2
3:26.686,74407,(,0,0,0
3:26.725,74421,p,0,0,0
3:26.775,74439,),0,0,0
3:26.803,74449,(,0,0,1
3:26.889,74480,N,0,0,0
3:26.922,74492,),0,0,1
3:27.019,74527,(,0,0,2
3:27.106,74558,t,0,0,4
3:27.217,74598,t,0,0,4
3:27.308,74631,),0,0,2
3:27.411,74668,(,0,0,0
3:27.453,74683,p,0,0,0
3:27.503,74701,),0,0,0
3:27.536,74713,(,0,0,1
3:27.606,74738,N,0,0,0
3:27.658,74757,),0,0,1
3:27.722,74780,(,0,0,2
3:27.831,74819,t,0,0,4
3:27.950,74862,t,0,0,4
3:28.031,74891,),0,0,2
3:28.133,74928,(,0,0,0
3:28.175,74943,p,0,0,0
3:28.217,74958,),0,0,0
3:28.261,74974,(,0,0,1
3:28.325,74997,N,0,0,0
3:28.375,75015,),0,0,1
3:28.450,75042,(,0,0,2
3:28.561,75082,t,0,0,4
3:28.675,75123,t,0,0,4
3:28.783,75162,),0,0,2
3:28.897,75203,(,0,0,0
3:28.944,75220,p,0,0,0
3:28.992,75237,),0,0,0
3:29.008,75243,(,0,0,1
3:29.100,75276,N,0,0,0
3:29.156,75296,),0,0,1
3:29.244,75328,(,0,0,2
3:29.328,75358,t,0,0,4
3:29.458,75405,t,0,0,4
3:29.539,75434,),0,0,2
3:29.669,75481,(,0,0,0
3:29.717,75498,p,0,0,0
3:29.767,75516,),0,0,0
3:29.806,75530,(,0,0,1
3:29.869,75553,N,0,0,0
3:29.919,75571,),0,0,1
3:29.931,75575,(,0,0,2
3:30.089,75632,t,0,0,4
3:30.194,75670,t,0,0,4
3:30.258,75693,),0,0,2
3:30.406,75746,(,0,0,0
3:30.456,75764,p,0,0,0
3:30.506,75782,),0,0,0
3:30.542,75795,(,0,0,1
3:30.608,75819,N,0,0,0
3:30.656,75836,),0,0,1
3:30.714,75857,(,0,0,2
3:30.822,75896,t,0,0,4
3:30.950,75942,t,0,0,4
3:31.036,75973,),0,0,2
3:31.125,76005,(,0,0,0
3:31.192,76029,p,0,0,0
3:31.239,76046,),0,0,0
3:31.275,76059,(,0,0,1
3:31.342,76083,N,0,0,0
3:31.392,76101,),0,0,1
3:31.453,76123,(,0,0,2
3:31.567,76164,t,0,0,4
3:31.678,76204,t,0,0,4
3:31.794,76246,),0,0,2
3:31.892,76281,(,0,0,0
3:31.933,76296,p,0,0,0
3:31.989,76316,),0,0,0
3:32.011,76324,(,0,0,1
3:32.086,76351,N,0,0,0
3:32.117,76362,),0,0,1
3:32.219,76399,(,0,0,2
3:32.300,76428,t,0,0,4
3:32.417,76470,t,0,0,4
3:32.508,76503,),0,0,2
3:32.625,76545,(,0,0,0
3:32.664,76559,p,0,0,0
3:32.711,76576,),0,0,0
3:32.744,76588,(,0,0,1
3:32.825,76617,N,0,0,0
3:32.881,76637,),0,0,1
3:32.956,76664,(,0,0,2
3:33.056,76700,t,0,0,4
3:33.172,76742,t,0,0,4
3:33.217,76758,),0,0,2
3:33.369,76813,(,0,0,0
3:33.419,76831,p,0,0,0
3:33.472,76850,),0,0,0
3:33.508,76863,(,0,0,1
3:33.581,76889,N,0,0,0
3:33.614,76901,),0,0,1
3:33.694,76930,(,0,0,2
3:33.822,76976,t,0,0,4
3:33.931,77015,t,0,0,4
3:34.003,77041,),0,0,2
3:34.122,77084,(,0,0,0
3:34.167,77100,p,0,0,0
3:34.217,77118,),0,0,0
3:34.244,77128,(,0,0,1
3:34.322,77156,N,0,0,0
3:34.381,77177,),0,0,1
3:34.450,77202,(,0,0,2
3:34.558,77241,t,0,0,4
3:34.675,77283,t,0,0,4
3:34.753,77311,),0,0,2
3:34.858,77349,(,0,0,0
3:34.897,77363,p,0,0,0
3:34.942,77379,),0,0,0
3:34.978,77392,(,0,0,1
3:35.047,77417,N,0,0,0
3:35.092,77433,),0,0,1
3:35.181,77465,(,0,0,2
3:35.275,77499,t,0,0,4
3:35.386,77539,t,0,0,4
3:35.503,77581,),0,0,2
3:35.586,77611,(,0,0,0
3:35.642,77631,p,0,0,0
3:35.692,77649,),0,0,0
3:35.711,77656,(,0,0,1
3:35.794,77686,N,0,0,0
3:35.856,77708,),0,0,1
3:35.947,77741,(,0,0,2
3:36.033,77772,t,0,0,4
3:36.156,77816,t,0,0,4
3:36.267,77856,),0,0,2
3:36.364,77891,(,0,0,0
3:36.406,77906,p,0,0,0
3:36.456,77924,),0,0,0
3:36.478,77932,(,0,0,1
3:36.561,77962,N,0,0,0
3:36.619,77983,),0,0,1
3:36.686,78007,(,0,0,2
3:36.778,78040,t,0,0,4
3:36.889,78080,t,0,0,4
3:36.992,78117,),0,0,2
3:37.075,78147,(,0,0,0
3:37.125,78165,p,0,0,0
3:37.172,78182,),0,0,0
3:37.211,78196,(,0,0,1
3:37.283,78222,N,0,0,0
3:37.331,78239,),0,0,1
3:37.397,78263,(,0,0,2
3:37.506,78302,t,0,0,4
3:37.603,78337,t,0,0,4
3:37.708,78375,),0,0,2
3:37.747,78389,(,0,0,0
3:37.825,78417,p,0,0,0
3:37.883,78438,),0,0,0
3:37.917,78450,(,0,0,1
3:37.989,78476,N,0,0,0
3:38.019,78487,),0,0,1
3:38.114,78521,(,0,0,2
3:38.214,78557,t,0,0,4
3:38.325,78597,t,0,0,4
3:38.414,78629,),0,0,2
3:38.506,78662,(,0,0,0
3:38.550,78678,p,0,0,0
3:38.597,78695,),0,0,0
3:38.642,78711,(,0,0,1
3:38.708,78735,N,0,0,0
3:38.758,78753,),0,0,1
3:38.853,78787,(,0,0,2
3:38.936,78817,t,0,0,4
3:39.036,78853,t,0,0,4
3:39.142,78891,),0,0,2
3:39.217,78918,(,0,0,0
3:39.258,78933,p,0,0,0
3:39.308,78951,),0,0,0
3:39.342,78963,(,0,0,1
3:39.408,78987,N,0,0,0
3:39.464,79007,),0,0,1
3:39.578,79048,(,0,0,2
3:39.650,79074,t,0,0,4
3:39.758,79113,t,0,0,4
3:39.864,79151,),0,0,2
3:39.936,79177,(,0,0,0
3:39.975,79191,p,0,0,0
3:40.019,79207,),0,0,0
3:40.067,79224,(,0,0,1
3:40.133,79248,N,0,0,0
3:40.189,79268,),0,0,1
3:40.261,79294,(,0,0,2
3:40.364,79331,t,0,0,4
3:40.478,79372,t,0,0,4
3:40.581,79409,),0,0,2
3:40.669,79441,(,0,0,0
3:40.717,79458,p,0,0,0
3:40.767,79476,),0,0,0
3:40.803,79489,(,0,0,1
3:40.861,79510,N,0,0,0
3:40.917,79530,),0,0,1
3:40.972,79550,(,0,0,2
3:41.092,79593,t,0,0,4
3:41.203,79633,t,0,0,4
3:41.322,79676,),0,0,2
3:41.378,79696,(,0,0,0
3:41.442,79719,p,0,0,0
3:41.494,79738,),0,0,0
3:41.514,79745,(,0,0,1
3:41.597,79775,N,0,0,0
3:41.647,79793,),0,0,1
3:41.697,79811,(,0,0,2
3:41.811,79852,t,0,0,4
3:41.925,79893,t,0,0,4
3:42.022,79928,),0,0,2
3:42.139,79970,(,0,0,0
3:42.172,79982,p,0,0,0
3:42.217,79998,),0,0,0
3:42.244,80008,(,0,0,1
3:42.325,80037,N,0,0,0
3:42.358,80049,),0,0,1
3:42.481,80093,(,0,0,2
3:42.547,80117,t,0,0,4
3:42.664,80159,t,0,0,4
3:42.778,80200,),0,0,2
3:42.869,80233,(,0,0,0
3:42.931,80255,p,0,0,0
3:42.986,80275,),0,0,0
3:43.011,80284,(,0,0,1
3:43.094,80314,N,0,0,0
3:43.133,80328,),0,0,1
3:43.281,80381,(,0,0,2
3:43.328,80398,t,0,0,4
3:43.439,80438,t,0,0,4
3:43.550,80478,),0,0,2
3:43.647,80513,(,0,0,0
3:43.694,80530,p,0,0,0
3:43.744,80548,),0,0,0
3:43.775,80559,(,0,0,1
3:43.847,80585,N,0,0,0
3:43.883,80598,),0,0,1
3:43.978,80632,(,0,0,2
3:44.075,80667,t,0,0,4
3:44.197,80711,t,0,0,4
3:44.300,80748,),0,0,2
3:44.369,80773,(,0,0,0
3:44.425,80793,p,0,0,0
3:44.469,80809,),0,0,0
3:44.483,80814,(,0,0,1
3:44.575,80847,N,0,0,0
3:44.614,80861,),0,0,1
3:44.686,80887,(,0,0,2
3:44.808,80931,t,0,0,4
3:44.928,80974,t,0,0,4
3:45.019,81007,),0,0,2
3:45.111,81040,(,0,0,0
3:45.167,81060,p,0,0,0
3:45.217,81078,),0,0,0
3:45.244,81088,(,0,0,1
3:45.319,81115,N,0,0,0
3:45.356,81128,),0,0,1
3:45.461,81166,(,0,0,2
3:45.550,81198,t,0,0,1
3:45.658,81237,),0,0,2
3:45.844,81304,(,0,0,1
3:45.925,81333,N,0,0,0
3:45.961,81346,),0,0,1
3:46.033,81372,(,0,0,2
3:46.150,81414,t,0,0,1
3:46.250,81450,),0,0,2
3:46.689,81608,(,0,0,1
3:46.767,81636,N,0,0,0
3:46.803,81649,),0,0,1
3:46.867,81672,(,0,0,2
3:47.014,81725,t,0,0,4
3:47.139,81770,t,0,0,4
3:47.253,81811,),0,0,2
3:47.383,81858,(,0,0,0
3:47.436,81877,p,0,0,0
3:47.486,81895,),0,0,0
3:47.514,81905,(,0,0,1
3:47.583,81930,N,0,0,0
3:47.631,81947,),0,0,1
3:47.719,81979,(,0,0,2
3:47.803,82009,t,0,0,4
3:47.922,82052,t,0,0,4
3:47.983,82074,),0,0,2
3:48.125,82125,(,0,0,0
3:48.183,82146,p,0,0,0
3:48.233,82164,),0,0,0
3:48.278,82180,(,0,0,1
3:48.336,82201,N,0,0,0
3:48.369,82213,),0,0,1
3:48.461,82246,(,0,0,2
3:48.556,82280,t,0,0,4
3:48.669,82321,t,0,0,4
3:48.769,82357,),0,0,2
3:48.875,82395,(,0,0,0
3:48.919,82411,p,0,0,0
3:48.967,82428,),0,0,0
3:48.986,82435,(,0,0,1
3:49.075,82467,N,0,0,0
3:49.106,82478,),0,0,1
3:49.167,82500,(,0,0,2
3:49.308,82551,t,0,0,4
3:49.419,82591,t,0,0,4
3:49.517,82626,),0,0,2
3:49.633,82668,(,0,0,0
3:49.675,82683,p,0,0,0
3:49.731,82703,),0,0,0
3:49.753,82711,(,0,0,1
3:49.839,82742,N,0,0,0
3:49.900,82764,),0,0,1
3:49.964,82787,(,0,0,2
3:50.078,82828,t,0,0,4
3:50.197,82871,t,0,0,4
3:50.278,82900,),0,0,2
3:50.378,82936,(,0,0,0
3:50.425,82953,p,0,0,0
3:50.475,82971,),0,0,0
3:50.519,82987,(,0,0,1
3:50.578,83008,N,0,0,0
3:50.611,83020,),0,0,1
3:50.731,83063,(,0,0,2
3:50.814,83093,t,0,0,4
3:50.925,83133,t,0,0,4
3:51.019,83167,),0,0,2
3:51.103,83197,(,0,0,0
3:51.144,83212,p,0,0,0
3:51.186,83227,),0,0,0
3:51.214,83237,(,0,0,1
3:51.283,83262,N,0,0,0
3:51.319,83275,),0,0,1
3:51.397,83303,(,0,0,2
3:51.508,83343,t,0,0,4
3:51.633,83388,t,0,0,4
3:51.711,83416,),0,0,2
3:51.781,83441,(,0,0,0
3:51.839,83462,p,0,0,0
3:51.886,83479,),0,0,0
3:51.917,83490,(,0,0,1
3:51.986,83515,N,0,0,0
3:52.019,83527,),0,0,1
3:52.092,83553,(,0,0,2
3:52.217,83598,t,0,0,4
3:52.342,83643,t,0,0,4
3:52.425,83673,),0,0,2
3:52.500,83700,(,0,0,0
3:52.564,83723,p,0,0,0
3:52.606,83738,),0,0,0
3:52.622,83744,(,0,0,1
3:52.708,83775,N,0,0,0
3:52.742,83787,),0,0,1
3:52.844,83824,(,0,0,2
3:52.942,83859,t,0,0,4
3:53.056,83900,t,0,0,4
3:53.128,83926,),0,0,2
3:53.203,83953,(,0,0,0
3:53.272,83978,p,0,0,0
3:53.322,83996,),0,0,0
3:53.350,84006,(,0,0,1
3:53.419,84031,N,0,0,0
3:53.453,84043,),0,0,1
3:53.583,84090,(,0,0,2
3:53.656,84116,t,0,0,4
3:53.792,84165,t,0,0,4
3:53.878,84196,),0,0,2
3:53.975,84231,(,0,0,0
3:54.017,84246,p,0,0,0
3:54.064,84263,),0,0,0
3:54.086,84271,(,0,0,1
3:54.167,84300,N,0,0,0
3:54.200,84312,),0,0,1
3:54.294,84346,(,0,0,2
3:54.389,84380,t,0,0,4
3:54.500,84420,t,0,0,4
3:54.603,84457,),0,0,2
3:54.683,84486,(,0,0,0
3:54.728,84502,p,0,0,0
3:54.781,84521,),0,0,0
3:54.817,84534,(,0,0,1
3:54.883,84558,N,0,0,0
3:54.933,84576,),0,0,1
3:54.967,84588,(,0,0,2
3:55.097,84635,t,0,0,4
3:55.222,84680,t,0,0,4
3:55.289,84704,),0,0,2
3:55.389,84740,(,0,0,0
3:55.439,84758,p,0,0,0
3:55.489,84776,),0,0,0
3:55.539,84794,(,0,0,1
3:55.594,84814,N,0,0,0
3:55.642,84831,),0,0,1
3:55.725,84861,(,0,0,2
3:55.819,84895,t,0,0,4
3:55.942,84939,t,0,0,4
3:56.031,84971,),0,0,2
3:56.128,85006,(,0,0,0
3:56.181,85025,p,0,0,0
3:56.228,85042,),0,0,0
3:56.253,85051,(,0,0,1
3:56.333,85080,N,0,0,0
3:56.367,85092,),0,0,1
3:56.439,85118,(,0,0,2
3:56.575,85167,t,0,0,4
3:56.697,85211,t,0,0,4
3:56.808,85251,),0,0,2
3:56.861,85270,(,0,0,0
3:56.925,85293,p,0,0,0
3:56.975,85311,),0,0,0
3:56.989,85316,(,0,0,1
3:57.075,85347,N,0,0,0
3:57.131,85367,),0,0,1
3:57.200,85392,(,0,0,2
3:57.311,85432,t,0,0,4
3:57.436,85477,t,0,0,4
3:57.492,85497,),0,0,2
3:57.614,85541,(,0,0,0
3:57.667,85560,p,0,0,0
3:57.714,85577,),0,0,0
3:57.750,85590,(,0,0,1
3:57.811,85612,N,0,0,0
3:57.842,85623,),0,0,1
3:57.928,85654,(,0,0,2
3:58.028,85690,t,0,0,4
3:58.139,85730,t,0,0,4
3:58.247,85769,),0,0,2
3:58.328,85798,(,0,0,0
3:58.375,85815,p,0,0,0
3:58.431,85835,),0,0,0
3:58.453,85843,(,0,0,1
3:58.522,85868,N,0,0,0
3:58.556,85880,),0,0,1
3:58.636,85909,(,0,0,2
3:58.750,85950,t,0,0,4
3:58.867,85992,t,0,0,4
3:58.950,86022,),0,0,2
3:59.061,86062,(,0,0,0
3:59.111,86080,p,0,0,0
3:59.158,86097,),0,0,0
3:59.189,86108,(,0,0,1
3:59.264,86135,N,0,0,0
3:59.308,86151,),0,0,1
3:59.372,86174,(,0,0,2
3:59.481,86213,t,0,0,4
3:59.597,86255,t,0,0,4
3:59.711,86296,),0,0,2
3:59.811,86332,(,0,0,0
3:59.853,86347,p,0,0,0
3:59.900,86364,),0,0,0
3:59.922,86372,(,0,0,1
4:00.008,86403,N,0,0,0
4:00.042,86415,),0,0,1
4:00.131,86447,(,0,0,2
4:00.239,86486,t,0,0,4
4:00.356,86528,t,0,0,4
4:00.447,86561,),0,0,2
4:00.569,86605,(,0,0,0
4:00.614,86621,p,0,0,0
4:00.672,86642,),0,0,0
4:00.714,86657,(,0,0,1
4:00.775,86679,N,0,0,0
4:00.806,86690,),0,0,1
4:00.903,86725,(,0,0,2
4:01.006,86762,t,0,0,4
4:01.108,86799,t,0,0,4
4:01.217,86838,),0,0,2
4:01.306,86870,(,0,0,0
4:01.347,86885,p,0,0,0
4:01.394,86902,),0,0,0
4:01.425,86913,(,0,0,1
4:01.500,86940,N,0,0,0
4:01.547,86957,),0,0,1
4:01.631,86987,(,0,0,2
4:01.722,87020,t,0,0,4
4:01.839,87062,t,0,0,4
4:01.944,87100,),0,0,2
4:02.044,87136,(,0,0,0
4:02.081,87149,p,0,0,0
4:02.125,87165,),0,0,0
4:02.153,87175,(,0,0,1
4:02.231,87203,N,0,0,0
4:02.264,87215,),0,0,1
4:02.369,87253,(,0,0,2
4:02.453,87283,t,0,0,4
4:02.572,87326,t,0,0,4
4:02.675,87363,),0,0,2
4:02.753,87391,(,0,0,0
4:02.819,87415,p,0,0,0
4:02.869,87433,),0,0,0
4:02.914,87449,(,0,0,1
4:02.972,87470,N,0,0,0
4:03.033,87492,),0,0,1
4:03.097,87515,(,0,0,2
4:03.208,87555,t,0,0,4
4:03.336,87601,t,0,0,4
4:03.431,87635,),0,0,2
4:03.503,87661,(,0,0,0
4:03.572,87686,p,0,0,0
4:03.619,87703,),0,0,0
4:03.656,87716,(,0,0,1
4:03.722,87740,N,0,0,0
4:03.772,87758,),0,0,1
4:03.856,87788,(,0,0,2
4:03.944,87820,t,0,0,4
4:04.050,87858,t,0,0,4
4:04.125,87885,),0,0,2
4:04.258,87933,(,0,0,0
4:04.300,87948,p,0,0,0
4:04.350,87966,),0,0,0
4:04.386,87979,(,0,0,1
4:04.453,88003,N,0,0,0
4:04.506,88022,),0,0,1
4:04.558,88041,(,0,0,2
4:04.672,88082,t,0,0,4
4:04.778,88120,t,0,0,4
4:04.883,88158,),0,0,2
4:04.956,88184,(,0,0,0
4:05.008,88203,p,0,0,0
4:05.056,88220,),0,0,0
4:05.094,88234,(,0,0,1
4:05.164,88259,N,0,0,0
4:05.211,88276,),0,0,1
4:05.306,88310,(,0,0,2
4:05.386,88339,t,0,0,4
4:05.494,88378,t,0,0,4
4:05.592,88413,),0,0,2
4:05.711,88456,(,0,0,0
4:05.747,88469,p,0,0,0
4:05.794,88486,),0,0,0
4:05.825,88497,(,0,0,1
4:05.903,88525,N,0,0,0
4:05.933,88536,),0,0,1
4:05.969,88549,(,0,0,2
4:06.119,88603,t,0,0,4
4:06.233,88644,t,0,0,4
4:06.319,88675,),0,0,2
4:06.397,88703,(,0,0,0
4:06.464,88727,p,0,0,0
4:06.519,88747,),0,0,0
4:06.558,88761,(,0,0,1
4:06.622,88784,N,0,0,0
4:06.675,88803,),0,0,1
4:06.736,88825,(,0,0,2
4:06.847,88865,t,0,0,4
4:06.975,88911,t,0,0,4
4:07.061,88942,),0,0,2
4:07.181,88985,(,0,0,0
4:07.217,88998,p,0,0,0
4:07.267,89016,),0,0,0
4:07.294,89026,(,0,0,1
4:07.375,89055,N,0,0,0
4:07.408,89067,),0,0,1
4:07.536,89113,(,0,0,2
4:07.608,89139,t,0,0,4
4:07.719,89179,t,0,0,4
4:07.822,89216,),0,0,2
4:07.881,89237,(,0,0,0
4:07.942,89259,p,0,0,0
4:07.992,89277,),0,0,0
4:08.022,89288,(,0,0,1
4:08.089,89312,N,0,0,0
4:08.144,89332,),0,0,1
4:08.217,89358,(,0,0,2
4:08.317,89394,t,0,0,4
4:08.431,89435,t,0,0,4
4:08.528,89470,),0,0,2
4:08.597,89495,(,0,0,0
4:08.650,89514,p,0,0,0
4:08.697,89531,),0,0,0
4:08.728,89542,(,0,0,1
4:08.797,89567,N,0,0,0
4:08.844,89584,),0,0,1
4:08.908,89607,(,0,0,2
4:09.022,89648,t,0,0,4
4:09.128,89686,t,0,0,4
4:09.244,89728,),0,0,2
4:09.289,89744,(,0,0,0
4:09.361,89770,p,0,0,0
4:09.414,89789,),0,0,0
4:09.456,89804,(,0,0,1
4:09.519,89827,N,0,0,0
4:09.553,89839,),0,0,1
4:09.611,89860,(,0,0,2
4:09.756,89912,t,0,0,4
4:09.886,89959,t,0,0,4
4:09.997,89999,),0,0,2
4:10.056,90020,(,0,0,0
4:10.114,90041,p,0,0,0
4:10.169,90061,),0,0,0
4:10.197,90071,(,0,0,1
4:10.278,90100,N,0,0,0
4:10.308,90111,),0,0,1
4:10.403,90145,(,0,0,2
4:10.494,90178,t,0,0,4
4:10.608,90219,t,0,0,4
4:10.714,90257,),0,0,2
4:10.767,90276,(,0,0,0
4:10.839,90302,p,0,0,0
4:10.889,90320,),0,0,0
4:10.900,90324,(,0,0,1
4:10.997,90359,N,0,0,0
4:11.031,90371,),0,0,1
4:11.106,90398,(,0,0,2
4:11.214,90437,t,0,0,4
4:11.311,90472,t,0,0,4
4:11.419,90511,),0,0,2
4:11.489,90536,(,0,0,0
4:11.531,90551,p,0,0,0
4:11.586,90571,),0,0,0
4:11.628,90586,(,0,0,1
4:11.694,90610,N,0,0,0
4:11.744,90628,),0,0,1
4:11.819,90655,(,0,0,2
4:11.919,90691,t,0,0,4
4:12.014,90725,t,0,0,4
4:12.125,90765,),0,0,2
4:12.167,90780,(,0,0,0
4:12.250,90810,p,0,0,0
4:12.297,90827,),0,0,0
4:12.328,90838,(,0,0,1
4:12.406,90866,N,0,0,0
4:12.439,90878,),0,0,1
4:12.542,90915,(,0,0,2
4:12.631,90947,t,0,0,4
4:12.739,90986,t,0,0,4
4:12.836,91021,),0,0,2
4:12.917,91050,(,0,0,0
4:12.967,91068,p,0,0,0
4:13.022,91088,),0,0,0
4:13.058,91101,(,0,0,1
4:13.119,91123,N,0,0,0
4:13.150,91134,),0,0,1
4:13.247,91169,(,0,0,2
4:13.353,91207,t,0,0,4
4:13.472,91250,t,0,0,4
4:13.561,91282,),0,0,2
4:13.667,91320,(,0,0,0
4:13.706,91334,p,0,0,0
4:13.756,91352,),0,0,0
4:13.794,91366,(,0,0,1
4:13.867,91392,N,0,0,0
4:13.903,91405,),0,0,1
4:13.975,91431,(,0,0,2
4:14.108,91479,t,0,0,4
4:14.222,91520,t,0,0,4
4:14.333,91560,),0,0,2
4:14.417,91590,(,0,0,0
4:14.456,91604,p,0,0,0
4:14.500,91620,),0,0,0
4:14.531,91631,(,0,0,1
4:14.600,91656,N,0,0,0
4:14.633,91668,),0,0,1
4:14.750,91710,(,0,0,2
4:14.819,91735,t,0,0,4
4:14.939,91778,t,0,0,4
4:15.031,91811,),0,0,2
4:15.119,91843,(,0,0,0
4:15.164,91859,p,0,0,0
4:15.214,91877,),0,0,0
4:15.231,91883,(,0,0,1
4:15.319,91915,N,0,0,0
4:15.369,91933,),0,0,1
4:15.444,91960,(,0,0,2
4:15.536,91993,t,0,0,4
4:15.639,92030,t,0,0,4
4:15.711,92056,),0,0,2
4:15.794,92086,(,0,0,0
4:15.875,92115,p,0,0,0
4:15.925,92133,),0,0,0
4:15.964,92147,(,0,0,1
4:16.028,92170,N,0,0,0
4:16.061,92182,),0,0,1
4:16.192,92229,(,0,0,2
4:16.258,92253,t,0,0,4
4:16.381,92297,t,0,0,4
4:16.489,92336,),0,0,2
4:16.569,92365,(,0,0,0
4:16.628,92386,p,0,0,0
4:16.681,92405,),0,0,0
4:16.697,92411,(,0,0,1
4:16.794,92446,N,0,0,0
4:16.828,92458,),0,0,1
4:16.947,92501,(,0,0,2
4:17.028,92530,t,0,0,4
4:17.136,92569,t,0,0,4
4:17.233,92604,),0,0,2
4:17.300,92628,(,0,0,0
4:17.369,92653,p,0,0,0
4:17.419,92671,),0,0,0
4:17.464,92687,(,0,0,1
4:17.528,92710,N,0,0,0
4:17.561,92722,),0,0,1
4:17.642,92751,(,0,0,2
4:17.747,92789,t,0,0,4
4:17.872,92834,t,0,0,4
4:17.964,92867,),0,0,2
4:18.022,92888,(,0,0,0
4:18.081,92909,p,0,0,0
4:18.128,92926,),0,0,0
4:18.164,92939,(,0,0,1
4:18.228,92962,N,0,0,0
4:18.281,92981,),0,0,1
4:18.311,92992,(,0,0,2
4:18.458,93045,t,0,0,4
4:18.575,93087,t,0,0,4
4:18.667,93120,),0,0,2
4:18.767,93156,(,0,0,0
4:18.811,93172,p,0,0,0
4:18.858,93189,),0,0,0
4:18.897,93203,(,0,0,1
4:18.972,93230,N,0,0,0
4:19.019,93247,),0,0,1
4:19.083,93270,(,0,0,2
4:19.203,93313,t,0,0,4
4:19.322,93356,t,0,0,4
4:19.397,93383,),0,0,2
4:19.522,93428,(,0,0,0
4:19.558,93441,p,0,0,0
4:19.603,93457,),0,0,0
4:19.633,93468,(,0,0,1
4:19.706,93494,N,0,0,0
4:19.742,93507,),0,0,1
4:19.789,93524,(,0,0,2
4:19.939,93578,t,0,0,4
4:20.050,93618,t,0,0,4
4:20.150,93654,),0,0,2
4:20.256,93692,(,0,0,0
4:20.300,93708,p,0,0,0
4:20.356,93728,),0,0,0
4:20.369,93733,(,0,0,1
4:20.453,93763,N,0,0,0
4:20.514,93785,),0,0,1
4:20.581,93809,(,0,0,2
4:20.697,93851,t,0,0,4
4:20.814,93893,t,0,0,4
4:20.914,93929,),0,0,2
4:21.019,93967,(,0,0,0
4:21.056,93980,p,0,0,0
4:21.100,93996,),0,0,0
4:21.139,94010,(,0,0,1
4:21.208,94035,N,0,0,0
4:21.256,94052,),0,0,1
4:21.308,94071,(,0,0,2
4:21.428,94114,t,0,0,4
4:21.544,94156,t,0,0,4
4:21.658,94197,),0,0,2
4:21.753,94231,(,0,0,0
4:21.797,94247,p,0,0,0
4:21.844,94264,),0,0,0
4:21.867,94272,(,0,0,1
4:21.944,94300,N,0,0,0
4:21.978,94312,),0,0,1
4:22.103,94357,(,0,0,2
4:22.161,94378,t,0,0,4
4:22.278,94420,t,0,0,4
4:22.364,94451,),0,0,2
4:22.450,94482,(,0,0,0
4:22.506,94502,p,0,0,0
4:22.558,94521,),0,0,0
4:22.600,94536,(,0,0,1
4:22.664,94559,N,0,0,0
4:22.714,94577,),0,0,1
4:22.800,94608,(,0,0,2
4:22.892,94641,t,0,0,4
4:23.011,94684,t,0,0,4
4:23.106,94718,),0,0,2
4:23.192,94749,(,0,0,0
4:23.253,94771,p,0,0,0
4:23.303,94789,),0,0,0
4:23.336,94801,(,0,0,1
4:23.417,94830,N,0,0,0
4:23.450,94842,),0,0,1
4:23.550,94878,(,0,0,2
4:23.650,94914,t,0,0,4
4:23.767,94956,t,0,0,4
4:23.836,94981,),0,0,2
4:23.928,95014,(,0,0,0
4:23.978,95032,p,0,0,0
4:24.028,95050,),0,0,0
4:24.067,95064,(,0,0,1
4:24.133,95088,N,0,0,0
4:24.186,95107,),0,0,1
4:24.272,95138,(,0,0,2
4:24.367,95172,t,0,0,4
4:24.475,95211,t,0,0,4
4:24.569,95245,),0,0,2
4:24.644,95272,(,0,0,0
4:24.694,95290,p,0,0,0
4:24.739,95306,),0,0,0
4:24.769,95317,(,0,0,1
4:24.844,95344,N,0,0,0
4:24.875,95355,),0,0,1
4:24.950,95382,(,0,0,2
4:25.069,95425,t,0,0,4
4:25.181,95465,t,0,0,4
4:25.275,95499,),0,0,2
4:25.358,95529,(,0,0,0
4:25.400,95544,p,0,0,0
4:25.450,95562,),0,0,0
4:25.472,95570,(,0,0,1
4:25.550,95598,N,0,0,0
4:25.583,95610,),0,0,1
4:25.669,95641,(,0,0,2
4:25.789,95684,t,0,0,4
4:25.911,95728,t,0,0,4
4:26.000,95760,),0,0,2
4:26.086,95791,(,0,0,0
4:26.125,95805,p,0,0,0
4:26.172,95822,),0,0,0
4:26.203,95833,(,0,0,1
4:26.278,95860,N,0,0,0
4:26.325,95877,),0,0,1
4:26.414,95909,(,0,0,2
4:26.500,95940,t,0,0,4
4:26.639,95990,t,0,0,4
4:26.728,96022,),0,0,2
4:26.800,96048,(,0,0,0
4:26.847,96065,p,0,0,0
4:26.897,96083,),0,0,0
4:26.933,96096,(,0,0,1
4:26.992,96117,N,0,0,0
4:27.025,96129,),0,0,1
4:27.119,96163,(,0,0,2
4:27.217,96198,t,0,0,4
4:27.347,96245,t,0,0,4
4:27.433,96276,),0,0,2
4:27.525,96309,(,0,0,0
4:27.569,96325,p,0,0,0
4:27.619,96343,),0,0,0
4:27.664,96359,(,0,0,1
4:27.725,96381,N,0,0,0
4:27.772,96398,),0,0,1
4:27.817,96414,(,0,0,2
4:27.933,96456,t,0,0,4
4:28.050,96498,t,0,0,4
4:28.156,96536,),0,0,2
4:28.211,96556,(,0,0,0
4:28.275,96579,p,0,0,0
4:28.328,96598,),0,0,0
4:28.342,96603,(,0,0,1
4:28.428,96634,N,0,0,0
4:28.461,96646,),0,0,1
4:28.517,96666,(,0,0,2
4:28.650,96714,t,0,0,4
4:28.767,96756,t,0,0,4
4:28.864,96791,),0,0,2
4:28.936,96817,(,0,0,0
4:28.981,96833,p,0,0,0
4:29.028,96850,),0,0,0
4:29.069,96865,(,0,0,1
4:29.133,96888,N,0,0,0
4:29.183,96906,),0,0,1
4:29.278,96940,(,0,0,2
4:29.347,96965,t,0,0,4
4:29.486,97015,t,0,0,4
4:29.561,97042,),0,0,2
4:29.650,97074,(,0,0,0
4:29.700,97092,p,0,0,0
4:29.753,97111,),0,0,0
4:29.775,97119,(,0,0,1
4:29.858,97149,N,0,0,0
4:29.892,97161,),0,0,1
4:29.953,97183,(,0,0,2
4:30.089,97232,t,0,0,4
4:30.211,97276,t,0,0,4
4:30.300,97308,),0,0,2
4:30.392,97341,(,0,0,0
4:30.436,97357,p,0,0,0
4:30.486,97375,),0,0,0
4:30.508,97383,(,0,0,1
4:30.592,97413,N,0,0,0
4:30.625,97425,),0,0,1
4:30.694,97450,(,0,0,2
4:30.806,97490,t,0,0,4
4:30.928,97534,t,0,0,4
4:31.031,97571,),0,0,2
4:31.108,97599,(,0,0,0
4:31.175,97623,p,0,0,0
4:31.222,97640,),0,0,0
4:31.258,97653,(,0,0,1
4:31.322,97676,N,0,0,0
4:31.353,97687,),0,0,1
4:31.433,97716,(,0,0,2
4:31.536,97753,t,0,0,4
4:31.653,97795,t,0,0,4
4:31.739,97826,),0,0,2
4:31.833,97860,(,0,0,0
4:31.883,97878,p,0,0,0
4:31.936,97897,),0,0,0
4:31.972,97910,(,0,0,1
4:32.036,97933,N,0,0,0
4:32.083,97950,),0,0,1
4:32.156,97976,(,0,0,2
4:32.256,98012,t,0,0,4
4:32.367,98052,t,0,0,4
4:32.469,98089,),0,0,2
4:32.581,98129,(,0,0,0
4:32.617,98142,p,0,0,0
4:32.664,98159,),0,0,0
4:32.700,98172,(,0,0,1
4:32.769,98197,N,0,0,0
4:32.819,98215,),0,0,1
4:32.856,98228,(,0,0,2
4:32.981,98273,t,0,0,4
4:33.089,98312,t,0,0,4
4:33.172,98342,),0,0,2
4:33.297,98387,(,0,0,0
4:33.336,98401,p,0,0,0
4:33.394,98422,),0,0,0
4:33.436,98437,(,0,0,1
4:33.497,98459,N,0,0,0
4:33.553,98479,),0,0,1
4:33.614,98501,(,0,0,2
4:33.719,98539,t,0,0,4
4:33.850,98586,t,0,0,4
4:33.933,98616,),0,0,2
4:34.033,98652,(,0,0,0
4:34.081,98669,p,0,0,0
4:34.133,98688,),0,0,0
4:34.172,98702,(,0,0,1
4:34.244,98728,N,0,0,0
4:34.292,98745,),0,0,1
4:34.356,98768,(,0,0,2
4:34.472,98810,t,0,0,4
4:34.589,98852,t,0,0,4
4:34.681,98885,),0,0,2
4:34.767,98916,(,0,0,0
4:34.806,98930,p,0,0,0
4:34.856,98948,),0,0,0
4:34.875,98955,(,0,0,1
4:34.958,98985,N,0,0,0
4:34.992,98997,),0,0,1
4:35.025,99009,(,0,0,2
4:35.186,99067,t,0,0,4
4:35.317,99114,t,0,0,4
4:35.403,99145,),0,0,2
4:36.197,99431,(,0,0,0
4:36.239,99446,p,0,0,0
4:36.283,99462,),0,0,0
4:36.344,99484,(,0,0,1
4:36.397,99503,N,0,0,0
4:36.456,99524,),0,0,1
4:36.519,99547,(,0,0,2
4:36.631,99587,t,0,0,4
4:36.739,99626,t,0,0,4
4:36.867,99672,),0,0,2
4:36.936,99697,(,0,0,0
4:36.994,99718,p,0,0,0
4:37.042,99735,),0,0,0
4:37.100,99756,(,0,0,1
4:37.147,99773,N,0,0,0
4:37.197,99791,),0,0,1
4:37.278,99820,(,0,0,2
4:37.364,99851,t,0,0,4
4:37.469,99889,t,0,0,4
4:37.575,99927,),0,0,2
4:37.656,99956,(,0,0,0
4:37.717,99978,p,0,0,0
4:37.769,99997,),0,0,0
4:37.825,100017,(,0,0,1
4:37.878,100036,N,0,0,0
4:37.928,100054,),0,0,1
4:37.956,100064,(,0,0,2
4:38.100,100116,t,0,0,4
4:38.200,100152,t,0,0,4
4:38.308,100191,),0,0,2
4:38.383,100218,(,0,0,0
4:38.433,100236,p,0,0,0
4:38.481,100253,),0,0,0
4:38.542,100275,(,0,0,1
4:38.592,100293,N,0,0,0
4:38.622,100304,),0,0,1
4:38.717,100338,(,0,0,2
4:38.808,100371,t,0,0,1
4:38.903,100405,),0,0,2
4:38.956,100424,(,0,0,0
4:39.008,100443,p,0,0,0
4:39.044,100456,),0,0,0
4:39.117,100482,(,0,0,1
4:39.167,100500,N,0,0,0
4:39.222,100520,),0,0,1
4:39.294,100546,(,0,0,2
4:39.389,100580,t,0,0,4
4:39.494,100618,t,0,0,4
4:39.569,100645,),0,0,2
4:39.803,100729,(,0,0,0
4:39.853,100747,p,0,0,0
4:39.900,100764,),0,0,0
4:39.947,100781,(,0,0,1
4:39.997,100799,N,0,0,0
4:40.031,100811,),0,0,1
4:40.119,100843,(,0,0,2
4:40.239,100886,t,0,0,4
4:40.356,100928,t,0,0,4
4:40.450,100962,),0,0,2
4:41.272,101258,(,0,0,0
4:41.325,101277,p,0,0,0
4:41.369,101293,),0,0,0
4:41.417,101310,(,0,0,1
4:41.461,101326,N,0,0,0
4:41.492,101337,),0,0,1
4:41.558,101361,(,0,0,2
4:41.692,101409,t,0,0,4
4:41.803,101449,t,0,0,4
4:41.914,101489,),0,0,2
4:41.964,101507,(,0,0,0
4:42.036,101533,p,0,0,0
4:42.081,101549,),0,0,0
4:42.142,101571,(,0,0,1
4:42.183,101586,N,0,0,0
4:42.231,101603,),0,0,1
4:42.294,101626,(,0,0,2
4:42.394,101662,t,0,0,4
4:42.494,101698,t,0,0,4
4:42.586,101731,),0,0,2
4:42.694,101770,(,0,0,0
4:42.733,101784,p,0,0,0
4:42.781,101801,),0,0,0
4:42.836,101821,(,0,0,1
4:42.886,101839,N,0,0,0
4:42.939,101858,),0,0,1
4:42.989,101876,(,0,0,2
4:43.106,101918,t,0,0,4
4:43.231,101963,t,0,0,4
4:43.344,102004,),0,0,2
4:43.400,102024,(,0,0,0
4:43.464,102047,p,0,0,0
4:43.514,102065,),0,0,0
4:43.581,102089,(,0,0,1
4:43.628,102106,N,0,0,0
4:43.661,102118,),0,0,1
4:43.700,102132,(,0,0,2
4:43.850,102186,t,0,0,4
4:43.967,102228,t,0,0,4
4:44.058,102261,),0,0,2
4:44.136,102289,(,0,0,0
4:44.197,102311,p,0,0,0
4:44.242,102327,),0,0,0
4:44.300,102348,(,0,0,1
4:44.350,102366,N,0,0,0
4:44.383,102378,),0,0,1
4:44.458,102405,(,0,0,2
4:44.578,102448,t,0,0,4
4:44.719,102499,t,0,0,4
4:44.781,102521,),0,0,2
4:44.867,102552,(,0,0,0
4:44.922,102572,p,0,0,0
4:44.972,102590,),0,0,0
4:45.019,102607,(,0,0,1
4:45.064,102623,N,0,0,0
4:45.117,102642,),0,0,1
4:45.158,102657,(,0,0,2
4:45.289,102704,t,0,0,4
4:45.403,102745,t,0,0,4
4:45.508,102783,),0,0,2
4:45.597,102815,(,0,0,0
4:45.642,102831,p,0,0,0
4:45.692,102849,),0,0,0
4:45.747,102869,(,0,0,1
4:45.800,102888,N,0,0,0
4:45.850,102906,),0,0,1
4:45.925,102933,(,0,0,2
4:46.028,102970,t,0,0,4
4:46.139,103010,t,0,0,4
4:46.247,103049,),0,0,2
4:46.339,103082,(,0,0,0
4:46.383,103098,p,0,0,0
4:46.433,103116,),0,0,0
4:46.478,103132,(,0,0,1
4:46.528,103150,N,0,0,0
4:46.581,103169,),0,0,1
4:46.650,103194,(,0,0,2
4:46.739,103226,t,0,0,4
4:46.861,103270,t,0,0,4
4:46.944,103300,),0,0,2
4:47.028,103330,(,0,0,0
4:47.092,103353,p,0,0,0
4:47.153,103375,),0,0,0
4:47.211,103396,(,0,0,1
4:47.258,103413,N,0,0,0
4:47.303,103429,),0,0,1
4:47.358,103449,(,0,0,2
4:47.481,103493,t,0,0,4
4:47.606,103538,t,0,0,4
4:47.711,103576,),0,0,2
4:47.758,103593,(,0,0,0
4:47.839,103622,p,0,0,0
4:47.886,103639,),0,0,0
4:47.947,103661,(,0,0,1
4:48.000,103680,N,0,0,0
4:48.031,103691,),0,0,1
4:48.114,103721,(,0,0,2
4:48.219,103759,t,0,0,4
4:48.333,103800,t,0,0,4
4:48.408,103827,),0,0,2
4:48.489,103856,(,0,0,0
4:48.553,103879,p,0,0,0
4:48.608,103899,),0,0,0
4:48.667,103920,(,0,0,1
4:48.711,103936,N,0,0,0
4:48.764,103955,),0,0,1
4:48.800,103968,(,0,0,2
4:48.939,104018,t,0,0,4
4:49.061,104062,t,0,0,4
4:49.147,104093,),0,0,2
4:49.233,104124,(,0,0,0
4:49.272,104138,p,0,0,0
4:49.314,104153,),0,0,0
4:49.364,104171,(,0,0,1
4:49.419,104191,N,0,0,0
4:49.467,104208,),0,0,1
4:49.536,104233,(,0,0,2
4:49.644,104272,t,0,0,4
4:49.756,104312,t,0,0,4
4:49.864,104351,),0,0,2
4:49.947,104381,(,0,0,0
4:49.997,104399,p,0,0,0
4:50.053,104419,),0,0,0
4:50.106,104438,(,0,0,1
4:50.156,104456,N,0,0,0
4:50.186,104467,),0,0,1
4:50.264,104495,(,0,0,2
4:50.386,104539,t,0,0,4
4:50.522,104588,t,0,0,4
4:50.608,104619,),0,0,2
4:50.722,104660,(,0,0,0
4:50.761,104674,p,0,0,0
4:50.811,104692,),0,0,0
4:50.869,104713,(,0,0,1
4:50.917,104730,N,0,0,0
4:50.964,104747,),0,0,1
4:51.006,104762,(,0,0,2
4:51.133,104808,t,0,0,4
4:51.242,104847,t,0,0,4
4:51.350,104886,),0,0,2
4:51.450,104922,(,0,0,0
4:51.492,104937,p,0,0,0
4:51.539,104954,),0,0,0
4:51.592,104973,(,0,0,1
4:51.642,104991,N,0,0,0
4:51.694,105010,),0,0,1
4:51.761,105034,(,0,0,2
4:51.856,105068,t,0,0,4
4:51.964,105107,t,0,0,4
4:52.067,105144,),0,0,2
4:52.139,105170,(,0,0,0
4:52.194,105190,p,0,0,0
4:52.250,105210,),0,0,0
4:52.308,105231,(,0,0,1
4:52.356,105248,N,0,0,0
4:52.400,105264,),0,0,1
4:52.486,105295,(,0,0,2
4:52.572,105326,t,0,0,4
4:52.692,105369,t,0,0,4
4:52.789,105404,),0,0,2
4:52.869,105433,(,0,0,0
4:52.925,105453,p,0,0,0
4:52.972,105470,),0,0,0
4:53.033,105492,(,0,0,1
4:53.086,105511,N,0,0,0
4:53.119,105523,),0,0,1
4:53.231,105563,(,0,0,2
4:53.314,105593,t,0,0,4
4:53.422,105632,t,0,0,4
4:53.514,105665,),0,0,2
4:53.581,105689,(,0,0,0
4:53.644,105712,p,0,0,0
4:53.697,105731,),0,0,0
4:53.753,105751,(,0,0,1
4:53.797,105767,N,0,0,0
4:53.828,105778,),0,0,1
4:53.894,105802,(,0,0,2
4:54.028,105850,t,0,0,4
4:54.158,105897,t,0,0,4
4:54.211,105916,),0,0,2
4:54.342,105963,(,0,0,0
4:54.378,105976,p,0,0,0
4:54.422,105992,),0,0,0
4:54.486,106015,(,0,0,1
4:54.542,106035,N,0,0,0
4:54.594,106054,),0,0,1
4:54.683,106086,(,0,0,2
4:54.775,106119,t,0,0,1
4:54.872,106154,),0,0,2
4:54.889,106160,(,0,0,0
4:54.925,106173,p,0,0,0
4:54.983,106194,),0,0,0
4:55.056,106220,(,0,0,1
4:55.108,106239,N,0,0,0
4:55.161,106258,),0,0,1
4:55.222,106280,(,0,0,2
4:55.325,106317,t,0,0,1
4:55.414,106349,),0,0,2
4:55.706,106454,(,0,0,0
4:55.747,106469,p,0,0,0
4:55.792,106485,),0,0,0
4:55.847,106505,(,0,0,1
4:55.897,106523,N,0,0,0
4:55.928,106534,),0,0,1
4:55.964,106547,(,0,0,2
4:56.117,106602,t,0,0,4
4:56.242,106647,t,0,0,4
4:56.319,106675,),0,0,2
4:56.453,106723,(,0,0,0
4:56.494,106738,p,0,0,0
4:56.547,106757,),0,0,0
4:56.603,106777,(,0,0,1
4:56.647,106793,N,0,0,0
4:56.681,106805,),0,0,1
4:56.728,106822,(,0,0,2
4:56.875,106875,t,0,0,4
4:56.997,106919,t,0,0,4
4:57.089,106952,),0,0,2
4:57.222,107000,(,0,0,0
4:57.267,107016,p,0,0,0
4:57.322,107036,),0,0,0
4:57.383,107058,(,0,0,1
4:57.431,107075,N,0,0,0
4:57.461,107086,),0,0,1
4:57.525,107109,(,0,0,2
4:57.675,107163,t,0,0,4
4:57.792,107205,t,0,0,4
4:57.881,107237,),0,0,2
4:57.994,107278,(,0,0,0
4:58.039,107294,p,0,0,0
4:58.086,107311,),0,0,0
4:58.144,107332,(,0,0,1
4:58.194,107350,N,0,0,0
4:58.228,107362,),0,0,1
4:58.331,107399,(,0,0,2
4:58.422,107432,t,0,0,4
4:58.536,107473,t,0,0,4
4:58.625,107505,),0,0,2
4:58.722,107540,(,0,0,0
4:58.781,107561,p,0,0,0
4:58.828,107578,),0,0,0
4:58.872,107594,(,0,0,1
4:58.914,107609,N,0,0,0
4:58.961,107626,),0,0,1
4:58.997,107639,(,0,0,2
4:59.139,107690,t,0,0,4
4:59.250,107730,t,0,0,4
4:59.356,107768,),0,0,2
4:59.444,107800,(,0,0,0
4:59.483,107814,p,0,0,0
4:59.531,107831,),0,0,0
4:59.592,107853,(,0,0,1
4:59.642,107871,N,0,0,0
4:59.692,107889,),0,0,1
4:59.736,107905,(,0,0,2
4:59.864,107951,t,0,0,4
4:59.978,107992,t,0,0,4
5:00.081,108029,),0,0,2
5:00.153,108055,(,0,0,0
5:00.219,108079,p,0,0,0
5:00.264,108095,),0,0,0
5:00.314,108113,(,0,0,1
5:00.364,108131,N,0,0,0
5:00.394,108142,),0,0,1
5:00.497,108179,(,0,0,2
5:00.594,108214,t,0,0,4
5:00.708,108255,t,0,0,4
5:00.811,108292,),0,0,2
5:00.883,108318,(,0,0,0
5:00.942,108339,p,0,0,0
5:00.992,108357,),0,0,0
5:01.050,108378,(,0,0,1
5:01.094,108394,N,0,0,0
5:01.139,108410,),0,0,1
5:01.233,108444,(,0,0,2
5:01.317,108474,t,0,0,4
5:01.436,108517,t,0,0,4
5:01.528,108550,),0,0,2
5:01.614,108581,(,0,0,0
5:01.661,108598,p,0,0,0
5:01.711,108616,),0,0,0
5:01.769,108637,(,0,0,1
5:01.822,108656,N,0,0,0
5:01.856,108668,),0,0,1
5:01.936,108697,(,0,0,2
5:02.044,108736,t,0,0,4
5:02.156,108776,t,0,0,4
5:02.247,108809,),0,0,2
5:02.317,108834,(,0,0,0
5:02.372,108854,p,0,0,0
5:02.422,108872,),0,0,0
5:02.481,108893,(,0,0,1
5:02.525,108909,N,0,0,0
5:02.556,108920,),0,0,1
5:02.667,108960,(,0,0,2
5:02.750,108990,t,0,0,4
5:02.858,109029,t,0,0,4
5:02.953,109063,),0,0,2
5:03.033,109092,(,0,0,0
5:03.075,109107,p,0,0,0
5:03.119,109123,),0,0,0
5:03.169,109141,(,0,0,1
5:03.228,109162,N,0,0,0
5:03.261,109174,),0,0,1
5:03.322,109196,(,0,0,2
5:03.453,109243,t,0,0,4
5:03.567,109284,t,0,0,4
5:03.650,109314,),0,0,2
5:03.719,109339,(,0,0,0
5:03.794,109366,p,0,0,0
5:03.847,109385,),0,0,0
5:03.908,109407,(,0,0,1
5:03.956,109424,N,0,0,0
5:04.008,109443,),0,0,1
5:04.067,109464,(,0,0,2
5:04.183,109506,t,0,0,4
5:04.308,109551,t,0,0,4
5:04.397,109583,),0,0,2
5:04.506,109622,(,0,0,0
5:04.547,109637,p,0,0,0
5:04.594,109654,),0,0,0
5:04.647,109673,(,0,0,1
5:04.697,109691,N,0,0,0
5:04.728,109702,),0,0,1
5:04.819,109735,(,0,0,2
5:04.925,109773,t,0,0,4
5:05.042,109815,t,0,0,4
5:05.156,109856,),0,0,2
5:05.222,109880,(,0,0,0
5:05.275,109899,p,0,0,0
5:05.322,109916,),0,0,0
5:05.372,109934,(,0,0,1
5:05.422,109952,N,0,0,0
5:05.453,109963,),0,0,1
5:05.503,109981,(,0,0,2
5:05.628,110026,t,0,0,4
5:05.733,110064,t,0,0,4
5:05.844,110104,),0,0,2
5:05.917,110130,(,0,0,0
5:05.967,110148,p,0,0,0
5:06.017,110166,),0,0,0
5:06.072,110186,(,0,0,1
5:06.128,110206,N,0,0,0
5:06.158,110217,),0,0,1
5:06.231,110243,(,0,0,2
5:06.347,110285,t,0,0,1
5:06.431,110315,),0,0,2
5:06.633,110388,(,0,0,0
5:06.692,110409,p,0,0,0
5:06.742,110427,),0,0,0
5:06.792,110445,(,0,0,1
5:06.847,110465,N,0,0,0
5:06.881,110477,),0,0,1
5:06.922,110492,(,0,0,2
5:07.064,110543,t,0,0,4
5:07.203,110593,t,0,0,4
5:07.253,110611,),0,0,2
5:07.339,110642,(,0,0,0
5:07.406,110666,p,0,0,0
5:07.458,110685,),0,0,0
5:07.525,110709,(,0,0,1
5:07.572,110726,N,0,0,0
5:07.622,110744,),0,0,1
5:07.672,110762,(,0,0,2
5:07.794,110806,t,0,0,4
5:07.917,110850,t,0,0,4
5:08.011,110884,),0,0,2
5:08.078,110908,(,0,0,0
5:08.133,110928,p,0,0,0
5:08.186,110947,),0,0,0
5:08.242,110967,(,0,0,1
5:08.294,110986,N,0,0,0
5:08.347,111005,),0,0,1
5:08.403,111025,(,0,0,2
5:08.525,111069,t,0,0,4
5:08.650,111114,t,0,0,4
5:08.711,111136,),0,0,2
5:08.819,111175,(,0,0,0
5:08.867,111192,p,0,0,0
5:08.914,111209,),0,0,0
5:08.978,111232,(,0,0,1
5:09.019,111247,N,0,0,0
5:09.067,111264,),0,0,1
5:09.164,111299,(,0,0,2
5:09.250,111330,t,0,0,1
5:09.347,111365,),0,0,2
5:09.464,111407,(,0,0,1
5:09.547,111437,N,0,0,0
5:09.589,111452,),0,0,1
5:09.681,111485,(,0,0,2
5:09.781,111521,t,0,0,0
5:09.875,111555,),0,0,2
5:10.272,111698,(,0,0,0
5:10.333,111720,p,0,0,0
5:10.386,111739,),0,0,0
5:10.431,111755,(,0,0,1
5:10.475,111771,N,0,0,0
5:10.511,111784,),0,0,1
5:10.594,111814,(,0,0,2
5:10.728,111862,t,0,0,4
5:10.864,111911,t,0,0,4
5:10.956,111944,),0,0,2
5:11.022,111968,(,0,0,0
5:11.097,111995,p,0,0,0
5:11.153,112015,),0,0,0
5:11.206,112034,(,0,0,1
5:11.256,112052,N,0,0,0
5:11.306,112070,),0,0,1
5:11.367,112092,(,0,0,2
5:11.472,112130,t,0,0,4
5:11.589,112172,t,0,0,4
5:11.700,112212,),0,0,2
5:11.781,112241,(,0,0,0
5:11.836,112261,p,0,0,0
5:11.886,112279,),0,0,0
5:11.947,112301,(,0,0,1
5:11.997,112319,N,0,0,0
5:12.031,112331,),0,0,1
5:12.067,112344,(,0,0,2
5:12.225,112401,t,0,0,4
5:12.339,112442,t,0,0,4
5:12.439,112478,),0,0,2
5:12.514,112505,(,0,0,0
5:12.561,112522,p,0,0,0
5:12.611,112540,),0,0,0
5:12.664,112559,(,0,0,1
5:12.711,112576,N,0,0,0
5:12.744,112588,),0,0,1
5:12.819,112615,(,0,0,2
5:12.942,112659,t,0,0,4
5:13.056,112700,t,0,0,4
5:13.153,112735,),0,0,2
5:13.228,112762,(,0,0,0
5:13.283,112782,p,0,0,0
5:13.328,112798,),0,0,0
5:13.389,112820,(,0,0,1
5:13.439,112838,N,0,0,0
5:13.469,112849,),0,0,1
5:13.572,112886,(,0,0,2
5:13.678,112924,t,0,0,4
5:13.797,112967,t,0,0,4
5:13.894,113002,),0,0,2
5:13.964,113027,(,0,0,0
5:14.017,113046,p,0,0,0
5:14.061,113062,),0,0,0
5:14.111,113080,(,0,0,1
5:14.158,113097,N,0,0,0
5:14.189,113108,),0,0,1
5:14.303,113149,(,0,0,2
5:14.397,113183,t,0,0,4
5:14.519,113227,t,0,0,4
5:14.631,113267,),0,0,2
5:14.692,113289,(,0,0,0
5:14.742,113307,p,0,0,0
5:14.786,113323,),0,0,0
5:14.847,113345,(,0,0,1
5:14.894,113362,N,0,0,0
5:14.944,113380,),0,0,1
5:15.067,113424,(,0,0,2
5:15.128,113446,t,0,0,4
5:15.258,113493,t,0,0,4
5:15.350,113526,),0,0,2
5:15.442,113559,(,0,0,0
5:15.486,113575,p,0,0,0
5:15.533,113592,),0,0,0
5:15.586,113611,(,0,0,1
5:15.633,113628,N,0,0,0
5:15.681,113645,),0,0,1
5:15.731,113663,(,0,0,2
5:15.847,113705,t,0,0,4
5:15.967,113748,t,0,0,4
5:16.058,113781,),0,0,2
5:16.150,113814,(,0,0,0
5:16.197,113831,p,0,0,0
5:16.250,113850,),0,0,0
5:16.308,113871,(,0,0,1
5:16.350,113886,N,0,0,0
5:16.403,113905,),0,0,1
5:16.444,113920,(,0,0,2
5:16.569,113965,t,0,0,1
5:16.664,113999,),0,0,2
5:16.878,114076,(,0,0,0
5:16.917,114090,p,0,0,0
5:16.961,114106,),0,0,0
5:17.017,114126,(,0,0,1
5:17.069,114145,N,0,0,0
5:17.100,114156,),0,0,1
5:17.125,114165,(,0,0,2
5:17.294,114226,t,0,0,4
5:17.406,114266,t,0,0,4
5:17.514,114305,),0,0,2
5:17.592,114333,(,0,0,0
5:17.644,114352,p,0,0,0
5:17.694,114370,),0,0,0
5:17.753,114391,(,0,0,1
5:17.803,114409,N,0,0,0
5:17.836,114421,),0,0,1
5:17.936,114457,(,0,0,2
5:18.039,114494,t,0,0,4
5:18.156,114536,t,0,0,4
5:18.256,114572,),0,0,2
5:18.325,114597,(,0,0,0
5:18.383,114618,p,0,0,0
5:18.428,114634,),0,0,0
5:18.481,114653,(,0,0,1
5:18.528,114670,N,0,0,0
5:18.558,114681,),0,0,1
5:18.642,114711,(,0,0,2
5:18.753,114751,t,0,0,4
5:18.878,114796,t,0,0,4
5:18.983,114834,),0,0,2
5:19.044,114856,(,0,0,0
5:19.100,114876,p,0,0,0
5:19.150,114894,),0,0,0
5:19.197,114911,(,0,0,1
5:19.244,114928,N,0,0,0
5:19.292,114945,),0,0,1
5:19.372,114974,(,0,0,2
5:19.458,115005,t,0,0,4
5:19.581,115049,t,0,0,4
5:19.689,115088,),0,0,2
5:19.758,115113,(,0,0,0
5:19.808,115131,p,0,0,0
5:19.861,115150,),0,0,0
5:19.914,115169,(,0,0,1
5:19.958,115185,N,0,0,0
5:20.003,115201,),0,0,1
5:20.067,115224,(,0,0,2
5:20.167,115260,t,0,0,4
5:20.278,115300,t,0,0,4
5:20.394,115342,),0,0,2
5:20.483,115374,(,0,0,0
5:20.519,115387,p,0,0,0
5:20.569,115405,),0,0,0
5:20.619,115423,(,0,0,1
5:20.667,115440,N,0,0,0
5:20.714,115457,),0,0,1
5:20.769,115477,(,0,0,2
5:20.886,115519,t,0,0,4
5:21.017,115566,t,0,0,4
5:21.092,115593,),0,0,2
5:21.189,115628,(,0,0,0
5:21.242,115647,p,0,0,0
5:21.297,115667,),0,0,0
5:21.356,115688,(,0,0,1
5:21.400,115704,N,0,0,0
5:21.431,115715,),0,0,1
5:21.539,115754,(,0,0,2
5:21.625,115785,t,0,0,4
5:21.739,115826,t,0,0,4
5:21.858,115869,),0,0,2
5:21.953,115903,(,0,0,0
5:21.994,115918,p,0,0,0
5:22.042,115935,),0,0,0
5:22.100,115956,(,0,0,1
5:22.153,115975,N,0,0,0
5:22.189,115988,),0,0,1
5:22.272,116018,(,0,0,2
5:22.386,116059,t,0,0,4
5:22.497,116099,t,0,0,4
5:22.603,116137,),0,0,2
5:22.683,116166,(,0,0,0
5:22.722,116180,p,0,0,0
5:22.775,116199,),0,0,0
5:22.833,116220,(,0,0,1
5:22.878,116236,N,0,0,0
5:22.908,116247,),0,0,1
5:22.983,116274,(,0,0,2
5:23.097,116315,t,0,0,4
5:23.208,116355,t,0,0,4
5:23.297,116387,),0,0,2
5:23.389,116420,(,0,0,0
5:23.444,116440,p,0,0,0
5:23.492,116457,),0,0,0
5:23.544,116476,(,0,0,1
5:23.600,116496,N,0,0,0
5:23.647,116513,),0,0,1
5:23.733,116544,(,0,0,2
5:23.822,116576,t,0,0,4
5:23.939,116618,t,0,0,4
5:24.053,116659,),0,0,2
5:24.119,116683,(,0,0,0
5:24.186,116707,p,0,0,0
5:24.242,116727,),0,0,0
5:24.294,116746,(,0,0,1
5:24.344,116764,N,0,0,0
5:24.378,116776,),0,0,1
5:24.475,116811,(,0,0,2
5:24.581,116849,t,0,0,4
5:24.711,116896,t,0,0,4
5:24.800,116928,),0,0,2
5:24.886,116959,(,0,0,0
5:24.947,116981,p,0,0,0
5:24.997,116999,),0,0,0
5:25.056,117020,(,0,0,1
5:25.097,117035,N,0,0,0
5:25.128,117046,),0,0,1
5:25.242,117087,(,0,0,2
5:25.325,117117,t,0,0,1
5:25.411,117148,),0,0,2
5:25.603,117217,(,0,0,0
5:25.669,117241,p,0,0,0
5:25.719,117259,),0,0,0
5:25.775,117279,(,0,0,1
5:25.828,117298,N,0,0,0
5:25.861,117310,),0,0,1
5:25.942,117339,(,0,0,2
5:26.053,117379,t,0,0,4
5:26.147,117413,t,0,0,4
5:26.253,117451,),0,0,2
5:26.336,117481,(,0,0,0
5:26.381,117497,p,0,0,0
5:26.431,117515,),0,0,0
5:26.489,117536,(,0,0,1
5:26.533,117552,N,0,0,0
5:26.581,117569,),0,0,1
5:26.675,117603,(,0,0,2
5:26.742,117627,t,0,0,4
5:26.875,117675,t,0,0,4
5:26.961,117706,),0,0,2
5:27.053,117739,(,0,0,0
5:27.094,117754,p,0,0,0
5:27.142,117771,),0,0,0
5:27.200,117792,(,0,0,1
5:27.256,117812,N,0,0,0
5:27.308,117831,),0,0,1
5:27.344,117844,(,0,0,2
5:27.464,117887,t,0,0,4
5:27.572,117926,t,0,0,4
5:27.669,117961,),0,0,2
5:27.731,117983,(,0,0,0
5:27.800,118008,p,0,0,0
5:27.858,118029,),0,0,0
5:27.908,118047,(,0,0,1
5:27.958,118065,N,0,0,0
5:28.014,118085,),0,0,1
5:28.075,118107,(,0,0,2
5:28.169,118141,t,0,0,4
5:28.297,118187,t,0,0,4
5:28.369,118213,),0,0,2
5:28.489,118256,(,0,0,0
5:28.536,118273,p,0,0,0
5:28.589,118292,),0,0,0
5:28.647,118313,(,0,0,1
5:28.703,118333,N,0,0,0
5:28.750,118350,),0,0,1
5:28.822,118376,(,0,0,2
5:28.931,118415,t,0,0,4
5:29.044,118456,t,0,0,4
5:29.133,118488,),0,0,2
5:29.219,118519,(,0,0,0
5:29.264,118535,p,0,0,0
5:29.314,118553,),0,0,0
5:29.367,118572,(,0,0,1
5:29.417,118590,N,0,0,0
5:29.447,118601,),0,0,1
5:29.542,118635,(,0,0,2
5:29.644,118672,t,0,0,4
5:29.761,118714,t,0,0,4
5:29.864,118751,),0,0,2
5:29.931,118775,(,0,0,0
5:29.986,118795,p,0,0,0
5:30.033,118812,),0,0,0
5:30.092,118833,(,0,0,1
5:30.136,118849,N,0,0,0
5:30.183,118866,),0,0,1
5:30.267,118896,(,0,0,2
5:30.350,118926,t,0,0,4
5:30.456,118964,t,0,0,4
5:30.564,119003,),0,0,2
5:30.664,119039,(,0,0,0
5:30.706,119054,p,0,0,0
5:30.756,119072,),0,0,0
5:30.806,119090,(,0,0,1
5:30.861,119110,N,0,0,0
5:30.894,119122,),0,0,1
5:30.942,119139,(,0,0,2
5:31.100,119196,t,0,0,4
5:31.211,119236,t,0,0,4
5:31.311,119272,),0,0,2
5:31.383,119298,(,0,0,0
5:31.458,119325,p,0,0,0
5:31.508,119343,),0,0,0
5:31.569,119365,(,0,0,1
5:31.617,119382,N,0,0,0
5:31.667,119400,),0,0,1
5:31.742,119427,(,0,0,2
5:31.833,119460,t,0,0,4
5:31.944,119500,t,0,0,4
5:32.039,119534,),0,0,2
5:32.122,119564,(,0,0,0
5:32.183,119586,p,0,0,0
5:32.231,119603,),0,0,0
5:32.289,119624,(,0,0,1
5:32.342,119643,N,0,0,0
5:32.372,119654,),0,0,1
5:32.506,119702,(,0,0,2
5:32.558,119721,t,0,0,4
5:32.669,119761,t,0,0,4
5:32.764,119795,),0,0,2
5:32.825,119817,(,0,0,0
5:32.889,119840,p,0,0,0
5:32.942,119859,),0,0,0
5:32.997,119879,(,0,0,1
5:33.050,119898,N,0,0,0
5:33.083,119910,),0,0,1
5:33.147,119933,(,0,0,2
5:33.275,119979,t,0,0,4
5:33.386,120019,t,0,0,4
5:33.475,120051,),0,0,2
5:33.567,120084,(,0,0,0
5:33.625,120105,p,0,0,0
5:33.675,120123,),0,0,0
5:33.733,120144,(,0,0,1
5:33.789,120164,N,0,0,0
5:33.825,120177,),0,0,1
5:33.969,120229,(,0,0,2
5:34.017,120246,t,0,0,4
5:34.139,120290,t,0,0,4
5:34.206,120314,),0,0,2
5:34.325,120357,(,0,0,0
5:34.367,120372,p,0,0,0
5:34.414,120389,),0,0,0
5:34.461,120406,(,0,0,1
5:34.519,120427,N,0,0,0
5:34.564,120443,),0,0,1
5:34.667,120480,(,0,0,2
5:34.758,120513,t,0,0,4
5:34.872,120554,t,0,0,4
5:34.969,120589,),0,0,2
5:35.061,120622,(,0,0,0
5:35.114,120641,p,0,0,0
5:35.167,120660,),0,0,0
5:35.208,120675,(,0,0,1
5:35.272,120698,N,0,0,0
5:35.308,120711,),0,0,1
5:35.431,120755,(,0,0,2
5:35.506,120782,t,0,0,4
5:35.642,120831,t,0,0,4
5:35.739,120866,),0,0,2
5:35.831,120899,(,0,0,0
5:35.875,120915,p,0,0,0
5:35.917,120930,),0,0,0
5:35.972,120950,(,0,0,1
5:36.025,120969,N,0,0,0
5:36.058,120981,),0,0,1
5:36.153,121015,(,0,0,2
5:36.242,121047,t,0,0,4
5:36.361,121090,t,0,0,4
5:36.464,121127,),0,0,2
5:36.550,121158,(,0,0,0
5:36.614,121181,p,0,0,0
5:36.658,121197,),0,0,0
5:36.706,121214,(,0,0,1
5:36.758,121233,N,0,0,0
5:36.794,121246,),0,0,1
5:36.903,121285,(,0,0,2
5:36.978,121312,t,0,0,4
5:37.092,121353,t,0,0,4
5:37.142,121371,),0,0,2
5:37.292,121425,(,0,0,0
5:37.328,121438,p,0,0,0
5:37.378,121456,),0,0,0
5:37.433,121476,(,0,0,1
5:37.483,121494,N,0,0,0
5:37.519,121507,),0,0,1
5:37.619,121543,(,0,0,2
5:37.717,121578,t,0,0,4
5:37.844,121624,t,0,0,4
5:37.953,121663,),0,0,2
5:38.036,121693,(,0,0,0
5:38.089,121712,p,0,0,0
5:38.142,121731,),0,0,0
5:38.203,121753,(,0,0,1
5:38.258,121773,N,0,0,0
5:38.311,121792,),0,0,1
5:38.375,121815,(,0,0,2
5:38.475,121851,t,0,0,4
5:38.594,121894,t,0,0,4
5:38.692,121929,),0,0,2
5:38.764,121955,(,0,0,0
5:38.822,121976,p,0,0,0
5:38.875,121995,),0,0,0
5:38.931,122015,(,0,0,1
5:38.983,122034,N,0,0,0
5:39.014,122045,),0,0,1
5:39.106,122078,(,0,0,2
5:39.203,122113,t,0,0,4
5:39.314,122153,t,0,0,4
5:39.414,122189,),0,0,2
5:39.475,122211,(,0,0,0
5:39.533,122232,p,0,0,0
5:39.581,122249,),0,0,0
5:39.642,122271,(,0,0,1
5:39.689,122288,N,0,0,0
5:39.739,122306,),0,0,1
5:39.828,122338,(,0,0,2
5:39.914,122369,t,0,0,4
5:40.022,122408,t,0,0,4
5:40.125,122445,),0,0,2
5:40.228,122482,(,0,0,0
5:40.264,122495,p,0,0,0
5:40.311,122512,),0,0,0
5:40.367,122532,(,0,0,1
5:40.417,122550,N,0,0,0
5:40.481,122573,),0,0,1
5:40.517,122586,(,0,0,2
5:40.642,122631,t,0,0,4
5:40.747,122669,t,0,0,4
5:40.861,122710,),0,0,2
5:40.936,122737,(,0,0,0
5:40.989,122756,p,0,0,0
5:41.039,122774,),0,0,0
5:41.097,122795,(,0,0,1
5:41.147,122813,N,0,0,0
5:41.194,122830,),0,0,1
5:41.253,122851,(,0,0,2
5:41.367,122892,t,0,0,4
5:41.483,122934,t,0,0,4
5:41.589,122972,),0,0,2
5:41.697,123011,(,0,0,0
5:41.736,123025,p,0,0,0
5:41.781,123041,),0,0,0
5:41.839,123062,(,0,0,1
5:41.897,123083,N,0,0,0
5:41.947,123101,),0,0,1
5:41.953,123103,(,0,0,2
5:42.122,123164,t,0,0,4
5:42.250,123210,t,0,0,4
5:42.361,123250,),0,0,2
5:42.425,123273,(,0,0,0
5:42.483,123294,p,0,0,0
5:42.533,123312,),0,0,0
5:42.581,123329,(,0,0,1
5:42.631,123347,N,0,0,0
5:42.683,123366,),0,0,1
5:42.744,123388,(,0,0,2
5:42.856,123428,t,0,0,4
5:42.967,123468,t,0,0,4
5:43.075,123507,),0,0,2
5:43.150,123534,(,0,0,0
5:43.197,123551,p,0,0,0
5:43.247,123569,),0,0,0
5:43.308,123591,(,0,0,1
5:43.356,123608,N,0,0,0
5:43.397,123623,),0,0,1
5:43.461,123646,(,0,0,2
5:43.564,123683,t,0,0,4
5:43.664,123719,t,0,0,4
5:43.764,123755,),0,0,2
5:43.839,123782,(,0,0,0
5:43.900,123804,p,0,0,0
5:43.953,123823,),0,0,0
5:44.006,123842,(,0,0,1
5:44.056,123860,N,0,0,0
5:44.086,123871,),0,0,1
5:44.119,123883,(,0,0,2
5:44.278,123940,t,0,0,4
5:44.392,123981,t,0,0,4
5:44.492,124017,),0,0,2
5:44.575,124047,(,0,0,0
5:44.625,124065,p,0,0,0
5:44.678,124084,),0,0,0
5:44.742,124107,(,0,0,1
5:44.792,124125,N,0,0,0
5:44.819,124135,),0,0,1
5:44.917,124170,(,0,0,2
5:45.022,124208,t,0,0,4
5:45.131,124247,t,0,0,4
5:45.228,124282,),0,0,2
5:45.308,124311,(,0,0,0
5:45.361,124330,p,0,0,0
5:45.411,124348,),0,0,0
5:45.464,124367,(,0,0,1
5:45.514,124385,N,0,0,0
5:45.547,124397,),0,0,1
5:45.644,124432,(,0,0,2
5:45.750,124470,t,0,0,4
5:45.869,124513,t,0,0,4
5:45.972,124550,),0,0,2
5:46.022,124568,(,0,0,0
5:46.072,124586,p,0,0,0
5:46.119,124603,),0,0,0
5:46.175,124623,(,0,0,1
5:46.217,124638,N,0,0,0
5:46.264,124655,),0,0,1
5:46.344,124684,(,0,0,2
5:46.442,124719,t,0,0,4
5:46.561,124762,t,0,0,4
5:46.664,124799,),0,0,2
5:46.711,124816,(,0,0,0
5:46.772,124838,p,0,0,0
5:46.814,124853,),0,0,0
5:46.872,124874,(,0,0,1
5:46.922,124892,N,0,0,0
5:46.956,124904,),0,0,1
5:47.019,124927,(,0,0,2
5:47.158,124977,t,0,0,4
5:47.275,125019,t,0,0,4
5:47.372,125054,),0,0,2
5:47.436,125077,(,0,0,0
5:47.494,125098,p,0,0,0
5:47.544,125116,),0,0,0
5:47.597,125135,(,0,0,1
5:47.644,125152,N,0,0,0
5:47.672,125162,),0,0,1
5:47.778,125200,(,0,0,2
5:47.867,125232,t,0,0,4
5:47.997,125279,t,0,0,4
5:48.103,125317,),0,0,2
5:48.183,125346,(,0,0,0
5:48.228,125362,p,0,0,0
5:48.272,125378,),0,0,0
5:48.331,125399,(,0,0,1
5:48.386,125419,N,0,0,0
5:48.417,125430,),0,0,1
5:48.525,125469,(,0,0,2
5:48.608,125499,t,0,0,4
5:48.731,125543,t,0,0,4
5:48.842,125583,),0,0,2
5:48.931,125615,(,0,0,0
5:48.972,125630,p,0,0,0
5:49.025,125649,),0,0,0
5:49.075,125667,(,0,0,1
5:49.122,125684,N,0,0,0
5:49.150,125694,),0,0,1
5:49.253,125731,(,0,0,2
5:49.331,125759,t,0,0,4
5:49.456,125804,t,0,0,4
5:49.539,125834,),0,0,2
5:49.636,125869,(,0,0,0
5:49.686,125887,p,0,0,0
5:49.733,125904,),0,0,0
5:49.792,125925,(,0,0,1
5:49.844,125944,N,0,0,0
5:49.892,125961,),0,0,1
5:49.983,125994,(,0,0,2
5:50.064,126023,t,0,0,1
5:50.167,126060,),0,0,2
5:50.319,126115,(,0,0,1
5:50.378,126136,N,0,0,0
5:50.408,126147,),0,0,1
5:50.517,126186,(,0,0,2
5:50.589,126212,t,0,0,1
5:50.683,126246,),0,0,2
5:50.986,126355,(,0,0,0
5:51.036,126373,p,0,0,0
5:51.078,126388,),0,0,0
5:51.139,126410,(,0,0,1
5:51.192,126429,N,0,0,0
5:51.225,126441,),0,0,1
5:51.303,126469,(,0,0,2
5:51.436,126517,t,0,0,4
5:51.556,126560,t,0,0,4
5:51.667,126600,),0,0,2
5:51.786,126643,(,0,0,0
5:51.828,126658,p,0,0,0
5:51.881,126677,),0,0,0
5:51.925,126693,(,0,0,1
5:51.975,126711,N,0,0,0
5:52.025,126729,),0,0,1
5:52.081,126749,(,0,0,2
5:52.197,126791,t,0,0,4
5:52.322,126836,t,0,0,4
5:52.433,126876,),0,0,2
5:52.519,126907,(,0,0,0
5:52.583,126930,p,0,0,0
5:52.633,126948,),0,0,0
5:52.686,126967,(,0,0,1
5:52.731,126983,N,0,0,0
5:52.758,126993,),0,0,1
5:52.858,127029,(,0,0,2
5:52.944,127060,t,0,0,4
5:53.072,127106,t,0,0,4
5:53.161,127138,),0,0,2
5:53.283,127182,(,0,0,0
5:53.328,127198,p,0,0,0
5:53.375,127215,),0,0,0
5:53.428,127234,(,0,0,1
5:53.478,127252,N,0,0,0
5:53.522,127268,),0,0,1
5:53.586,127291,(,0,0,2
5:53.703,127333,t,0,0,4
5:53.828,127378,t,0,0,4
5:53.928,127414,),0,0,2
5:54.050,127458,(,0,0,0
5:54.092,127473,p,0,0,0
5:54.133,127488,),0,0,0
5:54.183,127506,(,0,0,1
5:54.231,127523,N,0,0,0
5:54.264,127535,),0,0,1
5:54.350,127566,(,0,0,2
5:54.442,127599,t,0,0,4
5:54.561,127642,t,0,0,4
5:54.686,127687,),0,0,2
5:54.800,127728,(,0,0,0
5:54.844,127744,p,0,0,0
5:54.897,127763,),0,0,0
5:54.950,127782,(,0,0,1
5:54.997,127799,N,0,0,0
5:55.028,127810,),0,0,1
5:55.106,127838,(,0,0,2
5:55.217,127878,t,0,0,4
5:55.344,127924,t,0,0,4
5:55.439,127958,),0,0,2
5:55.569,128005,(,0,0,0
5:55.606,128018,p,0,0,0
5:55.656,128036,),0,0,0
5:55.717,128058,(,0,0,1
5:55.761,128074,N,0,0,0
5:55.806,128090,),0,0,1
5:55.856,128108,(,0,0,2
5:55.975,128151,t,0,0,4
5:56.119,128203,t,0,0,4
5:56.189,128228,),0,0,2
5:56.308,128271,(,0,0,0
5:56.342,128283,p,0,0,0
5:56.389,128300,),0,0,0
5:56.444,128320,(,0,0,1
5:56.494,128338,N,0,0,0
5:56.528,128350,),0,0,1
5:56.611,128380,(,0,0,2
5:56.719,128419,t,0,0,4
5:56.831,128459,t,0,0,4
5:56.936,128497,),0,0,2
5:57.008,128523,(,0,0,0
5:57.072,128546,p,0,0,0
5:57.122,128564,),0,0,0
5:57.178,128584,(,0,0,1
5:57.225,128601,N,0,0,0
5:57.256,128612,),0,0,1
5:57.336,128641,(,0,0,2
5:57.453,128683,t,0,0,4
5:57.578,128728,t,0,0,4
5:57.678,128764,),0,0,2
5:57.758,128793,(,0,0,0
5:57.825,128817,p,0,0,0
5:57.878,128836,),0,0,0
5:57.944,128860,(,0,0,1
5:57.994,128878,N,0,0,0
5:58.025,128889,),0,0,1
5:58.147,128933,(,0,0,2
5:58.225,128961,t,0,0,4
5:58.353,129007,t,0,0,4
5:58.442,129039,),0,0,2
5:58.539,129074,(,0,0,0
5:58.589,129092,p,0,0,0
5:58.633,129108,),0,0,0
5:58.681,129125,(,0,0,1
5:58.731,129143,N,0,0,0
5:58.764,129155,),0,0,1
5:58.875,129195,(,0,0,2
5:58.964,129227,t,0,0,4
5:59.086,129271,t,0,0,4
5:59.203,129313,),0,0,2
5:59.286,129343,(,0,0,0
5:59.331,129359,p,0,0,0
5:59.378,129376,),0,0,0
5:59.428,129394,(,0,0,1
5:59.469,129409,N,0,0,0
5:59.497,129419,),0,0,1
5:59.594,129454,(,0,0,2
5:59.692,129489,t,0,0,1
5:59.794,129526,),0,0,2
6:00.003,129601,(,0,0,0
6:00.050,129618,p,0,0,0
6:00.097,129635,),0,0,0
6:00.153,129655,(,0,0,1
6:00.200,129672,N,0,0,0
6:00.231,129683,),0,0,1
6:00.325,129717,(,0,0,2
6:00.428,129754,t,0,0,4
6:00.547,129797,t,0,0,4
6:00.644,129832,),0,0,2
6:00.739,129866,(,0,0,0
6:00.789,129884,p,0,0,0
6:00.833,129900,),0,0,0
6:00.881,129917,(,0,0,1
6:00.928,129934,N,0,0,0
6:00.958,129945,),0,0,1
6:01.022,129968,(,0,0,2
6:01.150,130014,t,0,0,4
6:01.272,130058,t,0,0,4
6:01.378,130096,),0,0,2
6:01.442,130119,(,0,0,0
6:01.508,130143,p,0,0,0
6:01.561,130162,),0,0,0
6:01.617,130182,(,0,0,1
6:01.664,130199,N,0,0,0
6:01.708,130215,),0,0,1
6:01.794,130246,(,0,0,2
6:01.875,130275,t,0,0,4
6:01.992,130317,t,0,0,4
6:02.108,130359,),0,0,2
6:02.211,130396,(,0,0,0
6:02.247,130409,p,0,0,0
6:02.297,130427,),0,0,0
6:02.356,130448,(,0,0,1
6:02.411,130468,N,0,0,0
6:02.467,130488,),0,0,1
6:02.528,130510,(,0,0,2
6:02.625,130545,t,0,0,4
6:02.728,130582,t,0,0,4
6:02.839,130622,),0,0,2
6:02.892,130641,(,0,0,0
6:02.956,130664,p,0,0,0
6:03.011,130684,),0,0,0
6:03.064,130703,(,0,0,1
6:03.114,130721,N,0,0,0
6:03.164,130739,),0,0,1
6:03.256,130772,(,0,0,2
6:03.342,130803,t,0,0,4
6:03.458,130845,t,0,0,4
6:03.547,130877,),0,0,2
6:03.639,130910,(,0,0,0
6:03.672,130922,p,0,0,0
6:03.717,130938,),0,0,0
6:03.772,130958,(,0,0,1
6:03.822,130976,N,0,0,0
6:03.853,130987,),0,0,1
6:03.936,131017,(,0,0,2
6:04.044,131056,t,0,0,4
6:04.161,131098,t,0,0,4
6:04.258,131133,),0,0,2
6:04.344,131164,(,0,0,0
6:04.397,131183,p,0,0,0
6:04.450,131202,),0,0,0
6:04.500,131220,(,0,0,1
6:04.550,131238,N,0,0,0
6:04.583,131250,),0,0,1
6:04.692,131289,(,0,0,2
6:04.783,131322,t,0,0,4
6:04.925,131373,t,0,0,4
6:05.014,131405,),0,0,2
6:05.092,131433,(,0,0,0
6:05.158,131457,p,0,0,0
6:05.206,131474,),0,0,0
6:05.256,131492,(,0,0,1
6:05.306,131510,N,0,0,0
6:05.356,131528,),0,0,1
6:05.392,131541,(,0,0,2
6:05.522,131588,t,0,0,4
6:05.661,131638,t,0,0,4
6:05.744,131668,),0,0,2
6:05.850,131706,(,0,0,0
6:05.900,131724,p,0,0,0
6:05.947,131741,),0,0,0
6:06.003,131761,(,0,0,1
6:06.047,131777,N,0,0,0
6:06.100,131796,),0,0,1
6:06.119,131803,(,0,0,2
6:06.253,131851,t,0,0,4
6:06.361,131890,t,0,0,4
6:06.472,131930,),0,0,2
6:06.553,131959,(,0,0,0
6:06.611,131980,p,0,0,0
6:06.664,131999,),0,0,0
6:06.719,132019,(,0,0,1
6:06.767,132036,N,0,0,0
6:06.811,132052,),0,0,1
6:06.867,132072,(,0,0,2
6:06.983,132114,t,0,0,4
6:07.103,132157,t,0,0,4
6:07.197,132191,),0,0,2
6:07.300,132228,(,0,0,0
6:07.353,132247,p,0,0,0
6:07.403,132265,),0,0,0
6:07.458,132285,(,0,0,1
6:07.514,132305,N,0,0,0
6:07.561,132322,),0,0,1
6:07.597,132335,(,0,0,2
6:07.719,132379,t,0,0,4
6:07.864,132431,t,0,0,4
6:07.944,132460,),0,0,2
6:08.031,132491,(,0,0,0
6:08.069,132505,p,0,0,0
6:08.122,132524,),0,0,0
6:08.178,132544,(,0,0,1
6:08.225,132561,N,0,0,0
6:08.258,132573,),0,0,1
6:08.344,132604,(,0,0,2
6:08.450,132642,t,0,0,4
6:08.572,132686,t,0,0,4
6:08.650,132714,),0,0,2
6:08.744,132748,(,0,0,0
6:08.786,132763,p,0,0,0
6:08.828,132778,),0,0,0
6:08.914,132809,(,0,0,1
6:08.964,132827,N,0,0,0
6:08.992,132837,),0,0,1
6:09.067,132864,(,0,0,2
6:09.192,132909,t,0,0,1
6:09.278,132940,),0,0,2
6:09.453,133003,(,0,0,1
6:09.503,133021,N,0,0,0
6:09.533,133032,),0,0,1
6:09.567,133044,(,0,0,2
6:09.719,133099,t,0,0,4
6:09.831,133139,t,0,0,4
6:09.861,133150,),0,0,2
6:10.128,133246,(,0,0,0
6:10.164,133259,p,0,0,0
6:10.206,133274,),0,0,0
6:10.242,133287,(,0,0,1
6:10.292,133305,N,0,0,0
6:10.322,133316,),0,0,1
6:10.431,133355,(,0,0,2
6:10.519,133387,t,0,0,4
6:10.631,133427,t,0,0,4
6:10.739,133466,),0,0,2
6:10.947,133541,(,0,0,0
6:10.986,133555,p,0,0,0
6:11.031,133571,),0,0,0
6:11.081,133589,(,0,0,1
6:11.136,133609,N,0,0,0
6:11.169,133621,),0,0,1
6:11.256,133652,(,0,0,2
6:11.369,133693,t,0,0,4
6:11.494,133738,t,0,0,4
6:11.614,133781,),0,0,2
6:11.719,133819,(,0,0,0
6:11.772,133838,p,0,0,0
6:11.825,133857,),0,0,0
6:11.875,133875,(,0,0,1
6:11.928,133894,N,0,0,0
6:11.981,133913,),0,0,1
6:12.067,133944,(,0,0,2
6:12.147,133973,t,0,0,4
6:12.261,134014,t,0,0,4
6:12.322,134036,),0,0,2
6:12.467,134088,(,0,0,0
6:12.522,134108,p,0,0,0
6:12.575,134127,),0,0,0
6:12.636,134149,(,0,0,1
6:12.681,134165,N,0,0,0
6:12.736,134185,),0,0,1
6:12.800,134208,(,0,0,2
6:12.897,134243,t,0,0,4
6:13.008,134283,t,0,0,4
6:13.061,134302,),0,0,2
6:13.192,134349,(,0,0,0
6:13.236,134365,p,0,0,0
6:13.281,134381,),0,0,0
6:13.350,134406,(,0,0,1
6:13.403,134425,N,0,0,0
6:13.453,134443,),0,0,1
6:13.528,134470,(,0,0,2
6:13.631,134507,t,0,0,4
6:13.739,134546,t,0,0,4
6:13.819,134575,),0,0,2
6:13.900,134604,(,0,0,0
6:13.939,134618,p,0,0,0
6:13.989,134636,),0,0,0
6:14.050,134658,(,0,0,1
6:14.097,134675,N,0,0,0
6:14.153,134695,),0,0,1
6:14.239,134726,(,0,0,2
6:14.322,134756,t,0,0,4
6:14.436,134797,t,0,0,4
6:14.511,134824,),0,0,2
6:14.686,134887,(,0,0,0
6:14.725,134901,p,0,0,0
6:14.775,134919,),0,0,0
6:14.831,134939,(,0,0,1
6:14.881,134957,N,0,0,0
6:14.911,134968,),0,0,1
6:15.025,135009,(,0,0,2
6:15.119,135043,t,0,0,4
6:15.244,135088,t,0,0,4
6:15.333,135120,),0,0,2
6:15.439,135158,(,0,0,0
6:15.481,135173,p,0,0,0
6:15.525,135189,),0,0,0
6:15.583,135210,(,0,0,1
6:15.639,135230,N,0,0,0
6:15.686,135247,),0,0,1
6:15.789,135284,(,0,0,2
6:15.861,135310,t,0,0,4
6:15.969,135349,t,0,0,4
6:16.081,135389,),0,0,2
6:16.167,135420,(,0,0,0
6:16.219,135439,p,0,0,0
6:16.272,135458,),0,0,0
6:16.322,135476,(,0,0,1
6:16.369,135493,N,0,0,0
6:16.400,135504,),0,0,1
6:16.472,135530,(,0,0,2
6:16.592,135573,t,0,0,4
6:16.711,135616,t,0,0,4
6:16.825,135657,),0,0,2
6:16.922,135692,(,0,0,0
6:16.967,135708,p,0,0,0
6:17.014,135725,),0,0,0
6:17.067,135744,(,0,0,1
6:17.114,135761,N,0,0,0
6:17.161,135778,),0,0,1
6:17.233,135804,(,0,0,2
6:17.322,135836,t,0,0,4
6:17.425,135873,t,0,0,4
6:17.525,135909,),0,0,2
6:17.653,135955,(,0,0,0
6:17.700,135972,p,0,0,0
6:17.747,135989,),0,0,0
6:17.797,136007,(,0,0,1
6:17.856,136028,N,0,0,0
6:17.906,136046,),0,0,1
6:17.978,136072,(,0,0,2
6:18.089,136112,t,0,0,4
6:18.203,136153,t,0,0,4
6:18.314,136193,),0,0,2
6:18.428,136234,(,0,0,0
6:18.478,136252,p,0,0,0
6:18.528,136270,),0,0,0
6:18.583,136290,(,0,0,1
6:18.636,136309,N,0,0,0
6:18.667,136320,),0,0,1
6:18.767,136356,(,0,0,2
6:18.856,136388,t,0,0,4
6:18.969,136429,t,0,0,4
6:19.064,136463,),0,0,2
6:19.181,136505,(,0,0,0
6:19.231,136523,p,0,0,0
6:19.286,136543,),0,0,0
6:19.344,136564,(,0,0,1
6:19.389,136580,N,0,0,0
6:19.422,136592,),0,0,1
6:19.525,136629,(,0,0,2
6:19.614,136661,t,0,0,4
6:19.731,136703,t,0,0,4
6:19.822,136736,),0,0,2
6:19.914,136769,(,0,0,0
6:19.958,136785,p,0,0,0
6:20.006,136802,),0,0,0
6:20.064,136823,(,0,0,1
6:20.114,136841,N,0,0,0
6:20.169,136861,),0,0,1
6:20.239,136886,(,0,0,2
6:20.344,136924,t,0,0,4
6:20.456,136964,t,0,0,4
6:20.558,137001,),0,0,2
6:20.675,137043,(,0,0,0
6:20.717,137058,p,0,0,0
6:20.767,137076,),0,0,0
6:20.825,137097,(,0,0,1
6:20.878,137116,N,0,0,0
6:20.911,137128,),0,0,1
6:21.003,137161,(,0,0,2
6:21.117,137202,t,0,0,4
6:21.225,137241,t,0,0,4
6:21.325,137277,),0,0,2
6:21.417,137310,(,0,0,0
6:21.483,137334,p,0,0,0
6:21.531,137351,),0,0,0
6:21.589,137372,(,0,0,1
6:21.639,137390,N,0,0,0
6:21.700,137412,),0,0,1
6:21.733,137424,(,0,0,2
6:21.883,137478,t,0,0,4
6:22.006,137522,t,0,0,4
6:22.050,137538,),0,0,2
6:22.225,137601,(,0,0,0
6:22.281,137621,p,0,0,0
6:22.333,137640,),0,0,0
6:22.386,137659,(,0,0,1
6:22.433,137676,N,0,0,0
6:22.486,137695,),0,0,1
6:22.569,137725,(,0,0,2
6:22.664,137759,t,0,0,1
6:22.775,137799,),0,0,2
6:23.022,137888,(,0,0,0
6:23.061,137902,p,0,0,0
6:23.111,137920,),0,0,0
6:23.167,137940,(,0,0,1
6:23.211,137956,N,0,0,0
6:23.256,137972,),0,0,1
6:23.342,138003,(,0,0,2
6:23.431,138035,t,0,0,4
6:23.556,138080,t,0,0,4
6:23.656,138116,),0,0,2
6:23.783,138162,(,0,0,0
6:23.822,138176,p,0,0,0
6:23.864,138191,),0,0,0
6:23.922,138212,(,0,0,1
6:23.969,138229,N,0,0,0
6:24.017,138246,),0,0,1
6:24.072,138266,(,0,0,2
6:24.189,138308,t,0,0,4
6:24.297,138347,t,0,0,4
6:24.397,138383,),0,0,2
6:24.506,138422,(,0,0,0
6:24.550,138438,p,0,0,0
6:24.597,138455,),0,0,0
6:24.653,138475,(,0,0,1
6:24.700,138492,N,0,0,0
6:24.753,138511,),0,0,1
6:24.842,138543,(,0,0,2
6:24.928,138574,t,0,0,4
6:25.042,138615,t,0,0,4
6:25.147,138653,),0,0,2
6:25.231,138683,(,0,0,0
6:25.297,138707,p,0,0,0
6:25.350,138726,),0,0,0
6:25.408,138747,(,0,0,1
6:25.458,138765,N,0,0,0
6:25.508,138783,),0,0,1
6:25.569,138805,(,0,0,2
6:25.672,138842,t,0,0,1
6:25.764,138875,),0,0,2
6:25.972,138950,(,0,0,0
6:26.028,138970,p,0,0,0
6:26.072,138986,),0,0,0
6:26.131,139007,(,0,0,1
6:26.183,139026,N,0,0,0
6:26.214,139037,),0,0,1
6:26.328,139078,(,0,0,2
6:26.417,139110,t,0,0,4
6:26.517,139146,t,0,0,4
6:26.631,139187,),0,0,2
6:26.694,139210,(,0,0,0
6:26.744,139228,p,0,0,0
6:26.794,139246,),0,0,0
6:26.844,139264,(,0,0,1
6:26.889,139280,N,0,0,0
6:26.936,139297,),0,0,1
6:27.011,139324,(,0,0,2
6:27.100,139356,t,0,0,4
6:27.222,139400,t,0,0,4
6:27.322,139436,),0,0,2
6:27.397,139463,(,0,0,0
6:27.450,139482,p,0,0,0
6:27.497,139499,),0,0,0
6:27.550,139518,(,0,0,1
6:27.600,139536,N,0,0,0
6:27.633,139548,),0,0,1
6:27.714,139577,(,0,0,2
6:27.828,139618,t,0,0,4
6:27.944,139660,t,0,0,4
6:28.056,139700,),0,0,2
6:28.117,139722,(,0,0,0
6:28.172,139742,p,0,0,0
6:28.222,139760,),0,0,0
6:28.269,139777,(,0,0,1
6:28.317,139794,N,0,0,0
6:28.369,139813,),0,0,1
6:28.419,139831,(,0,0,2
6:28.536,139873,t,0,0,4
6:28.658,139917,t,0,0,4
6:28.731,139943,),0,0,2
6:28.853,139987,(,0,0,0
6:28.900,140004,p,0,0,0
6:28.950,140022,),0,0,0
6:29.000,140040,(,0,0,1
6:29.053,140059,N,0,0,0
6:29.103,140077,),0,0,1
6:29.186,140107,(,0,0,2
6:29.292,140145,t,0,0,4
6:29.383,140178,t,0,0,4
6:29.489,140216,),0,0,2
6:29.592,140253,(,0,0,0
6:29.633,140268,p,0,0,0
6:29.683,140286,),0,0,0
6:29.733,140304,(,0,0,1
6:29.783,140322,N,0,0,0
6:29.817,140334,),0,0,1
6:29.956,140384,(,0,0,2
6:30.000,140400,t,0,0,4
6:30.106,140438,t,0,0,4
6:30.128,140446,),0,0,2
6:30.292,140505,(,0,0,0
6:30.342,140523,p,0,0,0
6:30.389,140540,),0,0,0
6:30.436,140557,(,0,0,1
6:30.494,140578,N,0,0,0
6:30.525,140589,),0,0,1
6:30.667,140640,(,0,0,2
6:30.708,140655,t,0,0,4
6:30.842,140703,t,0,0,4
6:30.886,140719,),0,0,2
6:30.983,140754,(,0,0,0
6:31.039,140774,p,0,0,0
6:31.089,140792,),0,0,0
6:31.139,140810,(,0,0,1
6:31.183,140826,N,0,0,0
6:31.214,140837,),0,0,1
6:31.314,140873,(,0,0,2
6:31.400,140904,t,0,0,4
6:31.522,140948,t,0,0,4
6:31.636,140989,),0,0,2
6:31.706,141014,(,0,0,0
6:31.744,141028,p,0,0,0
6:31.789,141044,),0,0,0
6:31.842,141063,(,0,0,1
6:31.897,141083,N,0,0,0
6:31.928,141094,),0,0,1
6:32.025,141129,(,0,0,2
6:32.131,141167,t,0,0,4
6:32.275,141219,t,0,0,4
