Elapsedtime,sample,Type,Sub,Chan,Num
0:00.161, 58,(,0,0,0
0:00.208, 75,p,0,0,0
0:00.250, 90,),0,0,0
0:00.361,130,(,0,0,1
0:00.442,159,N,0,0,0
0:00.469,169,),0,0,1
0:00.672,242,(,0,0,2
0:00.836,301,t,0,0,1
0:00.911,328,),0,0,2
0:00.950,342,(,0,0,0
0:01.042,375,p,0,0,0
0:01.086,391,),0,0,0
0:01.094,394,(,0,0,1
0:01.200,432,N,0,0,0
0:01.228,442,),0,0,1
0:01.281,461,(,0,0,2
0:01.428,514,t,0,0,0
0:01.525,549,),0,0,2
0:01.744,628,(,0,0,0
0:01.847,665,p,0,0,0
0:01.883,678,),0,0,0
0:01.908,687,(,0,0,1
0:02.014,725,N,0,0,0
0:02.044,736,),0,0,1
0:02.131,767,(,0,0,2
0:02.278,820,t,0,0,0
0:02.492,897,),0,0,2
0:02.658,957,(,0,0,0
0:02.769,997,p,0,0,0
0:02.819,1015,),0,0,0
0:02.869,1033,(,0,0,1
0:02.944,1060,N,0,0,0
0:02.997,1079,),0,0,1
0:03.231,1163,(,0,0,2
0:03.433,1236,t,0,0,1
0:03.506,1262,),0,0,2
0:03.522,1268,(,0,0,0
0:03.625,1305,p,0,0,0
0:03.667,1320,),0,0,0
0:03.692,1329,(,0,0,1
0:03.792,1365,N,0,0,0
0:03.822,1376,),0,0,1
0:03.939,1418,(,0,0,2
0:04.036,1453,t,0,0,5
0:04.239,1526,t,0,0,5
0:04.333,1560,),0,0,2
0:04.350,1566,(,0,0,0
0:04.433,1596,p,0,0,0
0:04.489,1616,),0,0,0
0:04.494,1618,(,0,0,1
0:04.586,1651,N,0,0,0
0:04.614,1661,),0,0,1
0:04.817,1734,(,0,0,2
0:05.025,1809,t,0,0,1
0:05.106,1838,),0,0,2
0:05.122,1844,(,0,0,0
0:05.211,1876,p,0,0,0
0:05.275,1899,),0,0,0
0:05.308,1911,(,0,0,1
0:05.375,1935,N,0,0,0
0:05.403,1945,),0,0,1
0:05.622,2024,(,0,0,2
0:05.836,2101,t,0,0,1
0:05.906,2126,),0,0,2
0:05.922,2132,(,0,0,0
0:06.017,2166,p,0,0,0
0:06.061,2182,),0,0,0
0:06.081,2189,(,0,0,1
0:06.172,2222,N,0,0,0
0:06.200,2232,),0,0,1
0:06.419,2311,(,0,0,2
0:06.586,2371,t,0,0,1
0:06.667,2400,),0,0,2
0:06.681,2405,(,0,0,0
0:06.792,2445,p,0,0,0
0:06.825,2457,),0,0,0
0:06.833,2460,(,0,0,1
0:06.939,2498,N,0,0,0
0:06.969,2509,),0,0,1
0:07.056,2540,(,0,0,2
0:07.164,2579,t,0,0,5
0:07.431,2675,t,0,0,5
0:07.489,2696,),0,0,2
0:07.503,2701,(,0,0,0
0:07.594,2734,p,0,0,0
0:07.644,2752,),0,0,0
0:07.686,2767,(,0,0,1
0:07.756,2792,N,0,0,0
0:07.783,2802,),0,0,1
0:07.839,2822,(,0,0,2
0:07.972,2870,t,0,0,5
0:08.211,2956,t,0,0,5
0:08.292,2985,),0,0,2
0:08.311,2992,(,0,0,0
0:08.428,3034,p,0,0,0
0:08.469,3049,),0,0,0
0:08.494,3058,(,0,0,1
0:08.592,3093,N,0,0,0
0:08.622,3104,),0,0,1
0:09.175,3303,(,0,0,0
0:09.283,3342,p,0,0,0
0:09.322,3356,),0,0,0
0:09.350,3366,(,0,0,1
0:09.447,3401,N,0,0,0
0:09.478,3412,),0,0,1
0:09.614,3461,(,0,0,2
0:09.697,3491,t,0,0,5
0:09.917,3570,t,0,0,5
0:09.994,3598,),0,0,2
0:10.011,3604,(,0,0,0
0:10.103,3637,p,0,0,0
0:10.158,3657,),0,0,0
0:10.189,3668,(,0,0,1
0:10.258,3693,N,0,0,0
0:10.286,3703,),0,0,1
0:10.361,3730,(,0,0,2
0:10.489,3776,t,0,0,5
0:10.758,3873,t,0,0,5
0:10.808,3891,),0,0,2
0:10.828,3898,(,0,0,0
0:10.919,3931,p,0,0,0
0:10.969,3949,),0,0,0
0:10.975,3951,(,0,0,1
0:11.072,3986,N,0,0,0
0:11.100,3996,),0,0,1
0:11.328,4078,(,0,0,2
0:11.525,4149,t,0,0,1
0:11.606,4178,),0,0,2
0:11.622,4184,(,0,0,0
0:11.717,4218,p,0,0,0
0:11.786,4243,),0,0,0
0:11.808,4251,(,0,0,1
0:11.872,4274,N,0,0,0
0:11.900,4284,),0,0,1
0:11.967,4308,(,0,0,2
0:12.097,4355,t,0,0,0
0:12.189,4388,),0,0,2
0:12.333,4440,(,0,0,0
0:12.369,4453,p,0,0,0
0:12.422,4472,),0,0,0
0:12.522,4508,(,0,0,1
0:12.614,4541,N,0,0,0
0:12.639,4550,),0,0,1
0:12.736,4585,(,0,0,2
0:12.844,4624,t,0,0,0
0:13.031,4691,),0,0,2
0:13.094,4714,(,0,0,0
0:13.131,4727,p,0,0,0
0:13.219,4759,),0,0,0
0:13.283,4782,(,0,0,1
0:13.386,4819,N,0,0,0
0:13.414,4829,),0,0,1
0:13.461,4846,(,0,0,2
0:13.614,4901,t,0,0,5
0:13.811,4972,t,0,0,5
0:13.836,4981,),0,0,2
0:13.881,4997,(,0,0,0
0:13.911,5008,p,0,0,0
0:13.961,5026,),0,0,0
0:14.053,5059,(,0,0,1
0:14.178,5104,N,0,0,0
0:14.244,5128,),0,0,1
0:14.303,5149,(,0,0,2
0:14.428,5194,t,0,0,0
0:14.589,5252,),0,0,2
0:14.811,5332,(,0,0,0
0:14.928,5374,p,0,0,0
0:14.989,5396,),0,0,0
0:15.031,5411,(,0,0,1
0:15.114,5441,N,0,0,0
0:15.147,5453,),0,0,1
0:15.253,5491,t,0,0,2
0:15.383,5538,),0,0,2
0:15.386,5539,(,0,0,0
0:15.411,5548,p,0,0,0
0:15.483,5574,),0,0,0
0:15.528,5590,(,0,0,1
0:15.617,5622,N,0,0,0
0:15.672,5642,),0,0,1
0:15.719,5659,(,0,0,2
0:15.767,5676,t,0,0,0
0:15.847,5705,),0,0,2
0:15.989,5756,(,0,0,1
0:16.061,5782,N,0,0,0
0:16.094,5794,),0,0,1
0:16.206,5834,(,0,0,2
0:16.303,5869,t,0,0,0
0:16.533,5952,),0,0,2
0:16.644,5992,(,0,0,0
0:16.733,6024,p,0,0,0
0:16.789,6044,),0,0,0
0:16.806,6050,(,0,0,1
0:16.903,6085,N,0,0,0
0:16.956,6104,),0,0,1
0:17.053,6139,(,0,0,2
0:17.153,6175,t,0,0,0
0:17.256,6212,),0,0,2
0:17.422,6272,(,0,0,1
0:17.494,6298,N,0,0,0
0:17.539,6314,),0,0,1
0:17.608,6339,(,0,0,2
0:17.664,6359,t,0,0,1
0:17.819,6415,),0,0,2
0:18.147,6533,(,0,0,0
0:18.186,6547,p,0,0,0
0:18.231,6563,),0,0,0
0:18.339,6602,(,0,0,1
0:18.428,6634,N,0,0,0
0:18.453,6643,),0,0,1
0:18.497,6659,t,0,0,2
0:18.639,6710,),0,0,2
0:18.686,6727,(,0,0,0
0:18.758,6753,p,0,0,0
0:18.864,6791,),0,0,0
0:18.875,6795,(,0,0,1
0:18.950,6822,N,0,0,0
0:18.997,6839,),0,0,1
0:19.089,6872,(,0,0,2
0:19.133,6888,t,0,0,1
0:19.339,6962,),0,0,2
0:19.683,7086,(,0,0,0
0:19.717,7098,p,0,0,0
0:19.769,7117,),0,0,0
0:19.883,7158,(,0,0,1
0:19.989,7196,N,0,0,0
0:20.017,7206,),0,0,1
0:20.128,7246,(,0,0,2
0:20.253,7291,t,0,0,0
0:20.389,7340,),0,0,2
0:20.511,7384,(,0,0,1
0:20.592,7413,N,0,0,0
0:20.644,7432,),0,0,1
0:20.725,7461,(,0,0,2
0:20.808,7491,t,0,0,1
0:21.019,7567,),0,0,2
0:21.464,7727,(,0,0,0
0:21.575,7767,p,0,0,0
0:21.625,7785,),0,0,0
0:21.664,7799,(,0,0,1
0:21.733,7824,N,0,0,0
0:21.764,7835,),0,0,1
0:21.808,7851,t,0,0,2
0:21.950,7902,),0,0,2
0:21.972,7910,(,0,0,0
0:21.986,7915,p,0,0,0
0:22.061,7942,),0,0,0
0:22.217,7998,(,0,0,1
0:22.292,8025,N,0,0,0
0:22.344,8044,),0,0,1
0:22.419,8071,(,0,0,2
0:22.483,8094,t,0,0,1
0:22.675,8163,),0,0,2
0:23.075,8307,(,0,0,0
0:23.169,8341,p,0,0,0
0:23.208,8355,),0,0,0
0:23.239,8366,(,0,0,1
0:23.314,8393,N,0,0,0
0:23.342,8403,),0,0,1
0:23.381,8417,t,0,0,2
0:23.536,8473,),0,0,2
0:23.764,8555,(,0,0,1
0:23.836,8581,N,0,0,0
0:23.881,8597,),0,0,1
0:23.953,8623,(,0,0,2
0:24.011,8644,t,0,0,1
0:24.189,8708,),0,0,2
0:24.517,8826,(,0,0,0
0:24.550,8838,p,0,0,0
0:24.622,8864,),0,0,0
0:24.736,8905,(,0,0,1
0:24.806,8930,N,0,0,0
0:24.836,8941,),0,0,1
0:24.875,8955,(,0,0,2
0:25.053,9019,t,0,0,0
0:25.156,9056,),0,0,2
0:25.286,9103,(,0,0,1
0:25.358,9129,N,0,0,0
0:25.406,9146,),0,0,1
0:25.483,9174,(,0,0,2
0:25.533,9192,t,0,0,1
0:25.764,9275,),0,0,2
0:26.139,9410,(,0,0,0
0:26.233,9444,p,0,0,0
0:26.297,9467,),0,0,0
0:26.328,9478,(,0,0,1
0:26.397,9503,N,0,0,0
0:26.428,9514,),0,0,1
0:26.536,9553,(,0,0,2
0:26.611,9580,t,0,0,0
0:26.628,9586,),0,0,2
0:26.644,9592,(,0,0,0
0:26.653,9595,p,0,0,0
0:26.750,9630,),0,0,0
0:26.869,9673,(,0,0,1
0:26.969,9709,N,0,0,0
0:27.019,9727,),0,0,1
0:27.106,9758,(,0,0,2
0:27.181,9785,t,0,0,1
0:27.383,9858,),0,0,2
0:27.808,10011,(,0,0,0
0:27.906,10046,p,0,0,0
0:27.950,10062,),0,0,0
0:27.983,10074,(,0,0,1
0:28.047,10097,N,0,0,0
0:28.078,10108,),0,0,1
0:28.094,10114,t,0,0,2
0:28.197,10151,),0,0,2
0:28.550,10278,(,0,0,1
0:28.622,10304,N,0,0,0
0:28.669,10321,),0,0,1
0:28.742,10347,(,0,0,2
0:28.806,10370,t,0,0,1
0:29.025,10449,),0,0,2
0:29.356,10568,(,0,0,0
0:29.447,10601,p,0,0,0
0:29.497,10619,),0,0,0
0:29.536,10633,(,0,0,1
0:29.597,10655,N,0,0,0
0:29.625,10665,),0,0,1
0:29.722,10700,(,0,0,2
0:29.839,10742,t,0,0,0
0:29.928,10774,),0,0,2
0:29.939,10778,(,0,0,0
0:29.964,10787,p,0,0,0
0:30.031,10811,),0,0,0
0:30.044,10816,(,0,0,1
0:30.117,10842,N,0,0,0
0:30.164,10859,),0,0,1
0:30.236,10885,(,0,0,2
0:30.283,10902,t,0,0,1
0:30.453,10963,),0,0,2
0:30.822,11096,(,0,0,0
0:30.864,11111,p,0,0,0
0:30.911,11128,),0,0,0
0:31.042,11175,(,0,0,1
0:31.106,11198,N,0,0,0
0:31.133,11208,),0,0,1
0:31.214,11237,(,0,0,2
0:31.328,11278,t,0,0,0
0:31.436,11317,),0,0,2
0:31.453,11323,(,0,0,0
0:31.472,11330,p,0,0,0
0:31.500,11340,),0,0,0
0:31.544,11356,(,0,0,1
0:31.642,11391,N,0,0,0
0:31.694,11410,),0,0,1
0:31.772,11438,(,0,0,2
0:31.853,11467,t,0,0,1
0:32.069,11545,),0,0,2
0:32.453,11683,(,0,0,0
0:32.561,11722,p,0,0,0
0:32.600,11736,),0,0,0
0:32.644,11752,(,0,0,1
0:32.711,11776,N,0,0,0
0:32.739,11786,),0,0,1
0:32.808,11811,(,0,0,2
0:32.847,11825,t,0,0,0
0:32.942,11859,),0,0,2
0:32.986,11875,(,0,0,0
0:33.036,11893,p,0,0,0
0:33.100,11916,),0,0,0
0:33.222,11960,(,0,0,1
0:33.306,11990,N,0,0,0
0:33.358,12009,),0,0,1
0:33.481,12053,(,0,0,2
0:33.517,12066,t,0,0,1
0:33.708,12135,),0,0,2
0:34.167,12300,(,0,0,0
0:34.264,12335,p,0,0,0
0:34.317,12354,),0,0,0
0:34.378,12376,(,0,0,1
0:34.453,12403,N,0,0,0
0:34.483,12414,),0,0,1
0:34.536,12433,(,0,0,2
0:34.731,12503,t,0,0,0
0:34.906,12566,),0,0,2
0:35.000,12600,(,0,0,0
0:35.039,12614,p,0,0,0
0:35.075,12627,),0,0,0
0:35.214,12677,(,0,0,1
0:35.311,12712,N,0,0,0
0:35.342,12723,),0,0,1
0:35.406,12746,(,0,0,2
0:35.544,12796,t,0,0,0
0:35.711,12856,),0,0,2
0:35.825,12897,(,0,0,0
0:35.867,12912,p,0,0,0
0:35.922,12932,),0,0,0
0:36.042,12975,(,0,0,1
0:36.144,13012,N,0,0,0
0:36.172,13022,),0,0,1
0:36.258,13053,(,0,0,2
0:36.369,13093,t,0,0,0
0:36.589,13172,),0,0,2
0:36.653,13195,(,0,0,0
0:36.744,13228,p,0,0,0
0:36.803,13249,),0,0,0
0:36.842,13263,(,0,0,1
0:36.906,13286,N,0,0,0
0:36.939,13298,),0,0,1
0:37.061,13342,(,0,0,2
0:37.144,13372,t,0,0,0
0:37.253,13411,),0,0,2
0:37.392,13461,(,0,0,0
0:37.439,13478,p,0,0,0
0:37.472,13490,),0,0,0
0:37.600,13536,(,0,0,1
0:37.703,13573,N,0,0,0
0:37.733,13584,),0,0,1
0:37.867,13632,(,0,0,2
0:37.967,13668,t,0,0,0
0:38.078,13708,),0,0,2
0:38.436,13837,(,0,0,0
0:38.511,13864,p,0,0,0
0:38.542,13875,),0,0,0
0:38.550,13878,(,0,0,1
0:38.597,13895,N,0,0,0
0:38.631,13907,),0,0,1
0:38.750,13950,(,0,0,2
0:38.872,13994,t,0,0,0
0:39.011,14044,),0,0,2
0:39.286,14143,(,0,0,0
0:39.350,14166,p,0,0,0
0:39.414,14189,),0,0,0
0:39.467,14208,(,0,0,1
0:39.544,14236,N,0,0,0
0:39.583,14250,),0,0,1
0:39.689,14288,(,0,0,2
0:39.822,14336,t,0,0,5
0:40.100,14436,t,0,0,5
0:40.156,14456,),0,0,2
0:40.169,14461,(,0,0,0
0:40.281,14501,p,0,0,0
0:40.347,14525,),0,0,0
0:40.414,14549,(,0,0,1
0:40.464,14567,N,0,0,0
0:40.500,14580,),0,0,1
0:40.594,14614,(,0,0,2
0:40.739,14666,t,0,0,5
0:41.028,14770,t,0,0,5
0:41.083,14790,),0,0,2
0:41.100,14796,(,0,0,0
0:41.197,14831,p,0,0,0
0:41.256,14852,),0,0,0
0:41.283,14862,(,0,0,1
0:41.381,14897,N,0,0,0
0:41.411,14908,),0,0,1
0:41.642,14991,(,0,0,2
0:41.853,15067,t,0,0,1
0:41.919,15091,),0,0,2
0:41.936,15097,(,0,0,0
0:42.028,15130,p,0,0,0
0:42.083,15150,),0,0,0
0:42.125,15165,(,0,0,1
0:42.192,15189,N,0,0,0
0:42.222,15200,),0,0,1
0:42.275,15219,(,0,0,2
0:42.428,15274,t,0,0,5
0:42.650,15354,t,0,0,5
0:42.703,15373,),0,0,2
0:42.717,15378,(,0,0,0
0:42.806,15410,p,0,0,0
0:42.856,15428,),0,0,0
0:42.892,15441,(,0,0,1
0:42.958,15465,N,0,0,0
0:42.983,15474,),0,0,1
0:43.203,15553,(,0,0,2
0:43.408,15627,t,0,0,1
0:43.483,15654,),0,0,2
0:43.597,15695,(,0,0,0
0:43.617,15702,p,0,0,0
0:43.642,15711,),0,0,0
0:43.681,15725,(,0,0,1
0:43.764,15755,N,0,0,0
0:43.792,15765,),0,0,1
0:43.869,15793,(,0,0,2
0:43.903,15805,t,0,0,1
0:44.006,15842,),0,0,2
0:44.475,16011,(,0,0,0
0:44.525,16029,p,0,0,0
0:44.578,16048,),0,0,0
0:44.653,16075,(,0,0,1
0:44.728,16102,N,0,0,0
0:44.861,16150,),0,0,1
0:44.922,16172,(,0,0,2
0:45.161,16258,t,0,0,0
0:45.303,16309,),0,0,2
0:45.544,16396,(,0,0,0
0:45.567,16404,p,0,0,0
0:45.594,16414,),0,0,0
0:45.681,16445,(,0,0,1
0:45.767,16476,N,0,0,0
0:45.803,16489,),0,0,1
0:45.997,16559,(,0,0,2
0:46.056,16580,t,0,0,0
0:46.167,16620,),0,0,2
0:46.456,16724,(,0,0,0
0:46.547,16757,p,0,0,0
0:46.628,16786,),0,0,0
0:46.683,16806,(,0,0,1
0:46.731,16823,N,0,0,0
0:46.758,16833,),0,0,1
0:46.814,16853,t,0,0,2
0:46.964,16907,),0,0,2
0:47.158,16977,(,0,0,1
0:47.208,16995,N,0,0,0
0:47.275,17019,),0,0,1
0:47.389,17060,(,0,0,0
0:47.417,17070,p,0,0,0
0:47.453,17083,),0,0,0
0:47.483,17094,(,0,0,1
0:47.533,17112,N,0,0,0
0:47.564,17123,),0,0,1
0:47.792,17205,(,0,0,2
0:47.994,17278,t,0,0,1
0:48.053,17299,),0,0,2
0:48.069,17305,(,0,0,0
0:48.156,17336,p,0,0,0
0:48.200,17352,),0,0,0
0:48.250,17370,(,0,0,1
0:48.314,17393,N,0,0,0
0:48.342,17403,),0,0,1
0:48.581,17489,(,0,0,2
0:48.789,17564,t,0,0,1
0:48.847,17585,),0,0,2
0:48.864,17591,(,0,0,0
0:48.956,17624,p,0,0,0
0:49.011,17644,),0,0,0
0:49.019,17647,(,0,0,1
0:49.108,17679,N,0,0,0
0:49.139,17690,),0,0,1
0:49.375,17775,(,0,0,2
0:49.519,17827,t,0,0,1
0:49.678,17884,),0,0,2
0:49.694,17890,(,0,0,0
0:49.792,17925,p,0,0,0
0:49.869,17953,),0,0,0
0:49.908,17967,(,0,0,1
0:49.986,17995,N,0,0,0
0:50.017,18006,),0,0,1
0:50.125,18045,(,0,0,2
0:50.236,18085,t,0,0,5
0:50.567,18204,t,0,0,5
0:50.644,18232,),0,0,2
0:50.656,18236,(,0,0,0
0:50.794,18286,p,0,0,0
0:50.833,18300,),0,0,0
0:50.886,18319,(,0,0,1
0:51.000,18360,N,0,0,0
0:51.036,18373,),0,0,1
0:51.128,18406,(,0,0,2
0:51.339,18482,t,0,0,0
0:51.472,18530,),0,0,2
0:51.622,18584,(,0,0,0
0:51.658,18597,p,0,0,0
0:51.744,18628,),0,0,0
0:51.761,18634,(,0,0,1
0:51.919,18691,N,0,0,0
0:51.994,18718,),0,0,1
0:51.997,18719,(,0,0,2
0:52.161,18778,t,0,0,0
0:52.483,18894,),0,0,2
0:52.833,19020,(,0,0,0
0:52.944,19060,p,0,0,0
0:52.989,19076,),0,0,0
0:53.019,19087,(,0,0,1
0:53.122,19124,N,0,0,0
0:53.158,19137,),0,0,1
0:53.247,19169,(,0,0,2
0:53.350,19206,t,0,0,0
0:53.500,19260,),0,0,2
0:53.667,19320,(,0,0,0
0:53.756,19352,p,0,0,0
0:53.800,19368,),0,0,0
0:53.842,19383,(,0,0,1
0:53.908,19407,N,0,0,0
0:53.939,19418,),0,0,1
0:54.028,19450,(,0,0,2
0:54.131,19487,t,0,0,0
0:54.228,19522,),0,0,2
0:54.450,19602,(,0,0,0
0:54.550,19638,p,0,0,0
0:54.589,19652,),0,0,0
0:54.636,19669,(,0,0,1
0:54.703,19693,N,0,0,0
0:54.731,19703,),0,0,1
0:54.856,19748,(,0,0,2
0:54.936,19777,t,0,0,0
0:55.064,19823,),0,0,2
0:55.211,19876,(,0,0,1
0:55.328,19918,N,0,0,0
0:55.453,19963,),0,0,1
0:55.492,19977,(,0,0,2
0:55.606,20018,t,0,0,0
0:55.731,20063,),0,0,2
0:55.894,20122,(,0,0,1
0:55.986,20155,N,0,0,0
0:56.089,20192,),0,0,1
0:56.100,20196,(,0,0,2
0:56.183,20226,t,0,0,4
0:56.475,20331,t,0,0,4
0:56.494,20338,),0,0,2
0:57.333,20640,(,0,0,0
0:57.447,20681,p,0,0,0
0:57.500,20700,),0,0,0
0:57.567,20724,(,0,0,1
0:57.636,20749,N,0,0,0
0:57.669,20761,),0,0,1
0:57.797,20807,(,0,0,2
0:57.950,20862,t,0,0,0
0:58.089,20912,),0,0,2
0:58.442,21039,(,0,0,0
0:58.472,21050,p,0,0,0
0:58.514,21065,),0,0,0
0:58.586,21091,(,0,0,1
0:58.669,21121,N,0,0,0
0:58.706,21134,),0,0,1
0:58.803,21169,(,0,0,2
0:58.933,21216,t,0,0,5
0:59.186,21307,t,0,0,5
0:59.264,21335,),0,0,2
0:59.278,21340,(,0,0,0
0:59.378,21376,p,0,0,0
0:59.453,21403,),0,0,0
0:59.481,21413,(,0,0,1
0:59.547,21437,N,0,0,0
0:59.578,21448,),0,0,1
0:59.867,21552,),0,0,2
0:59.942,21579,t,0,0,0
1:00.014,21605,(,0,0,2
1:00.022,21608,(,0,0,0
1:00.056,21620,p,0,0,0
1:00.086,21631,),0,0,0
1:00.211,21676,(,0,0,1
1:00.300,21708,N,0,0,0
1:00.328,21718,),0,0,1
1:00.561,21802,(,0,0,2
1:00.756,21872,t,0,0,1
1:00.842,21903,),0,0,2
1:00.858,21909,(,0,0,0
1:00.953,21943,p,0,0,0
1:01.000,21960,),0,0,0
1:01.042,21975,(,0,0,1
1:01.106,21998,N,0,0,0
1:01.133,22008,),0,0,1
1:01.239,22046,(,0,0,2
1:01.289,22064,t,0,0,5
1:01.611,22180,t,0,0,5
1:01.667,22200,),0,0,2
1:01.753,22231,(,0,0,0
1:01.811,22252,p,0,0,0
1:01.853,22267,),0,0,0
1:01.892,22281,(,0,0,1
1:01.961,22306,N,0,0,0
1:01.994,22318,),0,0,1
1:02.114,22361,(,0,0,2
1:02.208,22395,t,0,0,5
1:02.514,22505,t,0,0,5
1:02.558,22521,),0,0,2
1:02.614,22541,(,0,0,0
1:02.647,22553,p,0,0,0
1:02.686,22567,),0,0,0
1:02.800,22608,(,0,0,1
1:02.853,22627,N,0,0,0
1:02.881,22637,),0,0,1
1:02.992,22677,(,0,0,2
1:03.067,22704,t,0,0,0
1:03.142,22731,),0,0,2
1:03.283,22782,(,0,0,0
1:03.350,22806,p,0,0,0
1:03.378,22816,),0,0,0
1:03.411,22828,(,0,0,1
1:03.544,22876,N,0,0,0
1:03.664,22919,),0,0,1
1:03.706,22934,(,0,0,2
1:03.808,22971,t,0,0,5
1:04.158,23097,t,0,0,5
1:04.186,23107,),0,0,2
1:04.358,23169,(,0,0,0
1:04.489,23216,p,0,0,0
1:04.533,23232,),0,0,0
1:04.567,23244,(,0,0,1
1:04.675,23283,N,0,0,0
1:04.711,23296,),0,0,1
1:04.978,23392,(,0,0,2
1:05.225,23481,t,0,0,1
1:05.281,23501,),0,0,2
1:05.300,23508,(,0,0,0
1:05.397,23543,p,0,0,0
1:05.456,23564,),0,0,0
1:05.492,23577,(,0,0,1
1:05.558,23601,N,0,0,0
1:05.589,23612,),0,0,1
1:05.692,23649,(,0,0,2
1:05.803,23689,t,0,0,5
1:06.011,23764,t,0,0,5
1:06.108,23799,),0,0,2
1:06.122,23804,(,0,0,0
1:06.211,23836,p,0,0,0
1:06.247,23849,),0,0,0
1:06.264,23855,(,0,0,1
1:06.364,23891,N,0,0,0
1:06.392,23901,),0,0,1
1:06.414,23909,t,0,0,2
1:06.586,23971,),0,0,2
1:06.781,24041,(,0,0,1
1:06.872,24074,N,0,0,0
1:06.922,24092,),0,0,1
1:07.136,24169,(,0,0,2
1:07.225,24201,t,0,0,0
1:07.264,24215,),0,0,2
1:07.686,24367,(,0,0,0
1:07.711,24376,p,0,0,0
1:07.789,24404,),0,0,0
1:07.903,24445,(,0,0,1
1:07.978,24472,N,0,0,0
1:08.003,24481,),0,0,1
1:08.111,24520,t,0,0,2
1:08.222,24560,),0,0,2
1:08.283,24582,(,0,0,0
1:08.350,24606,p,0,0,0
1:08.458,24645,),0,0,0
1:08.472,24650,(,0,0,1
1:08.592,24693,N,0,0,0
1:08.711,24736,),0,0,1
1:08.769,24757,(,0,0,2
1:08.839,24782,t,0,0,0
1:09.022,24848,),0,0,2
1:09.481,25013,(,0,0,0
1:09.586,25051,p,0,0,0
1:09.647,25073,),0,0,0
1:09.678,25084,(,0,0,1
1:09.747,25109,N,0,0,0
1:09.778,25120,),0,0,1
1:10.017,25206,(,0,0,2
1:10.239,25286,t,0,0,1
1:10.308,25311,),0,0,2
1:10.331,25319,(,0,0,0
1:10.431,25355,p,0,0,0
1:10.469,25369,),0,0,0
1:10.539,25394,(,0,0,1
1:10.611,25420,N,0,0,0
1:10.644,25432,),0,0,1
1:10.697,25451,(,0,0,2
1:10.864,25511,t,0,0,5
1:11.117,25602,t,0,0,5
1:11.200,25632,),0,0,2
1:11.217,25638,(,0,0,0
1:11.319,25675,p,0,0,0
1:11.347,25685,),0,0,0
1:11.392,25701,(,0,0,1
1:11.483,25734,N,0,0,0
1:11.511,25744,),0,0,1
1:11.647,25793,(,0,0,2
1:11.714,25817,t,0,0,0
1:11.819,25855,),0,0,2
1:11.992,25917,(,0,0,0
1:12.031,25931,p,0,0,0
1:12.075,25947,),0,0,0
1:12.197,25991,(,0,0,1
1:12.278,26020,N,0,0,0
1:12.303,26029,),0,0,1
1:12.511,26104,(,0,0,2
1:12.714,26177,t,0,0,1
1:12.789,26204,),0,0,2
1:12.806,26210,(,0,0,0
1:12.903,26245,p,0,0,0
1:12.944,26260,),0,0,0
1:12.997,26279,(,0,0,1
1:13.061,26302,N,0,0,0
1:13.089,26312,),0,0,1
1:13.308,26391,(,0,0,2
1:13.511,26464,t,0,0,1
1:13.578,26488,),0,0,2
1:13.592,26493,(,0,0,0
1:13.689,26528,p,0,0,0
1:13.736,26545,),0,0,0
1:13.778,26560,(,0,0,1
1:13.844,26584,N,0,0,0
1:13.875,26595,),0,0,1
1:13.967,26628,(,0,0,2
1:14.067,26664,t,0,0,5
1:14.325,26757,t,0,0,5
1:14.394,26782,),0,0,2
1:14.411,26788,(,0,0,0
1:14.503,26821,p,0,0,0
1:14.558,26841,),0,0,0
1:14.586,26851,(,0,0,1
1:14.683,26886,N,0,0,0
1:14.714,26897,),0,0,1
1:14.850,26946,(,0,0,2
1:14.914,26969,t,0,0,5
1:15.206,27074,t,0,0,5
1:15.300,27108,),0,0,2
1:15.325,27117,(,0,0,0
1:15.439,27158,p,0,0,0
1:15.475,27171,),0,0,0
1:15.506,27182,(,0,0,1
1:15.619,27223,N,0,0,0
1:15.656,27236,),0,0,1
1:16.256,27452,(,0,0,0
1:16.369,27493,p,0,0,0
1:16.406,27506,),0,0,0
1:16.433,27516,(,0,0,1
1:16.542,27555,N,0,0,0
1:16.575,27567,),0,0,1
1:16.631,27587,(,0,0,2
1:16.794,27646,t,0,0,5
1:17.086,27751,t,0,0,5
1:17.175,27783,),0,0,2
1:17.192,27789,(,0,0,0
1:17.292,27825,p,0,0,0
1:17.364,27851,),0,0,0
1:17.378,27856,(,0,0,1
1:17.469,27889,N,0,0,0
1:17.497,27899,),0,0,1
1:17.719,27979,(,0,0,2
1:17.900,28044,t,0,0,1
1:17.992,28077,),0,0,2
1:18.006,28082,(,0,0,0
1:18.092,28113,p,0,0,0
1:18.144,28132,),0,0,0
1:18.161,28138,(,0,0,1
1:18.247,28169,N,0,0,0
1:18.275,28179,),0,0,1
1:18.475,28251,(,0,0,2
1:18.703,28333,t,0,0,1
1:18.758,28353,),0,0,2
1:18.775,28359,(,0,0,0
1:18.869,28393,p,0,0,0
1:18.917,28410,),0,0,0
1:18.964,28427,(,0,0,1
1:19.031,28451,N,0,0,0
1:19.058,28461,),0,0,1
1:19.133,28488,(,0,0,2
1:19.267,28536,t,0,0,5
1:19.483,28614,t,0,0,5
1:19.561,28642,),0,0,2
1:19.578,28648,(,0,0,0
1:19.664,28679,p,0,0,0
1:19.717,28698,),0,0,0
1:19.739,28706,(,0,0,1
1:19.819,28735,N,0,0,0
1:19.850,28746,),0,0,1
1:20.403,28945,(,0,0,0
1:20.486,28975,p,0,0,0
1:20.544,28996,),0,0,0
1:20.586,29011,(,0,0,1
1:20.653,29035,N,0,0,0
1:20.681,29045,),0,0,1
1:20.703,29053,(,0,0,2
1:20.894,29122,t,0,0,5
1:21.164,29219,t,0,0,5
1:21.236,29245,),0,0,2
1:21.261,29254,(,0,0,0
1:21.361,29290,p,0,0,0
1:21.417,29310,),0,0,0
1:21.464,29327,(,0,0,1
1:21.533,29352,N,0,0,0
1:21.567,29364,),0,0,1
1:21.800,29448,(,0,0,2
1:22.017,29526,t,0,0,1
1:22.100,29556,),0,0,2
1:22.114,29561,(,0,0,0
1:22.214,29597,p,0,0,0
1:22.275,29619,),0,0,0
1:22.314,29633,(,0,0,1
1:22.383,29658,N,0,0,0
1:22.411,29668,),0,0,1
1:22.522,29708,(,0,0,2
1:22.631,29747,t,0,0,0
1:22.758,29793,),0,0,2
1:22.872,29834,(,0,0,1
1:23.017,29886,N,0,0,0
1:23.131,29927,),0,0,1
1:23.183,29946,(,0,0,2
1:23.247,29969,t,0,0,0
1:23.431,30035,),0,0,2
1:23.728,30142,(,0,0,0
1:23.764,30155,p,0,0,0
1:23.817,30174,),0,0,0
1:23.928,30214,(,0,0,1
1:24.014,30245,N,0,0,0
1:24.039,30254,),0,0,1
1:24.253,30331,(,0,0,2
1:24.475,30411,t,0,0,1
1:24.533,30432,),0,0,2
1:24.550,30438,(,0,0,0
1:24.656,30476,p,0,0,0
1:24.719,30499,),0,0,0
1:24.744,30508,(,0,0,1
1:24.811,30532,N,0,0,0
1:24.844,30544,),0,0,1
1:25.072,30626,(,0,0,2
1:25.181,30665,t,0,0,1
1:25.217,30678,),0,0,2
1:25.389,30740,(,0,0,0
1:25.472,30770,p,0,0,0
1:25.525,30789,),0,0,0
1:25.567,30804,(,0,0,1
1:25.631,30827,N,0,0,0
1:25.756,30872,),0,0,1
1:26.056,30980,(,0,0,2
1:26.122,31004,t,0,0,1
1:26.194,31030,),0,0,2
1:26.208,31035,(,0,0,0
1:26.297,31067,p,0,0,0
1:26.356,31088,),0,0,0
1:26.394,31102,(,0,0,1
1:26.464,31127,N,0,0,0
1:26.492,31137,),0,0,1
1:26.728,31222,(,0,0,2
1:26.906,31286,t,0,0,1
1:27.017,31326,),0,0,2
1:27.033,31332,(,0,0,0
1:27.128,31366,p,0,0,0
1:27.200,31392,),0,0,0
1:27.239,31406,(,0,0,1
1:27.308,31431,N,0,0,0
1:27.336,31441,),0,0,1
1:27.892,31641,(,0,0,0
1:27.978,31672,p,0,0,0
1:28.058,31701,),0,0,0
1:28.089,31712,(,0,0,1
1:28.150,31734,N,0,0,0
1:28.183,31746,),0,0,1
1:28.244,31768,t,0,0,2
1:28.378,31816,),0,0,2
1:28.433,31836,(,0,0,0
1:28.564,31883,p,0,0,0
1:28.578,31888,),0,0,0
1:28.647,31913,(,0,0,1
1:28.719,31939,N,0,0,0
1:28.767,31956,),0,0,1
1:28.856,31988,(,0,0,2
1:28.911,32008,t,0,0,1
1:29.047,32057,),0,0,2
1:29.500,32220,(,0,0,0
1:29.539,32234,p,0,0,0
1:29.583,32250,),0,0,0
1:29.717,32298,(,0,0,1
1:29.797,32327,N,0,0,0
1:29.825,32337,),0,0,1
1:29.861,32350,(,0,0,2
1:29.931,32375,t,0,0,0
1:29.994,32398,),0,0,2
1:30.003,32401,(,0,0,0
1:30.022,32408,p,0,0,0
1:30.117,32442,),0,0,0
1:30.236,32485,(,0,0,1
1:30.350,32526,N,0,0,0
1:30.472,32570,),0,0,1
1:30.514,32585,(,0,0,2
1:30.553,32599,t,0,0,0
1:30.764,32675,),0,0,2
1:31.117,32802,(,0,0,0
1:31.203,32833,p,0,0,0
1:31.264,32855,),0,0,0
1:31.294,32866,(,0,0,1
1:31.358,32889,N,0,0,0
1:31.383,32898,),0,0,1
1:31.722,33020,(,0,0,2
1:31.806,33050,t,0,0,1
1:31.906,33086,),0,0,2
1:31.925,33093,(,0,0,0
1:32.011,33124,p,0,0,0
1:32.064,33143,),0,0,0
1:32.072,33146,(,0,0,1
1:32.169,33181,N,0,0,0
1:32.194,33190,),0,0,1
1:32.278,33220,(,0,0,2
1:32.389,33260,t,0,0,5
1:32.653,33355,t,0,0,5
1:32.719,33379,),0,0,2
1:32.742,33387,(,0,0,0
1:32.833,33420,p,0,0,0
1:32.892,33441,),0,0,0
1:32.931,33455,(,0,0,1
1:32.997,33479,N,0,0,0
1:33.028,33490,),0,0,1
1:33.125,33525,t,0,0,2
1:33.244,33568,),0,0,2
1:33.289,33584,(,0,0,0
1:33.378,33616,p,0,0,0
1:33.397,33623,),0,0,0
1:33.467,33648,(,0,0,1
1:33.550,33678,N,0,0,0
1:33.731,33743,),0,0,1
1:33.808,33771,(,0,0,2
1:34.028,33850,t,0,0,0
1:34.117,33882,),0,0,2
1:34.464,34007,(,0,0,0
1:34.489,34016,p,0,0,0
1:34.542,34035,),0,0,0
1:34.672,34082,(,0,0,1
1:34.767,34116,N,0,0,0
1:34.800,34128,),0,0,1
1:34.967,34188,(,0,0,2
1:35.025,34209,t,0,0,0
1:35.144,34252,),0,0,2
1:35.281,34301,(,0,0,1
1:35.364,34331,N,0,0,0
1:35.417,34350,),0,0,1
1:35.478,34372,(,0,0,2
1:35.561,34402,t,0,0,1
1:35.806,34490,),0,0,2
1:36.167,34620,(,0,0,0
1:36.200,34632,p,0,0,0
1:36.247,34649,),0,0,0
1:36.383,34698,(,0,0,1
1:36.447,34721,N,0,0,0
1:36.475,34731,),0,0,1
1:36.569,34765,(,0,0,2
1:36.581,34769,t,0,0,1
1:36.653,34795,),0,0,2
1:36.875,34875,(,0,0,1
1:36.964,34907,N,0,0,0
1:37.011,34924,),0,0,1
1:37.100,34956,(,0,0,2
1:37.147,34973,t,0,0,1
1:37.308,35031,),0,0,2
1:37.714,35177,(,0,0,0
1:37.758,35193,p,0,0,0
1:37.808,35211,),0,0,0
1:37.931,35255,(,0,0,1
1:38.028,35290,N,0,0,0
1:38.058,35301,),0,0,1
1:38.133,35328,t,0,0,2
1:38.267,35376,),0,0,2
1:38.269,35377,(,0,0,0
1:38.275,35379,p,0,0,0
1:38.381,35417,),0,0,0
1:38.519,35467,(,0,0,1
1:38.606,35498,N,0,0,0
1:38.661,35518,),0,0,1
1:38.758,35553,(,0,0,2
1:38.828,35578,t,0,0,1
1:39.014,35645,),0,0,2
1:39.528,35830,(,0,0,0
1:39.642,35871,p,0,0,0
1:39.689,35888,),0,0,0
1:39.739,35906,(,0,0,1
1:39.822,35936,N,0,0,0
1:39.856,35948,),0,0,1
1:39.894,35962,(,0,0,2
1:40.122,36044,t,0,0,0
1:40.281,36101,),0,0,2
1:40.417,36150,(,0,0,1
1:40.506,36182,N,0,0,0
1:40.558,36201,),0,0,1
1:40.661,36238,(,0,0,2
1:40.725,36261,t,0,0,1
1:40.931,36335,),0,0,2
1:41.411,36508,(,0,0,0
1:41.492,36537,p,0,0,0
1:41.564,36563,),0,0,0
1:41.581,36569,(,0,0,1
1:41.661,36598,N,0,0,0
1:41.689,36608,),0,0,1
1:41.906,36686,(,0,0,2
1:41.939,36698,t,0,0,0
1:41.983,36714,),0,0,2
1:42.072,36746,(,0,0,0
1:42.097,36755,p,0,0,0
1:42.133,36768,),0,0,0
1:42.136,36769,(,0,0,1
1:42.233,36804,N,0,0,0
1:42.281,36821,),0,0,1
1:42.344,36844,(,0,0,2
1:42.414,36869,t,0,0,1
1:42.578,36928,),0,0,2
1:42.958,37065,(,0,0,0
1:42.997,37079,p,0,0,0
1:43.053,37099,),0,0,0
1:43.178,37144,(,0,0,1
1:43.283,37182,N,0,0,0
1:43.314,37193,),0,0,1
1:43.472,37250,(,0,0,2
1:43.531,37271,t,0,0,0
1:43.694,37330,),0,0,2
1:43.836,37381,(,0,0,1
1:43.928,37414,N,0,0,0
1:43.983,37434,),0,0,1
1:44.103,37477,(,0,0,2
1:44.183,37506,t,0,0,1
1:44.386,37579,),0,0,2
1:44.897,37763,(,0,0,0
1:45.033,37812,p,0,0,0
1:45.069,37825,),0,0,0
1:45.142,37851,(,0,0,1
1:45.222,37880,N,0,0,0
1:45.256,37892,),0,0,1
1:45.369,37933,(,0,0,2
1:45.511,37984,t,0,0,0
1:45.647,38033,),0,0,2
1:45.797,38087,(,0,0,1
1:45.947,38141,N,0,0,0
1:46.086,38191,),0,0,1
1:46.192,38229,(,0,0,2
1:46.217,38238,t,0,0,4
1:46.442,38319,t,0,0,4
1:46.464,38327,),0,0,2
1:46.900,38484,(,0,0,0
1:47.025,38529,p,0,0,0
1:47.056,38540,),0,0,0
1:47.094,38554,(,0,0,1
1:47.192,38589,N,0,0,0
1:47.222,38600,),0,0,1
1:47.253,38611,(,0,0,2
1:47.450,38682,t,0,0,0
1:47.553,38719,),0,0,2
1:47.692,38769,(,0,0,1
1:47.775,38799,N,0,0,0
1:47.828,38818,),0,0,1
1:47.917,38850,(,0,0,2
1:47.994,38878,t,0,0,1
1:48.178,38944,),0,0,2
1:48.517,39066,(,0,0,0
1:48.553,39079,p,0,0,0
1:48.597,39095,),0,0,0
1:48.739,39146,(,0,0,1
1:48.806,39170,N,0,0,0
1:48.833,39180,),0,0,1
1:48.956,39224,t,0,0,2
1:49.044,39256,),0,0,2
1:49.142,39291,(,0,0,0
1:49.164,39299,p,0,0,0
1:49.267,39336,),0,0,0
1:49.289,39344,(,0,0,1
1:49.364,39371,N,0,0,0
1:49.453,39403,),0,0,1
1:49.556,39440,(,0,0,2
1:49.653,39475,t,0,0,1
1:49.789,39524,),0,0,2
1:50.322,39716,(,0,0,0
1:50.458,39765,p,0,0,0
1:50.497,39779,),0,0,0
1:50.572,39806,(,0,0,1
1:50.658,39837,N,0,0,0
1:50.700,39852,),0,0,1
1:50.883,39918,(,0,0,2
1:50.994,39958,t,0,0,0
1:51.100,39996,),0,0,2
1:51.306,40070,(,0,0,1
1:51.403,40105,N,0,0,0
1:51.467,40128,),0,0,1
1:51.569,40165,(,0,0,2
1:51.650,40194,t,0,0,1
1:51.733,40224,),0,0,2
1:51.781,40241,(,0,0,0
1:51.792,40245,p,0,0,0
1:51.825,40257,),0,0,0
1:51.906,40286,(,0,0,1
1:51.950,40302,N,0,0,0
1:52.069,40345,),0,0,1
1:52.300,40428,(,0,0,2
1:52.353,40447,t,0,0,0
1:52.400,40464,),0,0,2
1:52.522,40508,(,0,0,0
1:52.556,40520,p,0,0,0
1:52.592,40533,),0,0,0
1:52.614,40541,(,0,0,1
1:52.689,40568,N,0,0,0
1:52.717,40578,),0,0,1
1:52.831,40619,(,0,0,2
1:52.972,40670,t,0,0,0
1:53.103,40717,),0,0,2
1:53.197,40751,(,0,0,1
1:53.347,40805,N,0,0,0
1:53.464,40847,),0,0,1
1:53.542,40875,(,0,0,2
1:53.644,40912,t,0,0,1
1:53.706,40934,),0,0,2
1:54.192,41109,(,0,0,0
1:54.314,41153,p,0,0,0
1:54.358,41169,),0,0,0
1:54.386,41179,(,0,0,1
1:54.494,41218,N,0,0,0
1:54.525,41229,),0,0,1
1:54.664,41279,(,0,0,2
1:54.789,41324,t,0,0,0
1:54.994,41398,),0,0,2
1:55.139,41450,(,0,0,0
1:55.261,41494,p,0,0,0
1:55.303,41509,),0,0,0
1:55.367,41532,(,0,0,1
1:55.453,41563,N,0,0,0
1:55.489,41576,),0,0,1
1:55.589,41612,(,0,0,2
1:55.761,41674,t,0,0,0
1:55.917,41730,),0,0,2
1:56.300,41868,(,0,0,0
1:56.389,41900,p,0,0,0
1:56.439,41918,),0,0,0
1:56.564,41963,(,0,0,1
1:56.658,41997,N,0,0,0
1:56.706,42014,),0,0,1
1:56.911,42088,(,0,0,2
1:57.047,42137,t,0,0,0
1:57.175,42183,),0,0,2
1:57.597,42335,(,0,0,0
1:57.633,42348,p,0,0,0
1:57.661,42358,),0,0,0
1:57.722,42380,(,0,0,1
1:57.800,42408,N,0,0,0
1:57.833,42420,),0,0,1
1:57.958,42465,(,0,0,2
1:58.081,42509,t,0,0,0
1:58.283,42582,),0,0,2
1:58.500,42660,(,0,0,0
1:58.600,42696,p,0,0,0
1:58.664,42719,),0,0,0
1:58.703,42733,(,0,0,1
1:58.781,42761,N,0,0,0
1:58.814,42773,),0,0,1
1:58.889,42800,(,0,0,2
1:59.056,42860,t,0,0,0
1:59.194,42910,),0,0,2
1:59.358,42969,(,0,0,0
1:59.397,42983,p,0,0,0
1:59.450,43002,),0,0,0
1:59.575,43047,(,0,0,1
1:59.675,43083,N,0,0,0
1:59.703,43093,),0,0,1
1:59.819,43135,(,0,0,2
1:59.903,43165,t,0,0,5
2:00.136,43249,t,0,0,5
2:00.222,43280,),0,0,2
2:00.242,43287,(,0,0,0
2:00.339,43322,p,0,0,0
2:00.397,43343,),0,0,0
2:00.417,43350,(,0,0,1
2:00.522,43388,N,0,0,0
2:00.556,43400,),0,0,1
2:00.800,43488,(,0,0,2
2:01.033,43572,t,0,0,1
2:01.100,43596,),0,0,2
2:01.117,43602,(,0,0,0
2:01.206,43634,p,0,0,0
2:01.267,43656,),0,0,0
2:01.319,43675,(,0,0,1
2:01.394,43702,N,0,0,0
2:01.425,43713,),0,0,1
2:01.503,43741,(,0,0,2
2:01.692,43809,t,0,0,0
2:01.825,43857,),0,0,2
2:02.017,43926,(,0,0,0
2:02.081,43949,p,0,0,0
2:02.136,43969,),0,0,0
2:02.314,44033,(,0,0,1
2:02.431,44075,N,0,0,0
2:02.467,44088,),0,0,1
2:02.667,44160,(,0,0,2
2:02.744,44188,t,0,0,0
2:02.922,44252,),0,0,2
2:03.267,44376,(,0,0,0
2:03.319,44395,p,0,0,0
2:03.367,44412,),0,0,0
2:03.444,44440,(,0,0,1
2:03.519,44467,N,0,0,0
2:03.556,44480,),0,0,1
2:03.664,44519,(,0,0,2
2:03.817,44574,t,0,0,5
2:04.067,44664,t,0,0,5
2:04.167,44700,),0,0,2
2:04.181,44705,(,0,0,0
2:04.286,44743,p,0,0,0
2:04.333,44760,),0,0,0
2:04.361,44770,(,0,0,1
2:04.461,44806,N,0,0,0
2:04.492,44817,),0,0,1
2:04.525,44829,(,0,0,2
2:04.700,44892,t,0,0,5
2:04.933,44976,t,0,0,5
2:05.025,45009,),0,0,2
2:05.039,45014,(,0,0,0
2:05.133,45048,p,0,0,0
2:05.208,45075,),0,0,0
2:05.247,45089,(,0,0,1
2:05.311,45112,N,0,0,0
2:05.342,45123,),0,0,1
2:05.411,45148,(,0,0,2
2:05.564,45203,t,0,0,5
2:05.789,45284,t,0,0,5
2:05.869,45313,),0,0,2
2:05.883,45318,(,0,0,0
2:05.989,45356,p,0,0,0
2:06.036,45373,),0,0,0
2:06.067,45384,(,0,0,1
2:06.153,45415,N,0,0,0
2:06.183,45426,),0,0,1
2:06.433,45516,(,0,0,2
2:06.669,45601,t,0,0,1
2:06.733,45624,),0,0,2
2:06.750,45630,(,0,0,0
2:06.853,45667,p,0,0,0
2:06.900,45684,),0,0,0
2:06.925,45693,(,0,0,1
2:07.036,45733,N,0,0,0
2:07.072,45746,),0,0,1
2:07.144,45772,(,0,0,2
2:07.292,45825,t,0,0,5
2:07.569,45925,t,0,0,5
2:07.631,45947,),0,0,2
2:07.650,45954,(,0,0,0
2:07.756,45992,p,0,0,0
2:07.806,46010,),0,0,0
2:07.858,46029,(,0,0,1
2:07.928,46054,N,0,0,0
2:07.958,46065,),0,0,1
2:08.069,46105,(,0,0,2
2:08.161,46138,t,0,0,5
2:08.475,46251,t,0,0,5
2:08.542,46275,),0,0,2
2:08.806,46370,(,0,0,1
2:08.881,46397,N,0,0,0
2:08.919,46411,),0,0,1
2:08.961,46426,(,0,0,2
2:09.169,46501,t,0,0,0
2:09.278,46540,),0,0,2
2:09.300,46548,(,0,0,0
2:09.331,46559,p,0,0,0
2:09.344,46564,),0,0,0
2:09.483,46614,(,0,0,1
2:09.561,46642,N,0,0,0
2:09.650,46674,),0,0,1
2:09.761,46714,(,0,0,2
2:09.797,46727,t,0,0,4
2:10.172,46862,t,0,0,4
2:10.186,46867,),0,0,2
2:10.483,46974,(,0,0,0
2:10.594,47014,p,0,0,0
2:10.633,47028,),0,0,0
2:10.669,47041,(,0,0,1
2:10.744,47068,N,0,0,0
2:10.772,47078,),0,0,1
2:10.881,47117,t,0,0,2
2:10.975,47151,),0,0,2
2:11.000,47160,(,0,0,0
2:11.019,47167,p,0,0,0
2:11.078,47188,),0,0,0
2:11.242,47247,(,0,0,1
2:11.319,47275,N,0,0,0
2:11.369,47293,),0,0,1
2:11.547,47357,(,0,0,2
2:11.747,47429,t,0,0,0
2:11.783,47442,),0,0,2
2:12.094,47554,(,0,0,0
2:12.183,47586,p,0,0,0
2:12.236,47605,),0,0,0
2:12.283,47622,(,0,0,1
2:12.353,47647,N,0,0,0
2:12.381,47657,),0,0,1
2:12.506,47702,(,0,0,2
2:12.578,47728,t,0,0,0
2:12.717,47778,),0,0,2
2:12.756,47792,(,0,0,0
2:12.794,47806,p,0,0,0
2:12.808,47811,),0,0,0
2:12.850,47826,(,0,0,1
2:13.000,47880,N,0,0,0
2:13.117,47922,),0,0,1
2:13.156,47936,(,0,0,2
2:13.250,47970,t,0,0,0
2:13.419,48031,),0,0,2
2:13.778,48160,(,0,0,0
2:13.878,48196,p,0,0,0
2:13.922,48212,),0,0,0
2:13.969,48229,(,0,0,1
2:14.044,48256,N,0,0,0
2:14.075,48267,),0,0,1
2:14.314,48353,(,0,0,2
2:14.458,48405,t,0,0,1
2:14.617,48462,),0,0,2
2:14.628,48466,(,0,0,0
2:14.669,48481,p,0,0,0
2:14.767,48516,),0,0,0
2:14.825,48537,(,0,0,1
2:14.908,48567,N,0,0,0
2:15.069,48625,),0,0,1
2:15.475,48771,(,0,0,2
2:15.528,48790,t,0,0,0
2:15.572,48806,),0,0,2
2:15.731,48863,(,0,0,1
2:15.828,48898,N,0,0,0
2:15.947,48941,),0,0,1
2:16.031,48971,(,0,0,2
2:16.072,48986,t,0,0,5
2:16.375,49095,t,0,0,5
2:16.433,49116,),0,0,2
2:16.447,49121,(,0,0,0
2:16.478,49132,p,0,0,0
2:16.494,49138,),0,0,0
2:16.653,49195,(,0,0,1
2:16.722,49220,N,0,0,0
2:16.750,49230,),0,0,1
2:16.983,49314,(,0,0,2
2:17.131,49367,t,0,0,1
2:17.272,49418,),0,0,2
2:17.283,49422,(,0,0,0
2:17.389,49460,p,0,0,0
2:17.422,49472,),0,0,0
2:17.489,49496,(,0,0,1
2:17.550,49518,N,0,0,0
2:17.581,49529,),0,0,1
2:17.683,49566,(,0,0,2
2:17.772,49598,t,0,0,5
2:17.978,49672,t,0,0,5
2:17.997,49679,),0,0,2
2:18.072,49706,(,0,0,0
2:18.158,49737,p,0,0,0
2:18.200,49752,),0,0,0
2:18.247,49769,(,0,0,1
2:18.303,49789,N,0,0,0
2:18.331,49799,),0,0,1
2:18.403,49825,(,0,0,2
2:18.522,49868,t,0,0,5
2:18.772,49958,t,0,0,5
2:18.819,49975,),0,0,2
2:18.842,49983,(,0,0,0
2:18.933,50016,p,0,0,0
2:18.969,50029,),0,0,0
2:19.028,50050,(,0,0,1
2:19.094,50074,N,0,0,0
2:19.128,50086,),0,0,1
2:19.372,50174,(,0,0,2
2:19.581,50249,t,0,0,1
2:19.661,50278,),0,0,2
2:19.678,50284,(,0,0,0
2:19.756,50312,p,0,0,0
2:19.831,50339,),0,0,0
2:19.850,50346,(,0,0,1
2:19.925,50373,N,0,0,0
2:19.956,50384,),0,0,1
2:20.164,50459,(,0,0,2
2:20.381,50537,t,0,0,1
2:20.453,50563,),0,0,2
2:20.686,50647,(,0,0,1
2:20.750,50670,N,0,0,0
2:20.783,50682,),0,0,1
2:20.889,50720,(,0,0,2
2:21.025,50769,t,0,0,5
2:21.300,50868,t,0,0,5
2:21.347,50885,),0,0,2
2:21.364,50891,(,0,0,0
2:21.461,50926,p,0,0,0
2:21.508,50943,),0,0,0
2:21.575,50967,(,0,0,1
2:21.653,50995,N,0,0,0
2:21.683,51006,),0,0,1
2:22.264,51215,(,0,0,0
2:22.367,51252,p,0,0,0
2:22.433,51276,),0,0,0
2:22.467,51288,(,0,0,1
2:22.539,51314,N,0,0,0
2:22.567,51324,),0,0,1
2:22.692,51369,(,0,0,2
2:22.744,51388,t,0,0,5
2:23.008,51483,t,0,0,5
2:23.094,51514,),0,0,2
2:23.108,51519,(,0,0,0
2:23.208,51555,p,0,0,0
2:23.253,51571,),0,0,0
2:23.278,51580,(,0,0,1
2:23.372,51614,N,0,0,0
2:23.403,51625,),0,0,1
2:23.469,51649,(,0,0,2
2:23.619,51703,t,0,0,0
2:23.822,51776,),0,0,2
2:23.847,51785,(,0,0,0
2:23.878,51796,p,0,0,0
2:23.931,51815,),0,0,0
2:24.061,51862,(,0,0,1
2:24.125,51885,N,0,0,0
2:24.150,51894,),0,0,1
2:24.236,51925,(,0,0,2
2:24.336,51961,t,0,0,0
2:24.431,51995,),0,0,2
2:24.594,52054,(,0,0,1
2:24.672,52082,N,0,0,0
2:24.772,52118,),0,0,1
2:24.781,52121,(,0,0,2
2:24.861,52150,t,0,0,1
2:25.036,52213,),0,0,2
2:25.492,52377,(,0,0,0
2:25.603,52417,p,0,0,0
2:25.650,52434,),0,0,0
2:25.667,52440,(,0,0,1
2:25.775,52479,N,0,0,0
2:25.806,52490,),0,0,1
2:25.872,52514,t,0,0,2
2:26.011,52564,),0,0,2
2:26.022,52568,(,0,0,0
2:26.025,52569,p,0,0,0
2:26.144,52612,),0,0,0
2:26.275,52659,(,0,0,1
2:26.356,52688,N,0,0,0
2:26.406,52706,),0,0,1
2:26.503,52741,(,0,0,2
2:26.550,52758,t,0,0,1
2:26.767,52836,),0,0,2
2:27.283,53022,(,0,0,0
2:27.367,53052,p,0,0,0
2:27.408,53067,),0,0,0
2:27.489,53096,(,0,0,1
2:27.536,53113,N,0,0,0
2:27.572,53126,),0,0,1
2:27.711,53176,t,0,0,2
2:27.789,53204,),0,0,2
2:28.008,53283,(,0,0,1
2:28.103,53317,N,0,0,0
2:28.156,53336,),0,0,1
2:28.264,53375,(,0,0,2
2:28.311,53392,t,0,0,1
2:28.503,53461,),0,0,2
2:28.969,53629,(,0,0,0
2:29.053,53659,p,0,0,0
2:29.108,53679,),0,0,0
2:29.164,53699,(,0,0,1
2:29.233,53724,N,0,0,0
2:29.361,53770,),0,0,1
2:29.400,53784,(,0,0,2
2:29.475,53811,t,0,0,5
2:29.714,53897,t,0,0,5
2:29.772,53918,),0,0,2
2:29.783,53922,(,0,0,0
2:29.872,53954,p,0,0,0
2:29.917,53970,),0,0,0
2:29.928,53974,(,0,0,1
2:30.022,54008,N,0,0,0
2:30.050,54018,),0,0,1
2:30.158,54057,(,0,0,2
2:30.208,54075,t,0,0,0
2:30.250,54090,),0,0,2
2:30.522,54188,(,0,0,0
2:30.558,54201,p,0,0,0
2:30.611,54220,),0,0,0
2:30.722,54260,(,0,0,1
2:30.817,54294,N,0,0,0
2:30.847,54305,),0,0,1
2:30.928,54334,(,0,0,2
2:31.050,54378,t,0,0,0
2:31.200,54432,),0,0,2
2:31.347,54485,(,0,0,1
2:31.436,54517,N,0,0,0
2:31.497,54539,),0,0,1
2:31.575,54567,(,0,0,2
2:31.658,54597,t,0,0,1
2:31.872,54674,),0,0,2
2:32.328,54838,(,0,0,0
2:32.433,54876,p,0,0,0
2:32.478,54892,),0,0,0
2:32.531,54911,(,0,0,1
2:32.600,54936,N,0,0,0
2:32.628,54946,),0,0,1
2:32.664,54959,(,0,0,2
2:32.867,55032,t,0,0,0
2:33.014,55085,),0,0,2
2:33.228,55162,(,0,0,0
2:33.325,55197,p,0,0,0
2:33.372,55214,),0,0,0
2:33.425,55233,(,0,0,1
2:33.497,55259,N,0,0,0
2:33.531,55271,),0,0,1
2:33.597,55295,(,0,0,2
2:33.736,55345,t,0,0,0
2:33.872,55394,),0,0,2
2:34.075,55467,(,0,0,0
2:34.178,55504,p,0,0,0
2:34.228,55522,),0,0,0
2:34.275,55539,(,0,0,1
2:34.342,55563,N,0,0,0
2:34.389,55580,),0,0,1
2:34.469,55609,(,0,0,2
2:34.567,55644,t,0,0,0
2:34.731,55703,),0,0,2
2:34.939,55778,(,0,0,0
2:35.036,55813,p,0,0,0
2:35.086,55831,),0,0,0
2:35.142,55851,(,0,0,1
2:35.208,55875,N,0,0,0
2:35.239,55886,),0,0,1
2:35.292,55905,(,0,0,2
2:35.464,55967,t,0,0,0
2:35.603,56017,),0,0,2
2:35.803,56089,(,0,0,0
2:35.908,56127,p,0,0,0
2:35.944,56140,),0,0,0
2:35.983,56154,(,0,0,1
2:36.056,56180,N,0,0,0
2:36.083,56190,),0,0,1
2:36.139,56210,(,0,0,2
2:36.272,56258,t,0,0,0
2:36.350,56286,),0,0,2
2:36.383,56298,(,0,0,0
2:36.450,56322,p,0,0,0
2:36.522,56348,),0,0,0
2:36.547,56357,(,0,0,1
2:36.625,56385,N,0,0,0
2:36.714,56417,),0,0,1
2:36.739,56426,(,0,0,2
2:36.814,56453,t,0,0,1
2:36.997,56519,),0,0,2
2:37.339,56642,(,0,0,0
2:37.369,56653,p,0,0,0
2:37.419,56671,),0,0,0
2:37.531,56711,(,0,0,1
2:37.622,56744,N,0,0,0
2:37.653,56755,),0,0,1
2:37.767,56796,(,0,0,2
2:37.878,56836,t,0,0,0
2:38.064,56903,),0,0,2
2:38.128,56926,(,0,0,0
2:38.167,56940,p,0,0,0
2:38.206,56954,),0,0,0
2:38.322,56996,(,0,0,1
2:38.406,57026,N,0,0,0
2:38.433,57036,),0,0,1
2:38.522,57068,(,0,0,2
2:38.619,57103,t,0,0,0
2:38.728,57142,),0,0,2
2:38.944,57220,(,0,0,0
2:39.039,57254,p,0,0,0
2:39.117,57282,),0,0,0
2:39.139,57290,(,0,0,1
2:39.208,57315,N,0,0,0
2:39.236,57325,),0,0,1
2:39.325,57357,(,0,0,2
2:39.431,57395,t,0,0,5
2:39.633,57468,t,0,0,5
2:39.675,57483,),0,0,2
2:39.750,57510,(,0,0,0
2:39.850,57546,p,0,0,0
2:39.892,57561,),0,0,0
2:39.947,57581,(,0,0,1
2:40.014,57605,N,0,0,0
2:40.042,57615,),0,0,1
2:40.178,57664,(,0,0,2
2:40.267,57696,t,0,0,0
2:40.344,57724,),0,0,2
2:40.525,57789,(,0,0,1
2:40.633,57828,N,0,0,0
2:40.678,57844,),0,0,1
2:40.761,57874,(,0,0,2
2:40.828,57898,t,0,0,1
2:40.975,57951,),0,0,2
2:41.394,58102,(,0,0,0
2:41.414,58109,p,0,0,0
2:41.531,58151,),0,0,0
2:41.572,58166,(,0,0,1
2:41.633,58188,N,0,0,0
2:41.658,58197,),0,0,1
2:41.806,58250,(,0,0,2
2:41.831,58259,t,0,0,0
2:42.081,58349,),0,0,2
2:42.147,58373,(,0,0,0
2:42.228,58402,p,0,0,0
2:42.286,58423,),0,0,0
2:42.317,58434,(,0,0,1
2:42.381,58457,N,0,0,0
2:42.411,58468,),0,0,1
2:42.436,58477,(,0,0,2
2:42.625,58545,t,0,0,0
2:42.669,58561,),0,0,2
2:43.339,58802,(,0,0,0
2:43.394,58822,p,0,0,0
2:43.489,58856,),0,0,0
2:43.567,58884,(,0,0,1
2:43.681,58925,N,0,0,0
2:43.781,58961,),0,0,1
2:43.792,58965,(,0,0,2
2:43.889,59000,t,0,0,1
2:44.119,59083,),0,0,2
2:44.503,59221,(,0,0,0
2:44.625,59265,p,0,0,0
2:44.664,59279,),0,0,0
2:44.714,59297,(,0,0,1
2:44.800,59328,N,0,0,0
2:44.878,59356,),0,0,1
2:44.886,59359,(,0,0,2
2:45.050,59418,t,0,0,5
2:45.381,59537,t,0,0,5
2:45.425,59553,),0,0,2
2:45.436,59557,(,0,0,0
2:45.556,59600,p,0,0,0
2:45.597,59615,),0,0,0
2:45.614,59621,(,0,0,1
2:45.725,59661,N,0,0,0
2:45.756,59672,),0,0,1
2:45.975,59751,(,0,0,2
2:46.225,59841,t,0,0,1
2:46.347,59885,),0,0,2
2:46.361,59890,(,0,0,0
2:46.469,59929,p,0,0,0
2:46.531,59951,),0,0,0
2:46.536,59953,(,0,0,1
2:46.633,59988,N,0,0,0
2:46.664,59999,),0,0,1
2:46.731,60023,(,0,0,2
2:46.867,60072,t,0,0,5
2:47.119,60163,t,0,0,5
2:47.158,60177,),0,0,2
2:47.181,60185,(,0,0,0
2:47.258,60213,p,0,0,0
2:47.336,60241,),0,0,0
2:47.372,60254,(,0,0,1
2:47.442,60279,N,0,0,0
2:47.469,60289,),0,0,1
2:47.525,60309,(,0,0,2
2:47.636,60349,t,0,0,0
2:47.839,60422,),0,0,2
2:47.925,60453,(,0,0,0
2:47.967,60468,p,0,0,0
2:47.992,60477,),0,0,0
2:48.139,60530,(,0,0,1
2:48.208,60555,N,0,0,0
2:48.328,60598,),0,0,1
2:48.353,60607,(,0,0,2
2:48.425,60633,t,0,0,0
2:48.511,60664,),0,0,2
2:48.536,60673,(,0,0,0
2:48.567,60684,p,0,0,0
2:48.631,60707,),0,0,0
2:48.669,60721,(,0,0,1
2:48.683,60726,(,0,0,0
2:48.736,60745,p,0,0,0
2:48.739,60746,N,0,0,0
2:48.778,60760,),0,0,0
2:48.783,60762,),0,0,1
2:48.869,60793,(,0,0,1
2:49.078,60868,N,0,0,0
2:49.225,60921,),0,0,1
2:49.275,60939,t,0,0,3
2:49.447,61001,),0,0,2
2:49.694,61090,(,0,0,1
2:49.717,61098,N,0,0,0
2:49.792,61125,),0,0,1
2:49.942,61179,(,0,0,2
2:50.019,61207,t,0,0,0
2:50.175,61263,),0,0,2
2:50.289,61304,(,0,0,1
2:50.378,61336,N,0,0,0
2:50.428,61354,),0,0,1
2:50.489,61376,(,0,0,2
2:50.506,61382,t,0,0,1
2:50.553,61399,),0,0,2
2:50.578,61408,(,0,0,1
2:50.844,61504,N,0,0,0
2:50.911,61528,),0,0,1
2:51.094,61594,t,0,0,3
2:51.283,61662,),0,0,2
2:51.336,61681,(,0,0,0
2:51.461,61726,p,0,0,0
2:51.503,61741,),0,0,0
2:51.556,61760,(,0,0,1
2:51.578,61768,N,0,0,0
2:51.658,61797,),0,0,1
2:51.764,61835,(,0,0,2
2:51.911,61888,t,0,0,0
2:52.042,61935,),0,0,2
2:52.400,62064,(,0,0,0
2:52.475,62091,p,0,0,0
2:52.506,62102,),0,0,0
2:52.514,62105,(,0,0,1
2:52.569,62125,N,0,0,0
2:52.600,62136,),0,0,1
2:52.653,62155,(,0,0,2
2:52.800,62208,t,0,0,0
2:53.061,62302,),0,0,2
2:53.150,62334,(,0,0,0
2:53.258,62373,p,0,0,0
2:53.297,62387,),0,0,0
2:53.333,62400,(,0,0,1
2:53.364,62411,N,0,0,0
2:53.433,62436,),0,0,1
2:53.881,62597,(,0,0,0
2:53.928,62614,p,0,0,0
2:54.036,62653,),0,0,0
2:54.061,62662,(,0,0,1
2:54.175,62703,N,0,0,0
2:54.317,62754,),0,0,1
2:54.417,62790,(,0,0,2
2:54.614,62861,t,0,0,1
2:54.700,62892,),0,0,2
2:54.717,62898,(,0,0,0
2:54.794,62926,p,0,0,0
2:54.883,62958,),0,0,0
2:54.922,62972,(,0,0,1
2:54.975,62991,N,0,0,0
2:55.008,63003,),0,0,1
2:55.133,63048,(,0,0,2
2:55.172,63062,t,0,0,0
2:55.483,63174,),0,0,2
2:55.542,63195,(,0,0,0
2:55.658,63237,p,0,0,0
2:55.711,63256,),0,0,0
2:55.753,63271,(,0,0,1
2:55.778,63280,N,0,0,0
2:55.889,63320,),0,0,1
2:55.958,63345,(,0,0,2
2:56.158,63417,t,0,0,0
2:56.225,63441,),0,0,2
2:56.619,63583,(,0,0,0
2:56.667,63600,p,0,0,0
2:56.744,63628,),0,0,0
2:56.783,63642,(,0,0,1
2:56.869,63673,N,0,0,0
2:56.903,63685,),0,0,1
2:56.983,63714,(,0,0,2
2:57.128,63766,t,0,0,5
2:57.425,63873,t,0,0,5
2:57.469,63889,),0,0,2
2:57.489,63896,(,0,0,0
2:57.589,63932,p,0,0,0
2:57.650,63954,),0,0,0
2:57.711,63976,(,0,0,1
2:57.742,63987,N,0,0,0
2:57.847,64025,),0,0,1
2:57.931,64055,t,0,0,2
2:58.028,64090,),0,0,2
2:58.522,64268,(,0,0,0
2:58.533,64272,p,0,0,0
2:58.586,64291,),0,0,0
2:58.603,64297,(,0,0,1
2:58.686,64327,N,0,0,0
2:58.722,64340,),0,0,1
2:58.858,64389,(,0,0,2
2:58.939,64418,t,0,0,0
2:59.022,64448,),0,0,2
2:59.236,64525,(,0,0,0
2:59.281,64541,p,0,0,0
2:59.322,64556,),0,0,0
2:59.392,64581,(,0,0,1
2:59.500,64620,N,0,0,0
2:59.678,64684,),0,0,1
2:59.736,64705,(,0,0,2
2:59.803,64729,t,0,0,5
2:59.844,64744,t,0,0,5
2:59.875,64755,),0,0,2
3:00.047,64817,(,0,0,0
3:00.106,64838,p,0,0,0
3:00.169,64861,),0,0,0
3:00.244,64888,(,0,0,1
3:00.344,64924,N,0,0,0
3:00.381,64937,),0,0,1
3:00.508,64983,(,0,0,2
3:00.558,65001,t,0,0,5
3:00.800,65088,t,0,0,5
3:00.869,65113,),0,0,2
3:00.894,65122,(,0,0,0
3:00.986,65155,p,0,0,0
3:01.058,65181,),0,0,0
3:01.092,65193,(,0,0,1
3:01.172,65222,N,0,0,0
3:01.206,65234,),0,0,1
3:01.342,65283,(,0,0,2
3:01.453,65323,t,0,0,5
3:01.750,65430,t,0,0,5
3:01.822,65456,),0,0,2
3:01.839,65462,(,0,0,0
3:01.975,65511,p,0,0,0
3:02.017,65526,),0,0,0
3:02.039,65534,(,0,0,1
3:02.142,65571,N,0,0,0
3:02.175,65583,),0,0,1
3:02.358,65649,(,0,0,2
3:02.408,65667,t,0,0,0
3:02.556,65720,),0,0,2
3:02.686,65767,(,0,0,0
3:02.711,65776,p,0,0,0
3:02.817,65814,),0,0,0
3:02.858,65829,(,0,0,1
3:02.953,65863,N,0,0,0
3:03.031,65891,),0,0,1
3:03.111,65920,(,0,0,2
3:03.203,65953,t,0,0,1
3:03.397,66023,),0,0,2
3:03.783,66162,(,0,0,0
3:03.903,66205,p,0,0,0
3:03.939,66218,),0,0,0
3:03.969,66229,(,0,0,1
3:04.069,66265,N,0,0,0
3:04.106,66278,),0,0,1
3:04.575,66447,(,0,0,2
3:04.639,66470,t,0,0,1
3:04.697,66491,),0,0,2
3:04.775,66519,(,0,0,0
3:04.819,66535,p,0,0,0
3:04.894,66562,),0,0,0
3:04.919,66571,(,0,0,1
3:05.000,66600,N,0,0,0
3:05.028,66610,),0,0,1
3:05.172,66662,(,0,0,2
3:05.269,66697,t,0,0,0
3:05.467,66768,),0,0,2
3:05.614,66821,(,0,0,0
3:05.722,66860,p,0,0,0
3:05.761,66874,),0,0,0
3:05.819,66895,(,0,0,1
3:05.886,66919,N,0,0,0
3:05.914,66929,),0,0,1
3:06.006,66962,(,0,0,2
3:06.119,67003,t,0,0,0
3:06.311,67072,),0,0,2
3:06.444,67120,(,0,0,0
3:06.539,67154,p,0,0,0
3:06.583,67170,),0,0,0
3:06.633,67188,(,0,0,1
3:06.658,67197,N,0,0,0
3:06.731,67223,),0,0,1
3:06.975,67311,(,0,0,2
3:07.069,67345,t,0,0,1
3:07.289,67424,),0,0,2
3:07.303,67429,(,0,0,0
3:07.317,67434,p,0,0,0
3:07.472,67490,),0,0,0
3:07.506,67502,(,0,0,1
3:07.583,67530,N,0,0,0
3:07.617,67542,),0,0,1
3:07.853,67627,(,0,0,2
3:08.100,67716,t,0,0,1
3:08.194,67750,),0,0,2
3:08.269,67777,(,0,0,0
3:08.328,67798,p,0,0,0
3:08.411,67828,),0,0,0
3:08.456,67844,(,0,0,1
3:08.531,67871,N,0,0,0
3:08.567,67884,),0,0,1
3:08.717,67938,(,0,0,2
3:08.808,67971,t,0,0,5
3:09.058,68061,t,0,0,5
3:09.092,68073,),0,0,2
3:09.139,68090,(,0,0,0
3:09.225,68121,p,0,0,0
3:09.281,68141,),0,0,0
3:09.447,68201,(,0,0,1
3:09.528,68230,N,0,0,0
3:09.622,68264,),0,0,1
3:09.828,68338,(,0,0,2
3:10.033,68412,t,0,0,1
3:10.100,68436,),0,0,2
3:10.119,68443,(,0,0,0
3:10.208,68475,p,0,0,0
3:10.289,68504,),0,0,0
3:10.306,68510,(,0,0,1
3:10.400,68544,N,0,0,0
3:10.439,68558,),0,0,1
3:10.644,68632,(,0,0,2
3:10.692,68649,t,0,0,0
3:10.811,68692,),0,0,2
3:11.075,68787,(,0,0,0
3:11.125,68805,p,0,0,0
3:11.200,68832,),0,0,0
3:11.211,68836,(,0,0,1
3:11.286,68863,N,0,0,0
3:11.397,68903,),0,0,1
3:11.458,68925,(,0,0,2
3:11.539,68954,t,0,0,1
3:11.678,69004,),0,0,2
3:11.814,69053,(,0,0,0
3:11.883,69078,p,0,0,0
3:11.939,69098,),0,0,0
3:12.017,69126,(,0,0,1
3:12.111,69160,N,0,0,0
3:12.181,69185,),0,0,1
3:12.261,69214,(,0,0,2
3:12.400,69264,t,0,0,0
3:12.558,69321,),0,0,2
3:12.583,69330,(,0,0,0
3:12.661,69358,p,0,0,0
3:12.700,69372,),0,0,0
3:12.803,69409,(,0,0,1
3:12.900,69444,N,0,0,0
3:12.928,69454,),0,0,1
3:12.989,69476,(,0,0,2
3:13.133,69528,t,0,0,0
3:13.258,69573,),0,0,2
3:13.292,69585,(,0,0,0
3:13.314,69593,p,0,0,0
3:13.381,69617,),0,0,0
3:13.408,69627,(,0,0,1
3:13.528,69670,N,0,0,0
3:13.642,69711,),0,0,1
3:13.689,69728,(,0,0,2
3:13.778,69760,t,0,0,5
3:14.047,69857,t,0,0,5
3:14.075,69867,),0,0,2
3:14.339,69962,(,0,0,0
3:14.431,69995,p,0,0,0
3:14.494,70018,),0,0,0
3:14.542,70035,(,0,0,1
3:14.614,70061,N,0,0,0
3:14.650,70074,),0,0,1
3:14.742,70107,(,0,0,2
3:14.900,70164,t,0,0,5
3:15.200,70272,t,0,0,5
3:15.253,70291,),0,0,2
3:15.506,70382,(,0,0,1
3:15.583,70410,N,0,0,0
3:15.617,70422,),0,0,1
3:15.694,70450,(,0,0,2
3:15.858,70509,t,0,0,5
3:16.119,70603,t,0,0,5
3:16.217,70638,),0,0,2
3:16.233,70644,(,0,0,0
3:16.356,70688,p,0,0,0
3:16.392,70701,),0,0,0
3:16.450,70722,(,0,0,1
3:16.525,70749,N,0,0,0
3:16.558,70761,),0,0,1
3:16.956,70904,(,0,0,2
3:17.028,70930,t,0,0,1
3:17.097,70955,),0,0,2
3:17.150,70974,(,0,0,0
3:17.217,70998,p,0,0,0
3:17.289,71024,),0,0,0
3:17.292,71025,(,0,0,1
3:17.386,71059,N,0,0,0
3:17.414,71069,),0,0,1
3:17.519,71107,(,0,0,2
3:17.628,71146,t,0,0,0
3:17.719,71179,),0,0,2
3:17.917,71250,(,0,0,0
3:18.011,71284,p,0,0,0
3:18.061,71302,),0,0,0
3:18.086,71311,(,0,0,1
3:18.150,71334,N,0,0,0
3:18.178,71344,),0,0,1
3:18.228,71362,(,0,0,2
3:18.358,71409,t,0,0,5
3:18.619,71503,t,0,0,5
3:18.658,71517,),0,0,2
3:18.678,71524,(,0,0,0
3:18.767,71556,p,0,0,0
3:18.806,71570,),0,0,0
3:18.819,71575,(,0,0,1
3:18.922,71612,N,0,0,0
3:18.981,71633,),0,0,1
3:19.050,71658,(,0,0,2
3:19.103,71677,t,0,0,5
3:19.133,71688,t,0,0,5
3:19.156,71696,),0,0,2
3:19.489,71816,(,0,0,0
3:19.589,71852,p,0,0,0
3:19.625,71865,),0,0,0
3:19.675,71883,(,0,0,1
3:19.758,71913,N,0,0,0
3:19.792,71925,),0,0,1
3:20.025,72009,(,0,0,2
3:20.144,72052,t,0,0,1
3:20.292,72105,),0,0,2
3:20.308,72111,(,0,0,0
3:20.417,72150,p,0,0,0
3:20.461,72166,),0,0,0
3:20.503,72181,(,0,0,1
3:20.583,72210,N,0,0,0
3:20.617,72222,),0,0,1
3:20.753,72271,(,0,0,2
3:20.819,72295,t,0,0,0
3:20.956,72344,),0,0,2
3:21.044,72376,(,0,0,0
3:21.081,72389,p,0,0,0
3:21.186,72427,),0,0,0
3:21.228,72442,(,0,0,1
3:21.317,72474,N,0,0,0
3:21.439,72518,),0,0,1
3:21.519,72547,(,0,0,2
3:21.547,72557,t,0,0,4
3:21.808,72651,t,0,0,4
3:21.864,72671,),0,0,2
3:22.144,72772,(,0,0,0
3:22.256,72812,p,0,0,0
3:22.303,72829,),0,0,0
3:22.353,72847,(,0,0,1
3:22.428,72874,N,0,0,0
3:22.461,72886,),0,0,1
3:22.714,72977,(,0,0,2
3:22.906,73046,t,0,0,1
3:22.992,73077,),0,0,2
3:23.006,73082,(,0,0,0
3:23.103,73117,p,0,0,0
3:23.147,73133,),0,0,0
3:23.167,73140,(,0,0,1
3:23.269,73177,N,0,0,0
3:23.303,73189,),0,0,1
3:23.531,73271,(,0,0,2
3:23.711,73336,t,0,0,1
3:23.792,73365,),0,0,2
3:23.806,73370,(,0,0,0
3:23.897,73403,p,0,0,0
3:23.942,73419,),0,0,0
3:23.981,73433,(,0,0,1
3:24.044,73456,N,0,0,0
3:24.072,73466,),0,0,1
3:24.131,73487,(,0,0,2
3:24.253,73531,t,0,0,5
3:24.481,73613,t,0,0,5
3:24.536,73633,),0,0,2
3:24.550,73638,(,0,0,0
3:24.653,73675,p,0,0,0
3:24.703,73693,),0,0,0
3:24.736,73705,(,0,0,1
3:24.800,73728,N,0,0,0
3:24.831,73739,),0,0,1
3:25.061,73822,(,0,0,2
3:25.267,73896,t,0,0,1
3:25.344,73924,),0,0,2
3:25.361,73930,(,0,0,0
3:25.467,73968,p,0,0,0
3:25.536,73993,),0,0,0
3:25.556,74000,(,0,0,1
3:25.636,74029,N,0,0,0
3:25.669,74041,),0,0,1
3:25.767,74076,(,0,0,2
3:25.906,74126,t,0,0,5
3:26.139,74210,t,0,0,5
3:26.228,74242,),0,0,2
3:26.250,74250,(,0,0,0
3:26.350,74286,p,0,0,0
3:26.417,74310,),0,0,0
3:26.453,74323,(,0,0,1
3:26.528,74350,N,0,0,0
3:26.561,74362,),0,0,1
3:26.686,74407,(,0,0,2
3:26.792,74445,t,0,0,5
3:27.036,74533,t,0,0,5
3:27.161,74578,),0,0,2
3:27.186,74587,(,0,0,0
3:27.311,74632,p,0,0,0
3:27.358,74649,),0,0,0
3:27.394,74662,(,0,0,1
3:27.511,74704,N,0,0,0
3:27.544,74716,),0,0,1
3:27.703,74773,(,0,0,2
3:27.808,74811,t,0,0,0
3:27.989,74876,),0,0,2
3:28.108,74919,(,0,0,1
3:28.253,74971,N,0,0,0
3:28.364,75011,),0,0,1
3:28.406,75026,(,0,0,2
3:28.500,75060,t,0,0,0
3:28.703,75133,),0,0,2
3:29.042,75255,(,0,0,0
3:29.139,75290,p,0,0,0
3:29.192,75309,),0,0,0
3:29.236,75325,(,0,0,1
3:29.297,75347,N,0,0,0
3:29.331,75359,),0,0,1
3:29.806,75530,(,0,0,0
3:29.844,75544,p,0,0,0
3:29.894,75562,),0,0,0
3:30.019,75607,(,0,0,1
3:30.083,75630,N,0,0,0
3:30.114,75641,),0,0,1
3:30.314,75713,(,0,0,2
3:30.503,75781,t,0,0,1
3:30.589,75812,),0,0,2
3:30.606,75818,(,0,0,0
3:30.708,75855,p,0,0,0
3:30.753,75871,),0,0,0
3:30.794,75886,(,0,0,1
3:30.864,75911,N,0,0,0
3:30.892,75921,),0,0,1
3:30.964,75947,(,0,0,2
3:31.094,75994,t,0,0,5
3:31.333,76080,t,0,0,5
3:31.397,76103,),0,0,2
3:31.414,76109,(,0,0,0
3:31.506,76142,p,0,0,0
3:31.558,76161,),0,0,0
3:31.603,76177,(,0,0,1
3:31.678,76204,N,0,0,0
3:31.711,76216,),0,0,1
3:31.731,76223,(,0,0,2
3:31.928,76294,t,0,0,5
3:32.192,76389,t,0,0,5
3:32.300,76428,),0,0,2
3:32.317,76434,(,0,0,0
3:32.442,76479,p,0,0,0
3:32.483,76494,),0,0,0
3:32.539,76514,(,0,0,1
3:32.611,76540,N,0,0,0
3:32.644,76552,),0,0,1
3:32.786,76603,(,0,0,2
3:32.875,76635,t,0,0,5
3:33.147,76733,t,0,0,5
3:33.247,76769,),0,0,2
3:33.267,76776,(,0,0,0
3:33.378,76816,p,0,0,0
3:33.436,76837,),0,0,0
3:33.489,76856,(,0,0,1
3:33.567,76884,N,0,0,0
3:33.603,76897,),0,0,1
3:33.856,76988,(,0,0,2
3:34.022,77048,t,0,0,1
3:34.183,77106,),0,0,2
3:34.203,77113,(,0,0,0
3:34.311,77152,p,0,0,0
3:34.367,77172,),0,0,0
3:34.392,77181,(,0,0,1
3:34.472,77210,N,0,0,0
3:34.506,77222,),0,0,1
3:34.550,77238,(,0,0,2
3:34.761,77314,t,0,0,0
3:34.881,77357,),0,0,2
3:35.064,77423,(,0,0,0
3:35.139,77450,p,0,0,0
3:35.197,77471,),0,0,0
3:35.231,77483,(,0,0,1
3:35.319,77515,N,0,0,0
3:35.350,77526,),0,0,1
3:35.436,77557,(,0,0,2
3:35.550,77598,t,0,0,0
3:35.656,77636,),0,0,2
3:35.889,77720,(,0,0,0
3:35.997,77759,p,0,0,0
3:36.000,77760,),0,0,0
3:36.092,77793,(,0,0,1
3:36.108,77799,N,0,0,0
3:36.175,77823,),0,0,1
3:36.244,77848,(,0,0,2
3:36.281,77861,t,0,0,4
3:36.364,77891,t,0,0,4
3:36.450,77922,),0,0,2
3:36.614,77981,(,0,0,1
3:36.692,78009,N,0,0,0
3:36.819,78055,),0,0,1
3:36.831,78059,(,0,0,2
3:36.892,78081,t,0,0,4
3:37.033,78132,t,0,0,4
3:37.136,78169,),0,0,2
3:37.561,78322,(,0,0,0
3:37.597,78335,p,0,0,0
3:37.636,78349,),0,0,0
3:37.681,78365,(,0,0,1
3:37.703,78373,N,0,0,0
3:37.775,78399,),0,0,1
3:37.889,78440,(,0,0,2
3:37.928,78454,t,0,0,0
3:37.967,78468,),0,0,2
3:38.022,78488,(,0,0,0
3:38.108,78519,p,0,0,0
3:38.133,78528,),0,0,0
3:38.214,78557,(,0,0,1
3:38.300,78588,N,0,0,0
3:38.350,78606,),0,0,1
3:38.392,78621,(,0,0,2
3:38.428,78634,t,0,0,4
3:38.694,78730,t,0,0,4
3:38.800,78768,),0,0,2
3:39.175,78903,(,0,0,0
3:39.267,78936,p,0,0,0
3:39.317,78954,),0,0,0
3:39.353,78967,(,0,0,1
3:39.444,79000,N,0,0,0
3:39.478,79012,),0,0,1
3:40.028,79210,(,0,0,0
3:40.131,79247,p,0,0,0
3:40.175,79263,),0,0,0
3:40.219,79279,(,0,0,1
3:40.253,79291,N,0,0,0
3:40.331,79319,),0,0,1
3:40.414,79349,(,0,0,2
3:40.528,79390,t,0,0,5
3:40.811,79492,t,0,0,5
3:40.867,79512,),0,0,2
3:40.875,79515,(,0,0,0
3:40.953,79543,p,0,0,0
3:41.006,79562,),0,0,0
3:41.053,79579,(,0,0,1
3:41.144,79612,N,0,0,0
3:41.178,79624,),0,0,1
3:41.231,79643,t,0,0,2
3:41.375,79695,),0,0,2
3:41.392,79701,(,0,0,0
3:41.547,79757,p,0,0,0
3:41.567,79764,),0,0,0
3:41.592,79773,(,0,0,1
3:41.683,79806,N,0,0,0
3:41.756,79832,),0,0,1
3:41.875,79875,(,0,0,2
3:41.908,79887,t,0,0,1
3:42.039,79934,),0,0,2
3:42.375,80055,(,0,0,0
3:42.422,80072,p,0,0,0
3:42.531,80111,),0,0,0
3:42.606,80138,(,0,0,1
3:42.633,80148,N,0,0,0
3:42.817,80214,),0,0,1
3:42.858,80229,(,0,0,2
3:42.994,80278,t,0,0,1
3:43.053,80299,),0,0,2
3:43.167,80340,(,0,0,0
3:43.203,80353,p,0,0,0
3:43.275,80379,),0,0,0
3:43.358,80409,(,0,0,1
3:43.400,80424,N,0,0,0
3:43.472,80450,),0,0,1
3:43.517,80466,(,0,0,2
3:43.644,80512,t,0,0,0
3:43.803,80569,),0,0,2
3:43.969,80629,(,0,0,0
3:44.050,80658,p,0,0,0
3:44.136,80689,),0,0,0
3:44.161,80698,(,0,0,1
3:44.231,80723,N,0,0,0
3:44.264,80735,),0,0,1
3:44.503,80821,(,0,0,2
3:44.647,80873,t,0,0,1
3:44.819,80935,),0,0,2
3:44.842,80943,(,0,0,0
3:44.939,80978,p,0,0,0
3:45.008,81003,),0,0,0
3:45.042,81015,(,0,0,1
3:45.117,81042,N,0,0,0
3:45.150,81054,),0,0,1
3:45.228,81082,(,0,0,2
3:45.369,81133,t,0,0,5
3:45.681,81245,t,0,0,5
3:45.750,81270,),0,0,2
3:46.003,81361,(,0,0,1
3:46.031,81371,N,0,0,0
3:46.150,81414,),0,0,1
3:46.200,81432,(,0,0,2
3:46.350,81486,t,0,0,5
3:46.672,81602,t,0,0,5
3:46.722,81620,),0,0,2
3:46.947,81701,(,0,0,1
3:47.017,81726,N,0,0,0
3:47.047,81737,),0,0,1
3:47.106,81758,(,0,0,2
3:47.244,81808,t,0,0,0
3:47.450,81882,),0,0,2
3:47.547,81917,(,0,0,0
3:47.639,81950,p,0,0,0
3:47.686,81967,),0,0,0
3:47.694,81970,(,0,0,1
3:47.756,81992,N,0,0,0
3:47.831,82019,),0,0,1
3:47.889,82040,(,0,0,2
3:48.017,82086,t,0,0,0
3:48.122,82124,),0,0,2
3:48.356,82208,(,0,0,0
3:48.389,82220,p,0,0,0
3:48.436,82237,),0,0,0
3:48.478,82252,(,0,0,1
3:48.531,82271,N,0,0,0
3:48.561,82282,),0,0,1
3:48.600,82296,(,0,0,2
3:48.756,82352,t,0,0,0
3:48.869,82393,),0,0,2
3:48.969,82429,(,0,0,1
3:49.069,82465,N,0,0,0
3:49.119,82483,),0,0,1
3:49.203,82513,(,0,0,2
3:49.258,82533,t,0,0,1
3:49.408,82587,),0,0,2
3:49.814,82733,(,0,0,0
3:49.867,82752,p,0,0,0
3:49.958,82785,),0,0,0
3:50.036,82813,(,0,0,1
3:50.108,82839,N,0,0,0
3:50.192,82869,),0,0,1
3:50.206,82874,t,0,0,2
3:50.414,82949,),0,0,2
3:50.431,82955,(,0,0,0
3:50.550,82998,p,0,0,0
3:50.558,83001,),0,0,0
3:50.686,83047,(,0,0,1
3:50.767,83076,N,0,0,0
3:50.828,83098,),0,0,1
3:50.922,83132,(,0,0,2
3:50.992,83157,t,0,0,1
3:51.208,83235,),0,0,2
3:51.783,83442,(,0,0,0
3:51.817,83454,p,0,0,0
3:51.900,83484,),0,0,0
3:51.961,83506,(,0,0,1
3:52.011,83524,N,0,0,0
3:52.042,83535,),0,0,1
3:52.128,83566,(,0,0,2
3:52.253,83611,t,0,0,0
3:52.492,83697,),0,0,2
3:52.614,83741,(,0,0,0
3:52.656,83756,p,0,0,0
3:52.772,83798,),0,0,0
3:52.889,83840,(,0,0,1
3:52.919,83851,N,0,0,0
3:52.994,83878,),0,0,1
3:53.014,83885,(,0,0,2
3:53.175,83943,t,0,0,5
3:53.381,84017,t,0,0,5
3:53.436,84037,),0,0,2
3:53.478,84052,(,0,0,0
3:53.514,84065,p,0,0,0
3:53.553,84079,),0,0,0
3:53.656,84116,(,0,0,1
3:53.725,84141,N,0,0,0
3:53.797,84167,),0,0,1
3:53.981,84233,(,0,0,2
3:54.089,84272,t,0,0,1
3:54.261,84334,),0,0,2
3:54.272,84338,(,0,0,0
3:54.364,84371,p,0,0,0
3:54.411,84388,),0,0,0
3:54.414,84389,(,0,0,1
3:54.517,84426,N,0,0,0
3:54.547,84437,),0,0,1
3:54.761,84514,(,0,0,2
3:54.961,84586,t,0,0,1
3:55.069,84625,),0,0,2
3:55.092,84633,(,0,0,0
3:55.189,84668,p,0,0,0
3:55.242,84687,),0,0,0
3:55.306,84710,(,0,0,1
3:55.333,84720,N,0,0,0
3:55.414,84749,),0,0,1
3:55.494,84778,(,0,0,2
3:55.603,84817,t,0,0,0
3:55.744,84868,),0,0,2
3:55.908,84927,(,0,0,1
3:56.025,84969,N,0,0,0
3:56.150,85014,),0,0,1
3:56.175,85023,(,0,0,2
3:56.286,85063,t,0,0,0
3:56.450,85122,),0,0,2
3:56.975,85311,(,0,0,0
3:57.069,85345,p,0,0,0
3:57.103,85357,),0,0,0
3:57.133,85368,(,0,0,1
3:57.228,85402,N,0,0,0
3:57.258,85413,),0,0,1
3:57.344,85444,(,0,0,2
3:57.431,85475,t,0,0,5
3:57.636,85549,t,0,0,5
3:57.664,85559,),0,0,2
3:57.764,85595,(,0,0,0
3:57.831,85619,p,0,0,0
3:57.889,85640,),0,0,0
3:57.964,85667,(,0,0,1
3:58.094,85714,N,0,0,0
3:58.122,85724,),0,0,1
3:58.239,85766,(,0,0,2
3:58.306,85790,t,0,0,0
3:58.525,85869,),0,0,2
3:58.697,85931,(,0,0,0
3:58.792,85965,p,0,0,0
3:58.850,85986,),0,0,0
3:58.881,85997,(,0,0,1
3:58.939,86018,N,0,0,0
3:59.022,86048,),0,0,1
3:59.144,86092,(,0,0,2
3:59.189,86108,t,0,0,5
3:59.364,86171,t,0,0,5
3:59.392,86181,),0,0,2
3:59.483,86214,(,0,0,0
3:59.517,86226,p,0,0,0
3:59.583,86250,),0,0,0
3:59.689,86288,(,0,0,1
3:59.722,86300,N,0,0,0
3:59.911,86368,),0,0,1
3:59.947,86381,(,0,0,2
3:59.992,86397,t,0,0,5
4:00.197,86471,t,0,0,5
4:00.247,86489,),0,0,2
4:00.392,86541,(,0,0,1
4:00.475,86571,N,0,0,0
4:00.547,86597,),0,0,1
4:00.758,86673,(,0,0,2
4:00.903,86725,t,0,0,1
4:01.042,86775,),0,0,2
4:01.125,86805,(,0,0,0
4:01.144,86812,p,0,0,0
4:01.175,86823,),0,0,0
4:01.200,86832,(,0,0,1
4:01.333,86880,N,0,0,0
4:01.533,86952,),0,0,1
4:01.611,86980,(,0,0,2
4:01.767,87036,t,0,0,1
4:01.892,87081,),0,0,2
4:01.914,87089,(,0,0,0
4:01.994,87118,p,0,0,0
4:02.028,87130,),0,0,0
4:02.106,87158,(,0,0,1
4:02.150,87174,N,0,0,0
4:02.283,87222,),0,0,1
4:02.336,87241,(,0,0,2
4:02.400,87264,t,0,0,5
4:02.761,87394,t,0,0,5
4:02.797,87407,),0,0,2
4:02.914,87449,(,0,0,0
4:02.942,87459,p,0,0,0
4:02.975,87471,),0,0,0
4:03.056,87500,(,0,0,1
4:03.136,87529,N,0,0,0
4:03.250,87570,),0,0,1
4:03.375,87615,(,0,0,2
4:03.403,87625,t,0,0,5
4:03.656,87716,t,0,0,5
4:03.728,87742,),0,0,2
4:03.808,87771,(,0,0,0
4:03.867,87792,p,0,0,0
4:03.908,87807,),0,0,0
4:04.008,87843,N,0,0,0
4:04.008,87843,(,0,0,1
4:04.131,87887,),0,0,1
4:04.267,87936,(,0,0,2
4:04.303,87949,t,0,0,0
4:04.342,87963,),0,0,2
4:04.739,88106,(,0,0,0
4:04.811,88132,p,0,0,0
4:04.886,88159,),0,0,0
4:04.947,88181,(,0,0,1
4:04.997,88199,N,0,0,0
4:05.161,88258,),0,0,1
4:05.286,88303,(,0,0,2
4:05.375,88335,t,0,0,0
4:05.508,88383,),0,0,2
4:05.858,88509,(,0,0,0
4:05.886,88519,p,0,0,0
4:05.950,88542,),0,0,0
4:05.997,88559,(,0,0,1
4:06.000,88560,N,0,0,0
4:06.194,88630,),0,0,1
4:06.228,88642,(,0,0,2
4:06.289,88664,t,0,0,0
4:06.517,88746,),0,0,2
4:06.617,88782,(,0,0,0
4:06.725,88821,p,0,0,0
4:06.794,88846,),0,0,0
4:06.844,88864,N,0,0,0
4:06.844,88864,(,0,0,1
4:06.939,88898,),0,0,1
4:07.025,88929,(,0,0,2
4:07.125,88965,t,0,0,0
4:07.347,89045,),0,0,2
4:07.478,89092,(,0,0,0
4:07.575,89127,p,0,0,0
4:07.633,89148,),0,0,0
4:07.647,89153,(,0,0,1
4:07.703,89173,N,0,0,0
4:07.783,89202,),0,0,1
4:08.053,89299,(,0,0,2
4:08.264,89375,t,0,0,1
4:08.364,89411,),0,0,2
4:08.431,89435,(,0,0,0
4:08.481,89453,p,0,0,0
4:08.539,89474,),0,0,0
4:08.561,89482,(,0,0,1
4:08.617,89502,N,0,0,0
4:08.725,89541,),0,0,1
4:08.858,89589,(,0,0,2
4:08.939,89618,t,0,0,5
4:09.253,89731,t,0,0,5
4:09.283,89742,),0,0,2
4:09.422,89792,(,0,0,0
4:09.483,89814,p,0,0,0
4:09.514,89825,),0,0,0
4:09.603,89857,N,0,0,0
4:09.606,89858,(,0,0,1
4:09.700,89892,),0,0,1
4:09.989,89996,(,0,0,2
4:10.119,90043,t,0,0,1
4:10.275,90099,),0,0,2
4:10.369,90133,(,0,0,0
4:10.406,90146,p,0,0,0
4:10.456,90164,),0,0,0
4:10.531,90191,(,0,0,1
4:10.614,90221,N,0,0,0
4:10.653,90235,),0,0,1
4:10.842,90303,(,0,0,2
4:10.875,90315,t,0,0,5
4:11.133,90408,t,0,0,5
4:11.158,90417,),0,0,2
4:11.225,90441,(,0,0,1
4:11.453,90523,N,0,0,0
4:11.483,90534,),0,0,1
4:11.511,90544,(,0,0,2
4:11.692,90609,t,0,0,0
4:11.956,90704,),0,0,2
4:12.347,90845,(,0,0,0
4:12.417,90870,p,0,0,0
4:12.453,90883,),0,0,0
4:12.517,90906,(,0,0,1
4:12.572,90926,N,0,0,0
4:12.700,90972,),0,0,1
4:12.869,91033,(,0,0,2
4:13.069,91105,t,0,0,1
4:13.136,91129,),0,0,2
4:13.147,91133,(,0,0,0
4:13.219,91159,p,0,0,0
4:13.283,91182,),0,0,0
4:13.314,91193,(,0,0,1
4:13.425,91233,N,0,0,0
4:13.453,91243,),0,0,1
4:13.625,91305,(,0,0,2
4:13.656,91316,t,0,0,5
4:13.786,91363,t,0,0,5
4:13.808,91371,),0,0,2
4:14.064,91463,(,0,0,0
4:14.094,91474,p,0,0,0
4:14.156,91496,),0,0,0
4:14.189,91508,(,0,0,1
4:14.283,91542,N,0,0,0
4:14.325,91557,),0,0,1
4:14.469,91609,(,0,0,2
4:14.486,91615,t,0,0,4
4:14.531,91631,t,0,0,4
4:14.681,91685,),0,0,2
4:14.917,91770,(,0,0,0
4:14.986,91795,p,0,0,0
4:15.047,91817,),0,0,0
4:15.119,91843,(,0,0,1
4:15.211,91876,N,0,0,0
4:15.278,91900,),0,0,1
4:15.439,91958,(,0,0,2
4:15.475,91971,t,0,0,5
4:15.806,92090,t,0,0,5
4:15.839,92102,),0,0,2
4:15.864,92111,(,0,0,0
4:15.889,92120,p,0,0,0
4:15.917,92130,),0,0,0
4:16.103,92197,(,0,0,1
4:16.147,92213,N,0,0,0
4:16.242,92247,),0,0,1
4:16.531,92351,(,0,0,2
4:16.653,92395,t,0,0,1
4:16.808,92451,),0,0,2
4:17.033,92532,(,0,0,1
4:17.133,92568,N,0,0,0
4:17.222,92600,),0,0,1
4:17.317,92634,(,0,0,2
4:17.350,92646,t,0,0,5
4:17.700,92772,t,0,0,5
4:17.747,92789,),0,0,2
4:17.775,92799,(,0,0,0
4:17.847,92825,p,0,0,0
4:17.911,92848,),0,0,0
4:17.914,92849,(,0,0,1
4:18.044,92896,N,0,0,0
4:18.117,92922,),0,0,1
4:18.231,92963,(,0,0,2
4:18.297,92987,t,0,0,0
4:18.339,93002,),0,0,2
4:18.581,93089,(,0,0,0
4:18.611,93100,p,0,0,0
4:18.644,93112,),0,0,0
4:18.764,93155,(,0,0,1
4:18.861,93190,N,0,0,0
4:18.889,93200,),0,0,1
4:19.450,93402,(,0,0,0
4:19.506,93422,p,0,0,0
4:19.564,93443,),0,0,0
4:19.592,93453,(,0,0,1
4:19.683,93486,N,0,0,0
4:19.711,93496,),0,0,1
4:19.878,93556,(,0,0,2
4:19.917,93570,t,0,0,5
4:20.147,93653,t,0,0,5
4:20.200,93672,),0,0,2
4:20.211,93676,(,0,0,0
4:20.308,93711,p,0,0,0
4:20.375,93735,),0,0,0
4:20.394,93742,(,0,0,1
4:20.492,93777,N,0,0,0
4:20.558,93801,),0,0,1
4:20.692,93849,(,0,0,2
4:20.731,93863,t,0,0,0
4:20.856,93908,),0,0,2
4:21.008,93963,(,0,0,0
4:21.072,93986,p,0,0,0
4:21.111,94000,),0,0,0
4:21.222,94040,(,0,0,1
4:21.353,94087,N,0,0,0
4:21.383,94098,),0,0,1
4:21.533,94152,(,0,0,2
4:21.575,94167,t,0,0,5
4:21.814,94253,t,0,0,5
4:21.836,94261,),0,0,2
4:21.975,94311,(,0,0,0
4:22.036,94333,p,0,0,0
4:22.100,94356,),0,0,0
4:22.164,94379,(,0,0,1
4:22.186,94387,N,0,0,0
4:22.325,94437,),0,0,1
4:22.400,94464,(,0,0,2
4:22.486,94495,t,0,0,5
4:22.731,94583,t,0,0,5
4:22.794,94606,),0,0,2
4:22.833,94620,(,0,0,0
4:22.889,94640,p,0,0,0
4:22.939,94658,),0,0,0
4:22.994,94678,(,0,0,1
4:23.072,94706,N,0,0,0
4:23.267,94776,),0,0,1
4:23.331,94799,(,0,0,2
4:23.419,94831,t,0,0,1
4:23.439,94838,),0,0,2
4:23.567,94884,(,0,0,0
4:23.608,94899,p,0,0,0
4:23.642,94911,),0,0,0
4:23.778,94960,(,0,0,1
4:23.825,94977,N,0,0,0
4:23.903,95005,),0,0,1
4:24.044,95056,(,0,0,2
4:24.083,95070,t,0,0,5
4:24.331,95159,t,0,0,5
4:24.389,95180,),0,0,2
4:24.422,95192,(,0,0,0
4:24.514,95225,p,0,0,0
4:24.558,95241,),0,0,0
4:24.589,95252,(,0,0,1
4:24.664,95279,N,0,0,0
4:24.694,95290,),0,0,1
4:24.822,95336,(,0,0,2
4:24.911,95368,t,0,0,5
4:25.125,95445,t,0,0,5
4:25.200,95472,),0,0,2
4:25.211,95476,(,0,0,0
4:25.314,95513,p,0,0,0
4:25.369,95533,),0,0,0
4:25.411,95548,(,0,0,1
4:25.489,95576,N,0,0,0
4:25.519,95587,),0,0,1
4:25.600,95616,(,0,0,2
4:25.736,95665,t,0,0,0
4:25.867,95712,),0,0,2
4:25.922,95732,(,0,0,0
4:25.975,95751,p,0,0,0
4:26.025,95769,),0,0,0
4:26.047,95777,(,0,0,1
4:26.144,95812,N,0,0,0
4:26.264,95855,),0,0,1
4:26.278,95860,(,0,0,2
4:26.394,95902,t,0,0,5
4:26.639,95990,t,0,0,5
4:26.686,96007,),0,0,2
4:27.036,96133,(,0,0,0
4:27.069,96145,p,0,0,0
4:27.111,96160,),0,0,0
4:27.150,96174,(,0,0,1
4:27.247,96209,N,0,0,0
4:27.342,96243,),0,0,1
4:27.433,96276,(,0,0,2
4:27.450,96282,t,0,0,4
4:27.497,96299,t,0,0,4
4:27.586,96331,),0,0,2
4:27.831,96419,(,0,0,0
4:27.922,96452,p,0,0,0
4:28.000,96480,),0,0,0
4:28.031,96491,(,0,0,1
4:28.103,96517,N,0,0,0
4:28.164,96539,),0,0,1
4:28.350,96606,(,0,0,2
4:28.539,96674,t,0,0,1
4:28.564,96683,),0,0,2
4:28.603,96697,(,0,0,0
4:28.647,96713,p,0,0,0
4:28.722,96740,),0,0,0
4:28.814,96773,(,0,0,1
4:28.864,96791,N,0,0,0
4:28.942,96819,),0,0,1
4:29.408,96987,(,0,0,0
4:29.461,97006,p,0,0,0
4:29.494,97018,),0,0,0
4:29.606,97058,(,0,0,1
4:29.706,97094,N,0,0,0
4:29.731,97103,),0,0,1
4:29.811,97132,(,0,0,2
4:29.897,97163,t,0,0,0
4:30.028,97210,),0,0,2
4:30.194,97270,(,0,0,0
4:30.247,97289,p,0,0,0
4:30.322,97316,),0,0,0
4:30.414,97349,(,0,0,1
4:30.467,97368,N,0,0,0
4:30.542,97395,),0,0,1
4:30.717,97458,(,0,0,2
4:30.742,97467,t,0,0,5
4:30.978,97552,t,0,0,5
4:31.047,97577,),0,0,2
4:31.075,97587,(,0,0,0
4:31.139,97610,p,0,0,0
4:31.214,97637,),0,0,0
4:31.225,97641,(,0,0,1
4:31.322,97676,N,0,0,0
4:31.419,97711,),0,0,1
4:31.503,97741,(,0,0,2
4:31.556,97760,t,0,0,0
4:31.672,97802,),0,0,2
4:31.933,97896,(,0,0,0
4:32.008,97923,p,0,0,0
4:32.036,97933,),0,0,0
4:32.069,97945,(,0,0,1
4:32.103,97957,N,0,0,0
4:32.294,98026,),0,0,1
4:32.361,98050,(,0,0,2
4:32.408,98067,t,0,0,0
4:32.519,98107,),0,0,2
4:32.781,98201,(,0,0,0
4:32.903,98245,p,0,0,0
4:32.950,98262,),0,0,0
4:33.003,98281,(,0,0,1
4:33.047,98297,N,0,0,0
4:33.083,98310,),0,0,1
4:33.167,98340,(,0,0,2
4:33.314,98393,t,0,0,0
4:33.433,98436,),0,0,2
4:33.625,98505,(,0,0,0
4:33.722,98540,p,0,0,0
4:33.758,98553,),0,0,0
4:33.775,98559,(,0,0,1
4:33.878,98596,N,0,0,0
4:33.906,98606,),0,0,1
4:34.136,98689,(,0,0,2
4:34.322,98756,t,0,0,1
4:34.431,98795,),0,0,2
4:34.625,98865,(,0,0,1
4:34.714,98897,N,0,0,0
4:34.756,98912,),0,0,1
4:35.017,99006,(,0,0,2
4:35.156,99056,t,0,0,1
4:35.300,99108,),0,0,2
4:35.314,99113,(,0,0,0
4:35.394,99142,p,0,0,0
4:35.433,99156,),0,0,0
4:35.450,99162,(,0,0,1
4:35.553,99199,N,0,0,0
4:35.581,99209,),0,0,1
4:35.661,99238,(,0,0,2
4:35.675,99243,t,0,0,1
4:35.747,99269,),0,0,2
4:36.842,99663,(,0,0,1
4:36.936,99697,N,0,0,0
4:37.056,99740,),0,0,1
4:37.114,99761,(,0,0,2
4:37.158,99777,t,0,0,5
4:37.578,99928,t,0,0,5
4:37.611,99940,),0,0,2
4:38.425   100233,(,0,0,0
4:38.458   100245,p,0,0,0
4:38.492   100257,),0,0,0
4:38.536   100273,(,0,0,1
4:38.625   100305,N,0,0,0
4:38.681   100325,),0,0,1
4:38.908   100407,(,0,0,2
4:39.061   100462,t,0,0,0
4:39.200   100512,),0,0,2
4:53.367   105612,(,0,0,1
4:53.478   105652,N,0,0,0
4:53.528   105670,),0,0,1
4:53.611   105700,(,0,0,2
4:53.672   105722,t,0,0,4
4:54.158   105897,t,0,0,4
4:54.233   105924,),0,0,2
5:04.436   109597,(,0,0,1
5:04.517   109626,N,0,0,0
5:04.567   109644,),0,0,1
5:04.642   109671,(,0,0,2
5:04.717   109698,t,0,0,4
5:05.019   109807,t,0,0,4
5:05.042   109815,),0,0,2
5:06.003   110161,(,0,0,1
5:06.075   110187,N,0,0,0
5:06.122   110204,),0,0,1
5:06.208   110235,(,0,0,2
5:06.253   110251,t,0,0,4
5:06.836   110461,t,0,0,4
5:06.944   110500,),0,0,2
5:42.950   123462,(,0,0,1
5:43.053   123499,N,0,0,0
5:43.103   123517,),0,0,1
5:43.217   123558,(,0,0,2
5:43.256   123572,t,0,0,4
5:43.831   123779,t,0,0,4
5:43.864   123791,),0,0,2
5:44.600   124056,(,0,0,1
5:44.719   124099,N,0,0,0
5:44.775   124119,),0,0,1
5:44.861   124150,(,0,0,2
5:44.906   124166,t,0,0,1
5:45.069   124225,),0,0,2
5:46.031   124571,(,0,0,0
5:46.089   124592,p,0,0,0
5:46.144   124612,),0,0,0
5:46.292   124665,(,0,0,1
5:46.408   124707,N,0,0,0
5:46.503   124741,),0,0,1
5:46.664   124799,(,0,0,2
5:46.756   124832,t,0,0,0
5:46.789   124844,),0,0,2
5:47.575   125127,(,0,0,0
5:47.667   125160,p,0,0,0
5:47.750   125190,),0,0,0
5:47.839   125222,(,0,0,1
5:47.967   125268,N,0,0,0
5:48.017   125286,),0,0,1
5:48.089   125312,(,0,0,2
5:48.158   125337,t,0,0,4
5:48.717   125538,t,0,0,4
5:48.758   125553,),0,0,2
5:49.428   125794,(,0,0,1
5:49.519   125827,N,0,0,0
5:49.567   125844,),0,0,1
5:49.764   125915,(,0,0,2
5:50.022   126008,t,0,0,0
5:50.231   126083,),0,0,2
5:50.808   126291,(,0,0,0
5:50.842   126303,p,0,0,0
5:50.950   126342,),0,0,0
5:51.111   126400,(,0,0,1
5:51.189   126428,N,0,0,0
5:51.242   126447,),0,0,1
5:51.333   126480,(,0,0,2
5:51.383   126498,t,0,0,4
5:51.631   126587,t,0,0,4
5:51.650   126594,),0,0,2
5:52.869   127033,(,0,0,1
5:52.950   127062,N,0,0,0
5:53.028   127090,),0,0,1
5:53.119   127123,(,0,0,2
5:53.150   127134,t,0,0,4
5:53.725   127341,t,0,0,4
5:53.775   127359,),0,0,2
5:54.422   127592,(,0,0,1
5:54.489   127616,N,0,0,0
5:54.533   127632,),0,0,1
5:54.689   127688,(,0,0,2
5:55.044   127816,t,0,0,0
5:55.250   127890,),0,0,2
5:56.069   128185,(,0,0,1
5:56.147   128213,N,0,0,0
5:56.233   128244,),0,0,1
5:56.306   128270,(,0,0,2
5:56.336   128281,t,0,0,4
5:56.944   128500,t,0,0,4
5:56.969   128509,),0,0,2
5:58.233   128964,(,0,0,1
5:58.317   128994,N,0,0,0
5:58.431   129035,),0,0,1
5:58.467   129048,(,0,0,2
5:58.514   129065,t,0,0,4
5:58.769   129157,t,0,0,4
5:58.792   129165,),0,0,2
5:59.958   129585,(,0,0,1
6:00.025   129609,N,0,0,0
6:00.094   129634,),0,0,1
6:00.228   129682,(,0,0,2
6:00.600   129816,t,0,0,0
6:00.836   129901,),0,0,2
6:01.675   130203,(,0,0,1
6:01.775   130239,N,0,0,0
6:01.839   130262,),0,0,1
6:02.111   130360,(,0,0,2
6:02.364   130451,t,0,0,0
6:02.497   130499,),0,0,2
6:04.125   131085,(,0,0,1
6:04.214   131117,N,0,0,0
6:04.267   131136,),0,0,1
6:04.383   131178,(,0,0,2
6:04.428   131194,t,0,0,1
6:04.606   131258,),0,0,2
6:05.864   131711,(,0,0,1
6:05.936   131737,N,0,0,0
6:05.981   131753,),0,0,1
6:06.019   131767,(,0,0,2
6:06.053   131779,t,0,0,4
6:06.600   131976,t,0,0,4
6:06.628   131986,),0,0,2
6:07.436   132277,(,0,0,1
6:07.517   132306,N,0,0,0
6:07.572   132326,),0,0,1
6:07.714   132377,(,0,0,2
6:07.736   132385,t,0,0,4
6:08.153   132535,t,0,0,4
6:08.181   132545,),0,0,2
6:09.339   132962,(,0,0,1
6:09.461   133006,N,0,0,0
6:09.583   133050,),0,0,1
6:09.844   133144,(,0,0,2
6:09.953   133183,t,0,0,0
6:09.981   133193,),0,0,2
6:11.344   133684,(,0,0,1
6:11.447   133721,N,0,0,0
6:11.500   133740,),0,0,1
6:11.531   133751,(,0,0,2
6:11.569   133765,t,0,0,4
6:11.947   133901,t,0,0,4
6:11.983   133914,),0,0,2
6:13.097   134315,(,0,0,1
6:13.175   134343,N,0,0,0
6:13.286   134383,),0,0,1
6:13.331   134399,(,0,0,2
6:13.361   134410,t,0,0,4
6:13.919   134611,t,0,0,4
6:13.950   134622,),0,0,2
6:14.894   134962,(,0,0,1
6:14.981   134993,N,0,0,0
6:15.036   135013,),0,0,1
6:15.278   135100,(,0,0,2
6:15.531   135191,t,0,0,0
6:15.644   135232,),0,0,2
6:16.936   135697,(,0,0,1
6:17.028   135730,N,0,0,0
6:17.094   135754,),0,0,1
6:17.183   135786,(,0,0,2
6:17.211   135796,t,0,0,4
6:17.578   135928,t,0,0,4
6:17.606   135938,),0,0,2
6:18.636   136309,(,0,0,1
6:18.708   136335,N,0,0,0
6:18.814   136373,),0,0,1
6:18.964   136427,(,0,0,2
6:19.219   136519,t,0,0,0
6:19.403   136585,),0,0,2
6:20.289   136904,(,0,0,1
6:20.392   136941,N,0,0,0
6:20.439   136958,),0,0,1
6:20.953   137143,(,0,0,2
6:20.975   137151,t,0,0,1
6:21.003   137161,),0,0,2
6:22.144   137572,(,0,0,1
6:22.250   137610,N,0,0,0
6:22.353   137647,),0,0,1
6:22.503   137701,(,0,0,2
6:22.533   137712,t,0,0,4
6:22.803   137809,t,0,0,4
6:22.831   137819,),0,0,2
6:24.075   138267,(,0,0,1
6:24.142   138291,N,0,0,0
6:24.222   138320,),0,0,1
6:24.322   138356,(,0,0,2
6:24.344   138364,t,0,0,4
6:24.758   138513,t,0,0,4
6:24.794   138526,),0,0,2
6:25.653   138835,(,0,0,1
6:25.731   138863,N,0,0,0
6:25.783   138882,),0,0,1
6:25.831   138899,(,0,0,2
6:25.947   138941,t,0,0,4
6:26.447   139121,t,0,0,4
6:26.481   139133,),0,0,2
6:27.319   139435,(,0,0,1
6:27.431   139475,N,0,0,0
6:27.483   139494,),0,0,1
6:27.594   139534,(,0,0,2
6:27.639   139550,t,0,0,4
6:28.061   139702,t,0,0,4
6:28.092   139713,),0,0,2
6:29.189   140108,(,0,0,1
6:29.292   140145,N,0,0,0
6:29.344   140164,),0,0,1
6:29.397   140183,(,0,0,2
6:29.439   140198,t,0,0,4
6:29.842   140343,t,0,0,4
6:29.894   140362,),0,0,2
6:30.794   140686,(,0,0,1
6:30.867   140712,N,0,0,0
6:30.917   140730,),0,0,1
6:31.006   140762,(,0,0,2
6:31.056   140780,t,0,0,1
6:31.231   140843,),0,0,2
6:32.492   141297,(,0,0,1
6:32.569   141325,N,0,0,0
6:32.622   141344,),0,0,1
6:32.731   141383,(,0,0,2
6:32.786   141403,t,0,0,4
6:33.114   141521,t,0,0,4
6:33.164   141539,),0,0,2
6:34.269   141937,(,0,0,1
6:34.347   141965,N,0,0,0
6:34.394   141982,),0,0,1
6:34.475   142011,(,0,0,2
6:34.553   142039,t,0,0,4
6:34.778   142120,t,0,0,4
6:34.797   142127,),0,0,2
6:35.978   142552,(,0,0,1
6:36.053   142579,N,0,0,0
6:36.097   142595,),0,0,1
6:36.181   142625,(,0,0,2
6:36.272   142658,t,0,0,4
6:36.825   142857,t,0,0,4
6:36.922   142892,),0,0,2
6:37.583   143130,(,0,0,1
6:37.681   143165,N,0,0,0
6:37.733   143184,),0,0,1
6:37.850   143226,(,0,0,2
6:37.908   143247,t,0,0,4
6:38.278   143380,t,0,0,4
6:38.350   143406,),0,0,2
6:39.356   143768,(,0,0,1
6:39.428   143794,N,0,0,0
6:39.475   143811,),0,0,1
6:39.569   143845,(,0,0,2
6:39.608   143859,t,0,0,4
6:40.056   144020,t,0,0,4
6:40.103   144037,),0,0,2
6:41.108   144399,(,0,0,1
6:41.197   144431,N,0,0,0
6:41.253   144451,),0,0,1
6:41.353   144487,(,0,0,2
6:41.417   144510,t,0,0,4
6:41.886   144679,t,0,0,4
6:41.917   144690,),0,0,2
6:42.786   145003,(,0,0,1
6:42.856   145028,N,0,0,0
6:42.900   145044,),0,0,1
6:42.989   145076,(,0,0,2
6:43.033   145092,t,0,0,4
6:43.314   145193,t,0,0,4
6:43.456   145244,),0,0,2
6:44.439   145598,(,0,0,1
6:44.519   145627,N,0,0,0
6:44.572   145646,),0,0,1
6:44.578   145648,(,0,0,2
6:44.642   145671,t,0,0,4
6:45.119   145843,t,0,0,4
6:45.164   145859,),0,0,2
6:46.144   146212,(,0,0,1
6:46.222   146240,N,0,0,0
6:46.275   146259,),0,0,1
6:46.319   146275,(,0,0,2
6:46.389   146300,t,0,0,1
6:46.606   146378,),0,0,2
6:47.897   146843,(,0,0,1
6:47.972   146870,N,0,0,0
6:48.019   146887,),0,0,1
6:48.056   146900,(,0,0,2
6:48.142   146931,t,0,0,4
6:48.756   147152,t,0,0,4
6:48.831   147179,),0,0,2
6:49.461   147406,(,0,0,1
6:49.536   147433,N,0,0,0
6:49.586   147451,),0,0,1
6:49.592   147453,(,0,0,2
6:49.722   147500,t,0,0,1
6:49.903   147565,),0,0,2
6:51.194   148030,(,0,0,1
6:51.311   148072,N,0,0,0
6:51.367   148092,),0,0,1
6:51.419   148111,(,0,0,2
6:51.531   148151,t,0,0,1
6:51.697   148211,),0,0,2
6:52.911   148648,(,0,0,1
6:52.983   148674,N,0,0,0
6:53.033   148692,),0,0,1
6:53.106   148718,(,0,0,2
6:53.178   148744,t,0,0,1
6:53.358   148809,),0,0,2
6:54.533   149232,(,0,0,1
6:54.606   149258,N,0,0,0
6:54.656   149276,),0,0,1
6:54.731   149303,(,0,0,2
6:54.794   149326,t,0,0,4
6:55.375   149535,t,0,0,4
6:55.450   149562,),0,0,2
6:56.167   149820,(,0,0,1
6:56.242   149847,N,0,0,0
6:56.292   149865,),0,0,1
6:56.375   149895,(,0,0,2
6:56.456   149924,t,0,0,4
6:56.917   150090,t,0,0,4
6:56.947   150101,),0,0,2
6:57.853   150427,(,0,0,1
6:57.928   150454,N,0,0,0
6:57.978   150472,),0,0,1
6:58.069   150505,(,0,0,2
6:58.119   150523,t,0,0,4
6:58.561   150682,t,0,0,4
6:58.589   150692,),0,0,2
6:59.642   151071,(,0,0,1
6:59.725   151101,N,0,0,0
6:59.783   151122,),0,0,1
6:59.811   151132,(,0,0,2
6:59.900   151164,t,0,0,1
7:00.103   151237,),0,0,2
7:01.339   151682,(,0,0,1
7:01.408   151707,N,0,0,0
7:01.456   151724,),0,0,1
7:01.547   151757,(,0,0,2
7:01.586   151771,t,0,0,1
7:01.783   151842,),0,0,2
7:03.039   152294,(,0,0,1
7:03.125   152325,N,0,0,0
7:03.181   152345,),0,0,1
7:03.222   152360,(,0,0,2
7:03.281   152381,t,0,0,1
7:03.514   152465,),0,0,2
7:04.894   152962,(,0,0,1
7:04.981   152993,N,0,0,0
7:05.033   153012,),0,0,1
7:05.117   153042,(,0,0,2
7:05.200   153072,t,0,0,1
7:05.375   153135,),0,0,2
7:06.628   153586,(,0,0,1
7:06.700   153612,N,0,0,0
7:06.750   153630,),0,0,1
7:06.828   153658,(,0,0,2
7:06.872   153674,t,0,0,4
7:07.469   153889,t,0,0,4
7:07.564   153923,),0,0,2
7:08.236   154165,(,0,0,1
7:08.317   154194,N,0,0,0
7:08.378   154216,),0,0,1
7:08.383   154218,(,0,0,2
7:08.519   154267,t,0,0,1
7:08.717   154338,),0,0,2
7:10.111   154840,(,0,0,1
7:10.192   154869,N,0,0,0
7:10.244   154888,),0,0,1
7:10.342   154923,(,0,0,2
7:10.408   154947,t,0,0,4
7:10.953   155143,t,0,0,4
7:10.997   155159,),0,0,2
7:21.497   158939,(,0,0,1
7:21.581   158969,N,0,0,0
7:21.636   158989,),0,0,1
7:21.675   159003,(,0,0,2
7:21.753   159031,t,0,0,4
7:22.317   159234,t,0,0,4
7:22.350   159246,),0,0,2
7:23.189   159548,(,0,0,1
7:23.258   159573,N,0,0,0
7:23.311   159592,),0,0,1
7:23.336   159601,(,0,0,2
7:23.419   159631,t,0,0,1
7:23.597   159695,),0,0,2
7:28.325   161397,(,0,0,1
7:28.400   161424,N,0,0,0
7:28.456   161444,),0,0,1
7:28.489   161456,(,0,0,2
7:28.603   161497,t,0,0,4
7:29.078   161668,t,0,0,4
7:29.106   161678,),0,0,2
7:33.406   163226,(,0,0,1
7:33.497   163259,N,0,0,0
7:33.550   163278,),0,0,1
7:33.592   163293,(,0,0,2
7:33.675   163323,t,0,0,1
7:33.850   163386,),0,0,2
7:44.392   167181,(,0,0,1
7:44.467   167208,N,0,0,0
7:44.519   167227,),0,0,1
7:44.525   167229,(,0,0,2
7:44.589   167252,t,0,0,4
7:45.253   167491,t,0,0,4
7:45.281   167501,),0,0,2
7:50.300   169308,(,0,0,1
7:50.378   169336,N,0,0,0
7:50.433   169356,),0,0,1
7:50.653   169435,(,0,0,2
7:50.936   169537,t,0,0,0
7:51.183   169626,),0,0,2
8:05.961   174946,(,0,0,1
8:06.042   174975,N,0,0,0
8:06.092   174993,),0,0,1
8:06.136   175009,(,0,0,2
8:06.200   175032,t,0,0,4
8:06.750   175230,t,0,0,4
8:06.775   175239,),0,0,2
8:07.822   175616,(,0,0,1
8:07.897   175643,N,0,0,0
8:07.944   175660,),0,0,1
8:07.992   175677,(,0,0,2
8:08.075   175707,t,0,0,1
8:08.267   175776,),0,0,2
8:09.664   176279,(,0,0,1
8:09.761   176314,N,0,0,0
8:09.811   176332,),0,0,1
8:09.850   176346,(,0,0,2
8:09.922   176372,t,0,0,1
8:10.142   176451,),0,0,2
8:11.500   176940,(,0,0,1
8:11.581   176969,N,0,0,0
8:11.633   176988,),0,0,1
8:11.664   176999,(,0,0,2
8:11.722   177020,t,0,0,4
8:12.058   177141,t,0,0,4
8:12.089   177152,),0,0,2
8:13.303   177589,(,0,0,1
8:13.392   177621,N,0,0,0
8:13.447   177641,),0,0,1
8:13.483   177654,(,0,0,2
8:13.536   177673,t,0,0,4
8:14.150   177894,t,0,0,4
8:14.186   177907,),0,0,2
8:15.378   178336,(,0,0,1
8:15.475   178371,N,0,0,0
8:15.536   178393,),0,0,1
8:15.692   178449,(,0,0,2
8:15.728   178462,t,0,0,4
8:16.053   178579,t,0,0,4
8:16.075   178587,),0,0,2
8:17.442   179079,(,0,0,1
8:17.517   179106,N,0,0,0
8:17.564   179123,),0,0,1
8:17.569   179125,(,0,0,2
8:17.714   179177,t,0,0,1
8:17.867   179232,),0,0,2
8:19.086   179671,(,0,0,1
8:19.167   179700,N,0,0,0
8:19.217   179718,),0,0,1
8:19.275   179739,(,0,0,2
8:19.331   179759,t,0,0,4
8:19.744   179908,t,0,0,4
8:19.778   179920,),0,0,2
8:21.125   180405,(,0,0,1
8:21.200   180432,N,0,0,0
8:21.250   180450,),0,0,1
8:21.281   180461,(,0,0,2
8:21.322   180476,t,0,0,4
8:21.942   180699,t,0,0,4
8:21.997   180719,),0,0,2
8:23.019   181087,(,0,0,1
8:23.097   181115,N,0,0,0
8:23.147   181133,),0,0,1
8:23.183   181146,(,0,0,2
8:23.267   181176,t,0,0,1
8:23.489   181256,),0,0,2
8:24.361   181570,(,0,0,0
8:24.428   181594,p,0,0,0
8:24.500   181620,),0,0,0
8:24.658   181677,(,0,0,1
8:24.731   181703,N,0,0,0
8:24.783   181722,),0,0,1
8:24.825   181737,(,0,0,2
8:24.875   181755,t,0,0,4
8:25.258   181893,t,0,0,4
8:25.286   181903,),0,0,2
8:26.686   182407,(,0,0,1
8:26.778   182440,N,0,0,0
8:26.839   182462,),0,0,1
8:26.878   182476,(,0,0,2
8:26.989   182516,t,0,0,1
8:27.231   182603,),0,0,2
8:28.600   183096,(,0,0,1
8:28.694   183130,N,0,0,0
8:28.750   183150,),0,0,1
8:28.817   183174,(,0,0,2
8:28.906   183206,t,0,0,4
8:29.194   183310,t,0,0,4
8:29.225   183321,),0,0,2
8:30.233   183684,(,0,0,1
8:30.319   183715,N,0,0,0
8:30.369   183733,),0,0,1
8:30.406   183746,(,0,0,2
8:30.461   183766,t,0,0,4
8:30.875   183915,t,0,0,4
8:30.906   183926,),0,0,2
8:32.011   184324,(,0,0,1
8:32.100   184356,N,0,0,0
8:32.156   184376,),0,0,1
8:32.186   184387,(,0,0,2
8:32.264   184415,t,0,0,4
8:32.681   184565,t,0,0,4
8:32.717   184578,),0,0,2
8:33.958   185025,(,0,0,1
8:34.036   185053,N,0,0,0
8:34.086   185071,),0,0,1
8:34.122   185084,(,0,0,2
8:34.211   185116,t,0,0,1
8:34.403   185185,),0,0,2
8:35.756   185672,(,0,0,1
8:35.828   185698,N,0,0,0
8:35.875   185715,),0,0,1
8:35.922   185732,(,0,0,2
8:36.006   185762,t,0,0,1
8:36.178   185824,),0,0,2
8:37.406   186266,(,0,0,1
8:37.478   186292,N,0,0,0
8:37.525   186309,),0,0,1
8:37.617   186342,(,0,0,2
8:37.683   186366,t,0,0,4
8:38.056   186500,t,0,0,4
8:38.078   186508,),0,0,2
8:39.283   186942,(,0,0,1
8:39.361   186970,N,0,0,0
8:39.411   186988,),0,0,1
8:39.417   186990,(,0,0,2
8:39.567   187044,t,0,0,4
8:39.839   187142,t,0,0,4
8:39.864   187151,),0,0,2
8:41.067   187584,(,0,0,1
8:41.147   187613,N,0,0,0
8:41.200   187632,),0,0,1
8:41.228   187642,(,0,0,2
8:41.319   187675,t,0,0,1
8:41.514   187745,),0,0,2
8:42.708   188175,(,0,0,1
8:42.775   188199,N,0,0,0
8:42.822   188216,),0,0,1
8:42.864   188231,(,0,0,2
8:42.961   188266,t,0,0,4
8:43.231   188363,t,0,0,4
8:43.256   188372,),0,0,2
8:53.836   192181,(,0,0,0
8:53.917   192210,p,0,0,0
8:54.003   192241,),0,0,0
8:54.131   192287,(,0,0,1
8:54.222   192320,N,0,0,0
8:54.272   192338,),0,0,1
8:54.297   192347,(,0,0,2
8:54.353   192367,t,0,0,1
8:54.561   192442,),0,0,2
9:05.339   196322,(,0,0,1
9:05.411   196348,N,0,0,0
9:05.456   196364,),0,0,1
9:05.481   196373,(,0,0,2
9:05.586   196411,t,0,0,4
9:05.969   196549,t,0,0,4
9:05.997   196559,),0,0,2
9:11.814   198653,(,0,0,1
9:11.906   198686,N,0,0,0
9:11.944   198700,),0,0,1
9:12.175   198783,(,0,0,2
9:12.439   198878,t,0,0,1
9:12.711   198976,),0,0,2
9:20.428   201754,(,0,0,1
9:20.497   201779,N,0,0,0
9:20.536   201793,),0,0,1
9:20.625   201825,(,0,0,2
9:20.656   201836,t,0,0,5
9:21.178   202024,t,0,0,5
9:21.278   202060,),0,0,2
9:25.639   203630,(,0,0,1
9:25.739   203666,N,0,0,0
9:25.786   203683,),0,0,1
9:26.017   203766,(,0,0,2
9:26.286   203863,t,0,0,1
9:26.506   203942,),0,0,2
9:28.333   204600,(,0,0,1
9:28.408   204627,N,0,0,0
9:28.472   204650,),0,0,1
9:28.625   204705,(,0,0,2
9:28.689   204728,t,0,0,5
9:29.192   204909,t,0,0,5
9:29.247   204929,),0,0,2
9:35.942   207339,(,0,0,1
9:36.006   207362,N,0,0,0
9:36.044   207376,),0,0,1
9:36.150   207414,(,0,0,2
9:36.200   207432,t,0,0,5
9:36.442   207519,t,0,0,5
9:36.467   207528,),0,0,2
9:36.675   207603,(,0,0,1
9:36.764   207635,N,0,0,0
9:36.808   207651,),0,0,1
9:37.258   207813,(,0,0,2
9:37.319   207835,t,0,0,0
9:37.378   207856,),0,0,2
9:40.028   208810,(,0,0,1
9:40.142   208851,N,0,0,0
9:40.219   208879,),0,0,1
9:40.386   208939,(,0,0,2
9:40.417   208950,t,0,0,5
9:40.867   209112,t,0,0,5
9:40.969   209149,),0,0,2
9:41.839   209462,(,0,0,1
9:41.914   209489,N,0,0,0
9:42.008   209523,),0,0,1
9:42.186   209587,(,0,0,2
9:42.222   209600,t,0,0,4
9:42.689   209768,t,0,0,4
9:42.725   209781,),0,0,2
9:45.928   210934,(,0,0,1
9:46.028   210970,N,0,0,0
9:46.106   210998,),0,0,1
9:46.525   211149,(,0,0,2
9:46.589   211172,t,0,0,0
9:46.650   211194,),0,0,2
9:51.975   213111,(,0,0,1
9:52.039   213134,N,0,0,0
9:52.067   213144,),0,0,1
9:52.319   213235,(,0,0,2
9:52.625   213345,t,0,0,1
9:52.822   213416,),0,0,2
9:55.231   214283,(,0,0,1
9:55.292   214305,N,0,0,0
9:55.356   214328,),0,0,1
9:55.561   214402,(,0,0,2
9:55.864   214511,t,0,0,1
9:56.108   214599,),0,0,2
9:57.747   215189,(,0,0,1
9:57.864   215231,N,0,0,0
9:57.906   215246,),0,0,1
9:58.022   215288,(,0,0,2
9:58.114   215321,t,0,0,5
9:58.328   215398,t,0,0,5
9:58.344   215404,),0,0,2
9:58.592   215493,(,0,0,1
9:58.683   215526,N,0,0,0
9:58.747   215549,),0,0,1
9:58.947   215621,(,0,0,2
9:59.061   215662,t,0,0,1
9:59.086   215671,),0,0,2
9:59.503   215821,(,0,0,1
9:59.564   215843,N,0,0,0
9:59.636   215869,),0,0,1
9:59.831   215939,(,0,0,2
   10:00.175   216063,t,0,0,1
   10:00.392   216141,),0,0,2
   10:01.086   216391,(,0,0,1
   10:01.183   216426,N,0,0,0
   10:01.247   216449,),0,0,1
   10:01.742   216627,(,0,0,2
   10:01.789   216644,t,0,0,4
   10:01.986   216715,t,0,0,4
   10:02.028   216730,),0,0,2
   10:07.022   218528,(,0,0,1
   10:07.125   218565,N,0,0,0
   10:07.150   218574,),0,0,1
   10:07.586   218731,(,0,0,2
   10:07.642   218751,t,0,0,0
   10:07.706   218774,),0,0,2
   10:22.758   224193,(,0,0,1
   10:22.797   224207,N,0,0,0
   10:22.922   224252,),0,0,1
   10:22.933   224256,(,0,0,2
   10:23.072   224306,t,0,0,5
   10:23.633   224508,t,0,0,5
   10:23.683   224526,),0,0,2
   10:32.186   227587,(,0,0,1
   10:32.286   227623,N,0,0,0
   10:32.297   227627,),0,0,1
   10:32.317   227634,(,0,0,2
   10:32.547   227717,t,0,0,0
   10:32.733   227784,),0,0,2
   11:02.772   238598,(,0,0,1
   11:02.844   238624,N,0,0,0
   11:02.886   238639,),0,0,1
   11:02.903   238645,(,0,0,2
   11:03.111   238720,t,0,0,5
   11:03.367   238812,t,0,0,5
   11:03.403   238825,),0,0,2
   11:03.694   238930,(,0,0,1
   11:03.761   238954,N,0,0,0
   11:03.792   238965,),0,0,1
   11:03.850   238986,(,0,0,2
   11:04.011   239044,t,0,0,5
   11:04.247   239129,t,0,0,5
   11:04.264   239135,),0,0,2
   11:04.572   239246,(,0,0,1
   11:04.642   239271,N,0,0,0
   11:04.703   239293,),0,0,1
   11:04.719   239299,(,0,0,2
   11:04.903   239365,t,0,0,0
   11:05.011   239404,),0,0,2
   11:05.475   239571,(,0,0,1
   11:05.542   239595,N,0,0,0
   11:05.586   239611,),0,0,1
   11:05.714   239657,(,0,0,2
   11:05.797   239687,t,0,0,0
   11:05.906   239726,),0,0,2
   11:06.347   239885,(,0,0,1
   11:06.411   239908,N,0,0,0
   11:06.450   239922,),0,0,1
   11:06.936   240097,(,0,0,2
   11:07.003   240121,t,0,0,0
   11:07.069   240145,),0,0,2
   11:08.078   240508,(,0,0,1
   11:08.144   240532,N,0,0,0
   11:08.189   240548,),0,0,1
   11:08.425   240633,(,0,0,2
   11:08.653   240715,t,0,0,1
   11:08.775   240759,),0,0,2
   11:09.000   240840,(,0,0,1
   11:09.078   240868,N,0,0,0
   11:09.108   240879,),0,0,1
   11:09.233   240924,(,0,0,2
   11:09.344   240964,t,0,0,0
   11:09.461   241006,),0,0,2
   11:09.883   241158,(,0,0,1
   11:09.950   241182,N,0,0,0
   11:10.019   241207,),0,0,1
   11:10.092   241233,(,0,0,2
   11:10.219   241279,t,0,0,0
   11:10.319   241315,),0,0,2
   11:10.792   241485,(,0,0,1
   11:10.861   241510,N,0,0,0
   11:10.919   241531,),0,0,1
   11:11.158   241617,(,0,0,2
   11:11.383   241698,t,0,0,1
   11:11.494   241738,),0,0,2
   11:11.714   241817,(,0,0,1
   11:11.778   241840,N,0,0,0
   11:11.819   241855,),0,0,1
   11:11.836   241861,(,0,0,2
   11:12.025   241929,t,0,0,0
   11:12.128   241966,),0,0,2
   11:12.514   242105,(,0,0,1
   11:12.606   242138,N,0,0,0
   11:12.653   242155,),0,0,1
   11:13.119   242323,(,0,0,2
   11:13.181   242345,t,0,0,0
   11:13.242   242367,),0,0,2
   11:14.244   242728,(,0,0,1
   11:14.314   242753,N,0,0,0
   11:14.347   242765,),0,0,1
   11:14.622   242864,(,0,0,2
   11:14.872   242954,t,0,0,1
   11:14.978   242992,),0,0,2
   11:15.211   243076,(,0,0,1
   11:15.292   243105,N,0,0,0
   11:15.322   243116,),0,0,1
   11:15.453   243163,(,0,0,2
   11:15.547   243197,t,0,0,5
   11:15.831   243299,t,0,0,5
   11:15.917   243330,),0,0,2
   11:16.119   243403,(,0,0,1
   11:16.206   243434,N,0,0,0
   11:16.242   243447,),0,0,1
   11:16.736   243625,(,0,0,2
   11:16.794   243646,t,0,0,0
   11:16.856   243668,),0,0,2
   11:17.875   244035,(,0,0,1
   11:17.939   244058,N,0,0,0
   11:17.969   244069,),0,0,1
   11:18.492   244257,(,0,0,2
   11:18.556   244280,t,0,0,0
   11:18.617   244302,),0,0,2
   11:19.617   244662,(,0,0,1
   11:19.689   244688,N,0,0,0
   11:19.739   244706,),0,0,1
   11:20.253   244891,(,0,0,2
   11:20.322   244916,t,0,0,0
   11:20.392   244941,),0,0,2
   11:21.550   245358,(,0,0,1
   11:21.614   245381,N,0,0,0
   11:21.644   245392,),0,0,1
   11:22.161   245578,(,0,0,2
   11:22.228   245602,t,0,0,0
   11:22.292   245625,),0,0,2
   11:24.156   246296,(,0,0,1
   11:24.222   246320,N,0,0,0
   11:24.253   246331,),0,0,1
   11:24.275   246339,(,0,0,2
   11:24.472   246410,t,0,0,0
   11:24.631   246467,),0,0,2
   11:25.036   246613,(,0,0,1
   11:25.103   246637,N,0,0,0
   11:25.133   246648,),0,0,1
   11:25.386   246739,(,0,0,2
   11:25.608   246819,t,0,0,1
   11:25.736   246865,),0,0,2
   11:25.958   246945,(,0,0,1
   11:26.025   246969,N,0,0,0
   11:26.075   246987,),0,0,1
   11:26.081   246989,(,0,0,2
   11:26.283   247062,t,0,0,0
   11:26.417   247110,),0,0,2
   11:26.833   247260,(,0,0,1
   11:26.906   247286,N,0,0,0
   11:26.956   247304,),0,0,1
   11:27.197   247391,(,0,0,2
   11:27.433   247476,t,0,0,1
   11:27.525   247509,),0,0,2
   11:27.708   247575,(,0,0,1
   11:27.808   247611,N,0,0,0
   11:27.839   247622,),0,0,1
   11:27.875   247635,(,0,0,2
   11:28.072   247706,t,0,0,0
   11:28.225   247761,),0,0,2
   11:28.622   247904,(,0,0,1
   11:28.686   247927,N,0,0,0
   11:28.742   247947,),0,0,1
   11:28.750   247950,(,0,0,2
   11:28.925   248013,t,0,0,0
   11:29.053   248059,),0,0,2
   11:29.483   248214,(,0,0,1
   11:29.542   248235,N,0,0,0
   11:29.592   248253,),0,0,1
   11:29.689   248288,(,0,0,2
   11:29.786   248323,t,0,0,5
   11:30.019   248407,t,0,0,5
   11:30.053   248419,),0,0,2
   11:30.331   248519,(,0,0,1
   11:30.394   248542,N,0,0,0
   11:30.444   248560,),0,0,1
   11:30.511   248584,(,0,0,2
   11:30.650   248634,t,0,0,0
   11:30.842   248703,),0,0,2
   11:31.156   248816,(,0,0,1
   11:31.256   248852,N,0,0,0
   11:31.325   248877,),0,0,1
   11:31.425   248913,(,0,0,2
   11:31.522   248948,t,0,0,0
   11:31.625   248985,),0,0,2
   11:32.081   249149,(,0,0,1
   11:32.144   249172,N,0,0,0
   11:32.192   249189,),0,0,1
   11:32.408   249267,(,0,0,2
   11:32.617   249342,t,0,0,1
   11:32.717   249378,),0,0,2
   11:32.933   249456,(,0,0,1
   11:33.000   249480,N,0,0,0
   11:33.047   249497,),0,0,1
   11:33.178   249544,(,0,0,2
   11:33.267   249576,t,0,0,5
   11:33.508   249663,t,0,0,5
   11:33.658   249717,),0,0,2
   11:33.894   249802,(,0,0,1
   11:33.961   249826,N,0,0,0
   11:34.025   249849,),0,0,1
   11:34.572   250046,(,0,0,2
   11:34.625   250065,t,0,0,5
   11:34.733   250104,t,0,0,5
   11:34.800   250128,),0,0,2
   11:36.497   250739,(,0,0,1
   11:36.561   250762,N,0,0,0
   11:36.608   250779,),0,0,1
   11:37.039   250934,(,0,0,2
   11:37.097   250955,t,0,0,0
   11:37.156   250976,),0,0,2
   11:38.175   251343,(,0,0,1
   11:38.239   251366,N,0,0,0
   11:38.267   251376,),0,0,1
   11:38.761   251554,(,0,0,2
   11:38.828   251578,t,0,0,0
   11:38.889   251600,),0,0,2
   11:41.642   252591,(,0,0,1
   11:41.697   252611,N,0,0,0
   11:41.728   252622,),0,0,1
   11:42.164   252779,(,0,0,2
   11:42.222   252800,t,0,0,0
   11:42.286   252823,),0,0,2
   11:43.292   253185,(,0,0,1
   11:43.364   253211,N,0,0,0
   11:43.392   253221,),0,0,1
   11:43.889   253400,(,0,0,2
   11:43.950   253422,t,0,0,0
   11:44.008   253443,),0,0,2
   11:45.050   253818,(,0,0,1
   11:45.114   253841,N,0,0,0
   11:45.142   253851,),0,0,1
   11:45.642   254031,(,0,0,2
   11:45.708   254055,t,0,0,0
   11:45.769   254077,),0,0,2
   11:46.803   254449,(,0,0,1
   11:46.869   254473,N,0,0,0
   11:46.900   254484,),0,0,1
   11:47.342   254643,(,0,0,2
   11:47.394   254662,t,0,0,0
   11:47.450   254682,),0,0,2
   11:48.400   255024,(,0,0,1
   11:48.461   255046,N,0,0,0
   11:48.489   255056,),0,0,1
   11:48.589   255092,t,0,0,2
   11:48.697   255131,),0,0,2
   11:48.931   255215,(,0,0,1
   11:49.028   255250,N,0,0,0
   11:49.092   255273,),0,0,1
   11:49.133   255288,(,0,0,2
   11:49.214   255317,t,0,0,1
   11:49.442   255399,),0,0,2
   11:50.786   255883,(,0,0,1
   11:50.878   255916,N,0,0,0
   11:50.964   255947,),0,0,1
   11:51.008   255963,(,0,0,2
   11:51.092   255993,t,0,0,1
   11:51.244   256048,),0,0,2
   11:52.503   256501,(,0,0,1
   11:52.603   256537,N,0,0,0
   11:52.694   256570,),0,0,1
   11:52.772   256598,(,0,0,2
   11:52.800   256608,t,0,0,4
   11:53.183   256746,t,0,0,4
   11:53.267   256776,),0,0,2
   11:54.222   257120,(,0,0,1
   11:54.300   257148,N,0,0,0
   11:54.378   257176,),0,0,1
   11:54.433   257196,(,0,0,2
   11:54.467   257208,t,0,0,1
   11:54.633   257268,),0,0,2
   11:55.817   257694,(,0,0,1
   11:55.914   257729,N,0,0,0
   11:55.994   257758,),0,0,1
   11:56.078   257788,(,0,0,2
   11:56.111   257800,t,0,0,1
   11:56.331   257879,),0,0,2
   12:06.878   261676,(,0,0,1
   12:06.967   261708,N,0,0,0
   12:07.044   261736,),0,0,1
   12:07.094   261754,(,0,0,2
   12:07.164   261779,t,0,0,1
   12:07.331   261839,),0,0,2
   12:45.114   275441,(,0,0,1
   12:45.219   275479,N,0,0,0
   12:45.303   275509,),0,0,1
   12:45.339   275522,(,0,0,2
   12:45.411   275548,t,0,0,1
   12:45.589   275612,),0,0,2
   12:47.131   276167,(,0,0,1
   12:47.231   276203,N,0,0,0
   12:47.297   276227,),0,0,1
   12:47.331   276239,(,0,0,2
   12:47.389   276260,t,0,0,4
   12:47.728   276382,t,0,0,4
   12:47.756   276392,),0,0,2
   12:48.769   276757,(,0,0,1
   12:48.861   276790,N,0,0,0
   12:48.947   276821,),0,0,1
   12:48.969   276829,(,0,0,2
   12:49.000   276840,t,0,0,4
   12:49.550   277038,t,0,0,4
   12:49.594   277054,),0,0,2
   12:50.575   277407,(,0,0,1
   12:50.681   277445,N,0,0,0
   12:50.769   277477,),0,0,1
   12:50.806   277490,(,0,0,2
   12:50.869   277513,t,0,0,1
   12:51.092   277593,),0,0,2
   12:52.553   278119,(,0,0,1
   12:52.653   278155,N,0,0,0
   12:52.717   278178,),0,0,1
   12:52.753   278191,(,0,0,2
   12:52.803   278209,t,0,0,4
   12:53.103   278317,t,0,0,4
   12:53.131   278327,),0,0,2
   12:54.267   278736,(,0,0,1
   12:54.356   278768,N,0,0,0
   12:54.433   278796,),0,0,1
   12:54.558   278841,t,0,0,2
   12:54.722   278900,),0,0,2
   12:55.986   279355,(,0,0,1
   12:56.081   279389,N,0,0,0
   12:56.153   279415,),0,0,1
   12:56.178   279424,(,0,0,2
   12:56.250   279450,t,0,0,4
   12:56.703   279613,t,0,0,4
   12:56.731   279623,),0,0,2
   12:57.764   279995,(,0,0,1
   12:57.867   280032,N,0,0,0
   12:57.969   280069,),0,0,1
   12:57.992   280077,(,0,0,2
   12:58.031   280091,t,0,0,1
   12:58.289   280184,),0,0,2
   12:59.633   280668,(,0,0,1
   12:59.719   280699,N,0,0,0
   12:59.789   280724,),0,0,1
   12:59.936   280777,(,0,0,2
   13:00.281   280901,t,0,0,0
   13:00.411   280948,),0,0,2
   13:01.233   281244,(,0,0,1
   13:01.325   281277,N,0,0,0
   13:01.389   281300,),0,0,1
   13:01.478   281332,(,0,0,2
   13:01.506   281342,t,0,0,4
   13:01.825   281457,t,0,0,4
   13:01.856   281468,),0,0,2
   13:02.931   281855,(,0,0,1
   13:03.025   281889,N,0,0,0
   13:03.117   281922,),0,0,1
   13:03.122   281924,(,0,0,2
   13:03.222   281960,t,0,0,4
   13:03.653   282115,t,0,0,4
   13:03.686   282127,),0,0,2
   13:04.844   282544,(,0,0,1
   13:04.950   282582,N,0,0,0
   13:05.039   282614,),0,0,1
   13:05.122   282644,(,0,0,2
   13:05.172   282662,t,0,0,4
   13:05.333   282720,t,0,0,4
   13:05.364   282731,),0,0,2
   13:06.506   283142,(,0,0,1
   13:06.592   283173,N,0,0,0
   13:06.667   283200,),0,0,1
   13:06.781   283241,t,0,0,2
   13:06.933   283296,),0,0,2
   13:12.067   285144,(,0,0,1
   13:12.158   285177,N,0,0,0
   13:12.253   285211,),0,0,1
   13:12.311   285232,(,0,0,2
   13:12.339   285242,t,0,0,1
   13:12.531   285311,),0,0,2
   13:13.722   285740,(,0,0,1
   13:13.819   285775,N,0,0,0
   13:13.906   285806,),0,0,1
   13:13.942   285819,(,0,0,2
   13:13.997   285839,t,0,0,1
   13:14.256   285932,),0,0,2
   13:15.617   286422,(,0,0,1
   13:15.722   286460,N,0,0,0
   13:15.794   286486,),0,0,1
   13:15.922   286532,t,0,0,2
   13:16.111   286600,),0,0,2
   13:47.878   298036,(,0,0,0
   13:47.944   298060,p,0,0,0
   13:48.011   298084,),0,0,0
   13:48.039   298094,(,0,0,1
   13:48.092   298113,N,0,0,0
   13:48.125   298125,),0,0,1
   13:48.231   298163,(,0,0,2
   13:48.314   298193,t,0,0,0
   13:48.444   298240,),0,0,2
   13:48.661   298318,(,0,0,0
   13:48.717   298338,p,0,0,0
   13:48.789   298364,),0,0,0
   13:48.817   298374,(,0,0,1
   13:48.869   298393,N,0,0,0
   13:48.900   298404,),0,0,1
   13:48.925   298413,(,0,0,2
   13:49.094   298474,t,0,0,0
   13:49.281   298541,),0,0,2
   13:49.458   298605,(,0,0,0
   13:49.517   298626,p,0,0,0
   13:49.583   298650,),0,0,0
   13:49.622   298664,(,0,0,1
   13:49.678   298684,N,0,0,0
   13:49.714   298697,),0,0,1
   13:49.819   298735,(,0,0,2
   13:49.919   298771,t,0,0,0
   13:50.039   298814,),0,0,2
   13:50.200   298872,(,0,0,1
   13:50.342   298923,N,0,0,0
   13:50.569   299005,),0,0,1
   13:50.636   299029,(,0,0,2
   13:50.767   299076,t,0,0,0
   13:50.883   299118,),0,0,2
   13:50.906   299126,(,0,0,0
   13:51.000   299160,p,0,0,0
   13:51.039   299174,),0,0,0
   13:51.061   299182,(,0,0,1
   13:51.208   299235,N,0,0,0
   13:51.342   299283,),0,0,1
   13:51.386   299299,t,0,0,3
   13:51.428   299314,),0,0,2
   13:52.006   299522,(,0,0,0
   13:52.033   299532,p,0,0,0
   13:52.106   299558,),0,0,0
   13:52.131   299567,(,0,0,1
   13:52.250   299610,N,0,0,0
   13:52.317   299634,),0,0,1
   13:52.344   299644,(,0,0,2
   13:52.539   299714,t,0,0,5
   13:52.769   299797,t,0,0,5
   13:52.819   299815,),0,0,2
   13:52.933   299856,(,0,0,0
   13:52.989   299876,p,0,0,0
   13:53.028   299890,),0,0,0
   13:53.089   299912,(,0,0,1
   13:53.161   299938,N,0,0,0
   13:53.189   299948,),0,0,1
   13:53.403   300025,(,0,0,1
   13:53.419   300031,N,0,0,0
   13:53.456   300044,),0,0,1
   13:53.622   300104,(,0,0,2
   13:53.669   300121,t,0,0,1
   13:53.767   300156,),0,0,2
   14:17.983   308874,(,0,0,0
   14:18.061   308902,p,0,0,0
   14:18.150   308934,),0,0,0
   14:18.189   308948,(,0,0,1
   14:18.281   308981,N,0,0,0
   14:18.283   308982,),0,0,1
   14:18.308   308991,(,0,0,2
   14:18.472   309050,t,0,0,0
   14:18.683   309126,),0,0,2
   14:26.503   311941,(,0,0,0
   14:26.533   311952,p,0,0,0
   14:26.583   311970,),0,0,0
   14:26.608   311979,N,0,0,0
   14:26.611   311980,(,0,0,1
   14:26.736   312025,),0,0,1
   14:26.761   312034,(,0,0,2
   14:26.861   312070,t,0,0,0
   14:27.028   312130,),0,0,2
   14:46.367   319092,(,0,0,1
   14:46.483   319134,N,0,0,0
   14:46.483   319134,),0,0,1
   14:46.550   319158,(,0,0,2
   14:46.722   319220,t,0,0,0
   14:46.900   319284,),0,0,2
   15:17.686   330367,(,0,0,1
   15:17.775   330399,N,0,0,0
   15:17.778   330400,),0,0,1
   15:17.806   330410,(,0,0,2
   15:18.022   330488,t,0,0,0
   15:18.181   330545,),0,0,2
   15:38.822   337976,(,0,0,0
   15:38.878   337996,p,0,0,0
   15:38.933   338016,),0,0,0
   15:39.117   338082,(,0,0,1
   15:39.186   338107,N,0,0,0
   15:39.219   338119,),0,0,1
   15:39.483   338214,(,0,0,2
   15:39.717   338298,t,0,0,1
   15:39.833   338340,),0,0,2
   15:39.856   338348,(,0,0,0
   15:39.944   338380,p,0,0,0
   15:40.031   338411,),0,0,0
   15:40.061   338422,(,0,0,1
   15:40.131   338447,N,0,0,0
   15:40.164   338459,),0,0,1
   15:40.428   338554,(,0,0,2
   15:40.656   338636,t,0,0,1
   15:40.794   338686,),0,0,2
   15:40.814   338693,(,0,0,0
   15:40.917   338730,p,0,0,0
   15:40.972   338750,),0,0,0
   15:40.986   338755,(,0,0,1
   15:41.089   338792,N,0,0,0
   15:41.119   338803,),0,0,1
   15:41.369   338893,(,0,0,2
   15:41.589   338972,t,0,0,1
   15:41.719   339019,),0,0,2
   15:41.736   339025,(,0,0,0
   15:41.836   339061,p,0,0,0
   15:41.900   339084,),0,0,0
   15:41.939   339098,(,0,0,1
   15:42.008   339123,N,0,0,0
   15:42.042   339135,),0,0,1
   15:42.064   339143,(,0,0,2
   15:42.256   339212,t,0,0,0
   15:42.350   339246,),0,0,2
   15:42.589   339332,(,0,0,0
   15:42.672   339362,p,0,0,0
   15:42.739   339386,),0,0,0
   15:42.761   339394,(,0,0,1
   15:42.825   339417,N,0,0,0
   15:42.856   339428,),0,0,1
   15:42.939   339458,(,0,0,2
   15:43.067   339504,t,0,0,5
   15:43.294   339586,t,0,0,5
   15:43.319   339595,),0,0,2
   15:43.378   339616,(,0,0,0
   15:43.417   339630,p,0,0,0
   15:43.478   339652,),0,0,0
   15:43.583   339690,(,0,0,1
   15:43.672   339722,N,0,0,0
   15:43.703   339733,),0,0,1
   15:43.775   339759,(,0,0,2
   15:43.931   339815,t,0,0,0
   15:44.103   339877,),0,0,2
   15:44.306   339950,(,0,0,0
   15:44.386   339979,p,0,0,0
   15:44.436   339997,),0,0,0
   15:44.483   340014,(,0,0,1
   15:44.539   340034,N,0,0,0
   15:44.569   340045,),0,0,1
   15:44.831   340139,(,0,0,2
   15:45.061   340222,t,0,0,1
   15:45.219   340279,),0,0,2
   15:45.247   340289,(,0,0,0
   15:45.353   340327,p,0,0,0
   15:45.406   340346,),0,0,0
   15:45.467   340368,(,0,0,1
   15:45.536   340393,N,0,0,0
   15:45.567   340404,),0,0,1
   15:45.825   340497,(,0,0,2
   15:46.036   340573,t,0,0,1
   15:46.211   340636,),0,0,2
   15:46.236   340645,(,0,0,0
   15:46.317   340674,p,0,0,0
   15:46.400   340704,),0,0,0
   15:46.411   340708,(,0,0,1
   15:46.508   340743,N,0,0,0
   15:46.539   340754,),0,0,1
   15:46.567   340764,(,0,0,2
   15:46.772   340838,t,0,0,0
   15:46.972   340910,),0,0,2
   15:47.153   340975,(,0,0,0
   15:47.225   341001,p,0,0,0
   15:47.303   341029,),0,0,0
   15:47.336   341041,(,0,0,1
   15:47.400   341064,N,0,0,0
   15:47.431   341075,),0,0,1
   15:47.508   341103,(,0,0,2
   15:47.656   341156,t,0,0,5
   15:47.867   341232,t,0,0,5
   15:47.928   341254,),0,0,2
   15:48.047   341297,(,0,0,0
   15:48.092   341313,p,0,0,0
   15:48.164   341339,),0,0,0
   15:48.194   341350,(,0,0,1
   15:48.250   341370,N,0,0,0
   15:48.278   341380,),0,0,1
   15:48.331   341399,t,0,0,2
   15:48.461   341446,),0,0,2
   15:48.650   341514,(,0,0,1
   15:48.736   341545,N,0,0,0
   15:48.739   341546,),0,0,1
   15:48.753   341551,(,0,0,2
   15:48.903   341605,t,0,0,0
   15:49.128   341686,),0,0,2
   15:50.603   342217,(,0,0,0
   15:50.656   342236,p,0,0,0
   15:50.725   342261,),0,0,0
   15:50.772   342278,(,0,0,1
   15:50.839   342302,N,0,0,0
   15:50.869   342313,),0,0,1
   15:51.169   342421,(,0,0,2
   15:51.469   342529,t,0,0,1
   15:51.619   342583,),0,0,2
   15:51.650   342594,(,0,0,0
   15:51.725   342621,p,0,0,0
   15:51.794   342646,),0,0,0
   15:51.842   342663,(,0,0,1
   15:51.917   342690,N,0,0,0
   15:51.947   342701,),0,0,1
   15:52.019   342727,(,0,0,2
   15:52.158   342777,t,0,0,5
   15:52.403   342865,t,0,0,5
   15:52.497   342899,),0,0,2
   15:52.589   342932,(,0,0,0
   15:52.631   342947,p,0,0,0
   15:52.694   342970,),0,0,0
   15:52.736   342985,(,0,0,1
   15:52.797   343007,N,0,0,0
   15:52.825   343017,),0,0,1
   15:52.883   343038,(,0,0,2
   15:53.031   343091,t,0,0,5
   15:53.253   343171,t,0,0,5
   15:53.281   343181,),0,0,2
   15:53.417   343230,(,0,0,0
   15:53.483   343254,p,0,0,0
   15:53.536   343273,),0,0,0
   15:53.597   343295,(,0,0,1
   15:53.658   343317,N,0,0,0
   15:53.689   343328,),0,0,1
   15:53.897   343403,(,0,0,2
   15:54.097   343475,t,0,0,4
   15:54.456   343604,t,0,0,4
   15:54.497   343619,),0,0,2
   15:55.928   344134,(,0,0,0
   15:56.000   344160,p,0,0,0
   15:56.067   344184,),0,0,0
   15:56.103   344197,(,0,0,1
   15:56.167   344220,N,0,0,0
   15:56.197   344231,),0,0,1
   15:56.242   344247,(,0,0,2
   15:56.414   344309,t,0,0,5
   15:56.886   344479,t,0,0,5
   15:56.981   344513,),0,0,2
   15:57.747   344789,(,0,0,0
   15:57.836   344821,p,0,0,0
   15:57.892   344841,),0,0,0
   15:57.944   344860,(,0,0,1
   15:58.008   344883,N,0,0,0
   15:58.039   344894,),0,0,1
   15:58.289   344984,(,0,0,2
   15:58.500   345060,t,0,0,1
   15:58.639   345110,),0,0,2
   15:58.664   345119,(,0,0,0
   15:58.744   345148,p,0,0,0
   15:58.814   345173,),0,0,0
   15:58.825   345177,(,0,0,1
   15:58.922   345212,N,0,0,0
   15:58.950   345222,),0,0,1
   15:59.092   345273,(,0,0,2
   15:59.181   345305,t,0,0,0
   15:59.414   345389,),0,0,2
   15:59.575   345447,(,0,0,0
   15:59.667   345480,p,0,0,0
   15:59.714   345497,),0,0,0
   15:59.758   345513,(,0,0,1
   15:59.825   345537,N,0,0,0
   15:59.853   345547,),0,0,1
   15:59.881   345557,(,0,0,2
   16:00.064   345623,t,0,0,5
   16:00.272   345698,t,0,0,5
   16:00.297   345707,),0,0,2
   16:00.436   345757,(,0,0,0
   16:00.511   345784,p,0,0,0
   16:00.572   345806,),0,0,0
   16:00.611   345820,(,0,0,1
   16:00.675   345843,N,0,0,0
   16:00.706   345854,),0,0,1
   16:00.822   345896,(,0,0,2
   16:00.911   345928,t,0,0,0
   16:01.078   345988,),0,0,2
   16:01.244   346048,(,0,0,0
   16:01.308   346071,p,0,0,0
   16:01.372   346094,),0,0,0
   16:01.411   346108,(,0,0,1
   16:01.475   346131,N,0,0,0
   16:01.503   346141,),0,0,1
   16:01.608   346179,(,0,0,2
   16:01.717   346218,t,0,0,0
   16:01.925   346293,),0,0,2
   16:02.069   346345,(,0,0,0
   16:02.139   346370,p,0,0,0
   16:02.203   346393,),0,0,0
   16:02.233   346404,(,0,0,1
   16:02.306   346430,N,0,0,0
   16:02.336   346441,),0,0,1
   16:02.453   346483,(,0,0,2
   16:02.567   346524,t,0,0,5
   16:03.011   346684,t,0,0,5
   16:03.097   346715,),0,0,2
   16:03.639   346910,(,0,0,0
   16:03.689   346928,p,0,0,0
   16:03.775   346959,),0,0,0
   16:03.819   346975,(,0,0,1
   16:03.953   347023,N,0,0,0
   16:04.203   347113,),0,0,1
   16:04.206   347114,t,0,0,3
   16:04.383   347178,),0,0,2
   16:04.767   347316,(,0,0,0
   16:04.839   347342,p,0,0,0
   16:04.886   347359,),0,0,0
   16:04.942   347379,(,0,0,1
   16:05.014   347405,N,0,0,0
   16:05.042   347415,),0,0,1
   16:05.183   347466,(,0,0,2
   16:05.267   347496,t,0,0,0
   16:05.461   347566,),0,0,2
   16:05.633   347628,(,0,0,0
   16:05.683   347646,p,0,0,0
   16:05.761   347674,),0,0,0
   16:05.789   347684,(,0,0,1
   16:05.853   347707,N,0,0,0
   16:05.881   347717,),0,0,1
   16:05.956   347744,(,0,0,2
   16:06.083   347790,t,0,0,0
   16:06.275   347859,),0,0,2
   16:06.450   347922,(,0,0,0
   16:06.508   347943,p,0,0,0
   16:06.578   347968,),0,0,0
   16:06.603   347977,(,0,0,1
   16:06.661   347998,N,0,0,0
   16:06.689   348008,),0,0,1
   16:06.711   348016,(,0,0,2
   16:06.881   348077,t,0,0,5
   16:07.108   348159,t,0,0,5
   16:07.144   348172,),0,0,2
   16:07.228   348202,(,0,0,0
   16:07.294   348226,p,0,0,0
   16:07.350   348246,),0,0,0
   16:07.400   348264,(,0,0,1
   16:07.464   348287,N,0,0,0
   16:07.492   348297,),0,0,1
   16:07.517   348306,(,0,0,2
   16:07.708   348375,t,0,0,0
   16:07.908   348447,),0,0,2
   16:08.081   348509,(,0,0,0
   16:08.156   348536,p,0,0,0
   16:08.197   348551,),0,0,0
   16:08.267   348576,(,0,0,1
   16:08.333   348600,N,0,0,0
   16:08.364   348611,),0,0,1
   16:08.478   348652,(,0,0,2
   16:08.603   348697,t,0,0,5
   16:09.064   348863,t,0,0,5
   16:09.150   348894,),0,0,2
   16:18.794   352366,(,0,0,0
   16:18.850   352386,p,0,0,0
   16:18.911   352408,),0,0,0
   16:18.956   352424,(,0,0,1
   16:19.022   352448,N,0,0,0
   16:19.053   352459,),0,0,1
   16:19.164   352499,(,0,0,2
   16:19.283   352542,t,0,0,5
   16:19.733   352704,t,0,0,5
   16:19.814   352733,),0,0,2
   16:20.550   352998,(,0,0,0
   16:20.611   353020,p,0,0,0
   16:20.675   353043,),0,0,0
   16:20.714   353057,(,0,0,1
   16:20.783   353082,N,0,0,0
   16:20.814   353093,),0,0,1
   16:20.897   353123,(,0,0,2
   16:21.039   353174,t,0,0,5
   16:21.519   353347,t,0,0,5
   16:21.608   353379,),0,0,2
   16:29.111   356080,(,0,0,0
   16:29.167   356100,p,0,0,0
   16:29.236   356125,),0,0,0
   16:29.286   356143,(,0,0,1
   16:29.353   356167,N,0,0,0
   16:29.381   356177,),0,0,1
   16:29.422   356192,(,0,0,2
   16:29.592   356253,t,0,0,5
   16:29.806   356330,t,0,0,5
   16:29.833   356340,),0,0,2
   16:29.964   356387,(,0,0,0
   16:30.008   356403,p,0,0,0
   16:30.078   356428,),0,0,0
   16:30.108   356439,(,0,0,1
   16:30.169   356461,N,0,0,0
   16:30.197   356471,),0,0,1
   16:30.928   356734,(,0,0,2
   16:30.956   356744,t,0,0,1
   16:30.997   356759,),0,0,2
   16:31.639   356990,(,0,0,0
   16:31.700   357012,p,0,0,0
   16:31.769   357037,),0,0,0
   16:31.803   357049,(,0,0,1
   16:31.867   357072,N,0,0,0
   16:31.894   357082,),0,0,1
   16:31.931   357095,(,0,0,2
   16:32.117   357162,t,0,0,5
   16:32.358   357249,t,0,0,5
   16:32.431   357275,),0,0,2
   16:32.461   357286,(,0,0,0
   16:32.494   357298,p,0,0,0
   16:32.550   357318,),0,0,0
   16:32.656   357356,(,0,0,1
   16:32.756   357392,N,0,0,0
   16:32.786   357403,),0,0,1
   16:33.017   357486,(,0,0,2
   16:33.292   357585,t,0,0,1
   16:33.383   357618,),0,0,2
   16:33.431   357635,(,0,0,0
   16:33.478   357652,p,0,0,0
   16:33.525   357669,),0,0,0
   16:33.594   357694,(,0,0,1
   16:33.667   357720,N,0,0,0
   16:33.697   357731,),0,0,1
   16:33.981   357833,(,0,0,2
   16:34.278   357940,t,0,0,1
   16:34.392   357981,),0,0,2
   16:35.414   358349,(,0,0,0
   16:35.467   358368,p,0,0,0
   16:35.528   358390,),0,0,0
   16:35.558   358401,(,0,0,1
   16:35.617   358422,N,0,0,0
   16:35.644   358432,),0,0,1
   16:35.683   358446,(,0,0,2
   16:35.836   358501,t,0,0,0
   16:36.014   358565,),0,0,2
   16:36.200   358632,(,0,0,0
   16:36.256   358652,p,0,0,0
   16:36.325   358677,),0,0,0
   16:36.353   358687,(,0,0,1
   16:36.425   358713,N,0,0,0
   16:36.456   358724,),0,0,1
   16:36.486   358735,(,0,0,2
   16:36.664   358799,t,0,0,0
   16:36.739   358826,),0,0,2
   16:36.944   358900,(,0,0,1
   16:37.056   358940,N,0,0,0
   16:37.058   358941,),0,0,1
   16:37.067   358944,(,0,0,2
   16:37.292   359025,t,0,0,0
   16:37.483   359094,),0,0,2
   16:38.900   359604,(,0,0,0
   16:38.944   359620,p,0,0,0
   16:39.019   359647,),0,0,0
   16:39.058   359661,(,0,0,1
   16:39.125   359685,N,0,0,0
   16:39.156   359696,),0,0,1
   16:39.186   359707,(,0,0,2
   16:39.369   359773,t,0,0,5
   16:39.642   359871,t,0,0,5
   16:39.686   359887,),0,0,2
   16:39.786   359923,(,0,0,0
   16:39.842   359943,p,0,0,0
   16:39.917   359970,),0,0,0
   16:39.956   359984,(,0,0,1
   16:40.022   360008,N,0,0,0
   16:40.053   360019,),0,0,1
   16:40.078   360028,(,0,0,2
   16:40.289   360104,t,0,0,5
   16:40.797   360287,t,0,0,5
   16:40.897   360323,),0,0,2
   16:41.622   360584,(,0,0,0
   16:41.669   360601,p,0,0,0
   16:41.731   360623,),0,0,0
   16:41.769   360637,(,0,0,1
   16:41.831   360659,N,0,0,0
   16:41.861   360670,),0,0,1
   16:41.922   360692,(,0,0,2
   16:42.081   360749,t,0,0,5
   16:42.331   360839,t,0,0,5
   16:42.369   360853,),0,0,2
   16:42.469   360889,(,0,0,0
   16:42.528   360910,p,0,0,0
   16:42.600   360936,),0,0,0
   16:42.633   360948,(,0,0,1
   16:42.700   360972,N,0,0,0
   16:42.728   360982,),0,0,1
   16:42.844   361024,(,0,0,2
   16:42.950   361062,t,0,0,5
   16:43.442   361239,t,0,0,5
   16:43.519   361267,),0,0,2
   16:44.275   361539,(,0,0,0
   16:44.322   361556,p,0,0,0
   16:44.411   361588,),0,0,0
   16:44.450   361602,(,0,0,1
   16:44.522   361628,N,0,0,0
   16:44.556   361640,),0,0,1
   16:44.678   361684,(,0,0,2
   16:44.789   361724,t,0,0,5
   16:45.033   361812,t,0,0,5
   16:45.075   361827,),0,0,2
   16:45.181   361865,(,0,0,0
   16:45.244   361888,p,0,0,0
   16:45.292   361905,),0,0,0
   16:45.350   361926,(,0,0,1
   16:45.419   361951,N,0,0,0
   16:45.447   361961,),0,0,1
   16:45.581   362009,(,0,0,2
   16:45.667   362040,t,0,0,5
   16:46.136   362209,t,0,0,5
   16:46.222   362240,),0,0,2
   16:47.106   362558,(,0,0,0
   16:47.156   362576,p,0,0,0
   16:47.208   362595,),0,0,0
   16:47.283   362622,(,0,0,1
   16:47.350   362646,N,0,0,0
   16:47.383   362658,),0,0,1
   16:47.494   362698,(,0,0,2
   16:47.600   362736,t,0,0,0
   16:47.789   362804,),0,0,2
   16:47.978   362872,(,0,0,0
   16:48.039   362894,p,0,0,0
   16:48.097   362915,),0,0,0
   16:48.142   362931,(,0,0,1
   16:48.206   362954,N,0,0,0
   16:48.233   362964,),0,0,1
   16:48.336   363001,t,0,0,2
   16:48.444   363040,),0,0,2
   16:48.603   363097,(,0,0,1
   16:48.686   363127,N,0,0,0
   16:48.686   363127,),0,0,1
   16:48.708   363135,(,0,0,2
   16:48.889   363200,t,0,0,0
   16:49.075   363267,),0,0,2
   16:49.706   363494,(,0,0,0
   16:49.750   363510,p,0,0,0
   16:49.794   363526,),0,0,0
   16:49.858   363549,(,0,0,1
   16:49.925   363573,N,0,0,0
   16:49.956   363584,),0,0,1
   16:50.092   363633,(,0,0,2
   16:50.208   363675,t,0,0,5
   16:50.700   363852,t,0,0,5
   16:50.789   363884,),0,0,2
   16:51.536   364153,(,0,0,0
   16:51.589   364172,p,0,0,0
   16:51.633   364188,),0,0,0
   16:51.706   364214,(,0,0,1
   16:51.775   364239,N,0,0,0
   16:51.806   364250,),0,0,1
   16:51.914   364289,(,0,0,2
   16:52.033   364332,t,0,0,5
   16:52.536   364513,t,0,0,5
   16:52.631   364547,),0,0,2
   16:54.306   365150,(,0,0,0
   16:54.358   365169,p,0,0,0
   16:54.419   365191,),0,0,0
   16:54.456   365204,(,0,0,1
   16:54.514   365225,N,0,0,0
   16:54.542   365235,),0,0,1
   16:54.603   365257,t,0,0,2
   16:54.744   365308,),0,0,2
   16:54.881   365357,(,0,0,1
   16:54.989   365396,N,0,0,0
   16:54.992   365397,),0,0,1
   16:55.014   365405,(,0,0,2
   16:55.239   365486,t,0,0,0
   16:55.397   365543,),0,0,2
   16:58.867   366792,(,0,0,0
   16:58.942   366819,p,0,0,0
   16:59.006   366842,),0,0,0
   16:59.058   366861,(,0,0,1
   16:59.125   366885,N,0,0,0
   16:59.158   366897,),0,0,1
   16:59.203   366913,(,0,0,2
   16:59.397   366983,t,0,0,0
   16:59.542   367035,),0,0,2
   16:59.806   367130,(,0,0,0
   16:59.878   367156,p,0,0,0
   16:59.953   367183,),0,0,0
   16:59.956   367184,(,0,0,1
   17:00.044   367216,N,0,0,0
   17:00.072   367226,),0,0,1
   17:00.092   367233,(,0,0,2
   17:00.267   367296,t,0,0,0
   17:00.475   367371,),0,0,2
   17:00.617   367422,(,0,0,0
   17:00.700   367452,p,0,0,0
   17:00.772   367478,),0,0,0
   17:00.800   367488,(,0,0,1
   17:00.869   367513,N,0,0,0
   17:00.900   367524,),0,0,1
   17:01.144   367612,(,0,0,2
   17:01.358   367689,t,0,0,1
   17:01.486   367735,),0,0,2
   17:03.392   368421,(,0,0,0
   17:03.486   368455,p,0,0,0
   17:03.544   368476,),0,0,0
   17:03.586   368491,(,0,0,1
   17:03.653   368515,N,0,0,0
   17:03.681   368525,),0,0,1
   17:03.736   368545,(,0,0,2
   17:03.906   368606,t,0,0,5
   17:04.364   368771,t,0,0,5
   17:04.447   368801,),0,0,2
   17:05.181   369065,(,0,0,0
   17:05.281   369101,p,0,0,0
   17:05.339   369122,),0,0,0
   17:05.400   369144,(,0,0,1
   17:05.467   369168,N,0,0,0
   17:05.500   369180,),0,0,1
   17:05.642   369231,(,0,0,2
   17:05.750   369270,t,0,0,0
   17:05.919   369331,),0,0,2
   17:06.122   369404,(,0,0,0
   17:06.200   369432,p,0,0,0
   17:06.269   369457,),0,0,0
   17:06.272   369458,(,0,0,1
   17:06.356   369488,N,0,0,0
   17:06.383   369498,),0,0,1
   17:06.406   369506,(,0,0,2
   17:06.594   369574,t,0,0,5
   17:07.061   369742,t,0,0,5
   17:07.142   369771,),0,0,2
   17:08.622   370304,(,0,0,1
   17:08.719   370339,N,0,0,0
   17:08.722   370340,),0,0,1
   17:08.744   370348,(,0,0,2
   17:08.989   370436,t,0,0,0
   17:09.183   370506,),0,0,2
   17:09.669   370681,(,0,0,0
   17:09.761   370714,p,0,0,0
   17:09.817   370734,),0,0,0
   17:09.853   370747,(,0,0,1
   17:09.917   370770,N,0,0,0
   17:09.947   370781,),0,0,1
   17:10.061   370822,t,0,0,2
   17:10.178   370864,),0,0,2
   17:10.403   370945,(,0,0,1
   17:10.503   370981,N,0,0,0
   17:10.553   370999,),0,0,1
   17:10.581   371009,(,0,0,2
   17:10.692   371049,t,0,0,1
   17:10.875   371115,),0,0,2
   17:11.975   371511,(,0,0,0
   17:12.061   371542,p,0,0,0
   17:12.153   371575,),0,0,0
   17:12.236   371605,(,0,0,1
   17:12.314   371633,N,0,0,0
   17:12.356   371648,),0,0,1
   17:12.394   371662,(,0,0,2
   17:12.461   371686,t,0,0,1
   17:12.717   371778,),0,0,2
   18:23.150   397134,(,0,0,1
   18:23.194   397150,N,0,0,0
   18:23.336   397201,),0,0,1
   18:23.381   397217,t,0,0,3
   18:23.419   397231,),0,0,2
   18:24.064   397463,(,0,0,0
   18:24.108   397479,p,0,0,0
   18:24.175   397503,),0,0,0
   18:24.208   397515,(,0,0,1
   18:24.261   397534,N,0,0,0
   18:24.289   397544,),0,0,1
   18:24.353   397567,(,0,0,2
   18:24.483   397614,t,0,0,5
   18:24.683   397686,t,0,0,5
   18:24.753   397711,),0,0,2
   18:24.858   397749,(,0,0,0
   18:24.917   397770,p,0,0,0
   18:24.978   397792,),0,0,0
   18:25.022   397808,(,0,0,1
   18:25.086   397831,N,0,0,0
   18:25.117   397842,),0,0,1
   18:25.175   397863,(,0,0,2
   18:25.342   397923,t,0,0,5
   18:25.594   398014,t,0,0,5
   18:25.642   398031,),0,0,2
   18:25.717   398058,(,0,0,0
   18:25.747   398069,p,0,0,0
   18:25.819   398095,),0,0,0
   18:25.850   398106,(,0,0,1
   18:25.978   398152,N,0,0,0
   18:26.050   398178,),0,0,1
   18:26.172   398222,(,0,0,2
   18:26.281   398261,t,0,0,0
   18:26.392   398301,),0,0,2
   18:26.683   398406,(,0,0,0
   18:26.736   398425,p,0,0,0
   18:26.817   398454,),0,0,0
   18:26.858   398469,(,0,0,1
   18:26.892   398481,N,0,0,0
   18:26.908   398487,),0,0,1
   18:27.014   398525,(,0,0,2
   18:27.197   398591,t,0,0,0
   18:27.339   398642,),0,0,2
   18:27.369   398653,(,0,0,0
   18:27.456   398684,p,0,0,0
   18:27.478   398692,),0,0,0
   18:27.525   398709,(,0,0,1
   18:27.678   398764,N,0,0,0
   18:27.822   398816,),0,0,1
   18:27.867   398832,t,0,0,3
   18:27.906   398846,),0,0,2
   18:28.597   399095,(,0,0,0
   18:28.689   399128,p,0,0,0
   18:28.742   399147,),0,0,0
   18:28.811   399172,(,0,0,1
   18:28.864   399191,N,0,0,0
   18:28.906   399206,),0,0,1
   18:28.983   399234,(,0,0,2
   18:29.139   399290,t,0,0,0
   18:29.353   399367,),0,0,2
   18:29.467   399408,(,0,0,0
   18:29.503   399421,p,0,0,0
   18:29.564   399443,),0,0,0
   18:29.622   399464,(,0,0,1
   18:29.731   399503,N,0,0,0
   18:29.806   399530,),0,0,1
   18:29.908   399567,(,0,0,2
   18:30.028   399610,t,0,0,0
   18:30.147   399653,),0,0,2
   18:30.306   399710,(,0,0,0
   18:30.356   399728,p,0,0,0
   18:30.392   399741,),0,0,0
   18:30.469   399769,(,0,0,1
   18:30.528   399790,N,0,0,0
   18:30.553   399799,),0,0,1
   18:30.583   399810,(,0,0,2
   18:30.758   399873,t,0,0,0
   18:30.850   399906,),0,0,2
   18:31.158   400017,(,0,0,0
   18:31.194   400030,p,0,0,0
   18:31.228   400042,),0,0,0
   18:31.250   400050,(,0,0,1
   18:31.300   400068,N,0,0,0
   18:31.431   400115,),0,0,1
   18:31.478   400132,t,0,0,3
   18:31.519   400147,),0,0,2
   18:31.761   400234,(,0,0,1
   18:31.786   400243,N,0,0,0
   18:31.803   400249,),0,0,1
   18:31.806   400250,t,0,0,3
   18:31.944   400300,),0,0,2
   18:32.014   400325,(,0,0,0
   18:32.119   400363,p,0,0,0
   18:32.169   400381,),0,0,0
   18:32.194   400390,(,0,0,1
   18:32.439   400478,N,0,0,0
   18:32.597   400535,),0,0,1
   18:32.608   400539,(,0,0,2
   18:32.656   400556,t,0,0,0
   18:32.700   400572,),0,0,2
   18:33.194   400750,(,0,0,0
   18:33.247   400769,p,0,0,0
   18:33.372   400814,),0,0,0
   18:33.406   400826,(,0,0,1
   18:33.542   400875,N,0,0,0
   18:33.544   400876,),0,0,1
   18:33.689   400928,(,0,0,2
   18:33.733   400944,t,0,0,0
   18:33.775   400959,),0,0,2
   18:34.686   401287,(,0,0,0
   18:34.728   401302,p,0,0,0
   18:34.825   401337,),0,0,0
   18:34.944   401380,(,0,0,1
   18:34.961   401386,N,0,0,0
   18:35.003   401401,),0,0,1
   18:35.556   401600,(,0,0,2
   18:35.592   401613,t,0,0,0
   18:35.633   401628,),0,0,2
   18:36.161   401818,(,0,0,0
   18:36.200   401832,p,0,0,0
   18:36.244   401848,),0,0,0
   18:36.378   401896,(,0,0,1
   18:36.431   401915,N,0,0,0
   18:36.464   401927,),0,0,1
   18:36.486   401935,(,0,0,2
   18:36.669   402001,t,0,0,0
   18:36.831   402059,),0,0,2
   18:36.958   402105,(,0,0,1
   18:37.128   402166,N,0,0,0
   18:37.306   402230,),0,0,1
   18:37.344   402244,t,0,0,2
   18:37.511   402304,),0,0,2
   18:37.547   402317,(,0,0,0
   18:37.625   402345,p,0,0,0
   18:37.722   402380,),0,0,0
   18:37.744   402388,(,0,0,1
   18:37.844   402424,N,0,0,0
   18:37.847   402425,),0,0,1
   18:37.864   402431,(,0,0,2
   18:38.139   402530,t,0,0,0
   18:38.353   402607,),0,0,2
   18:56.700   409212,(,0,0,0
   18:56.772   409238,p,0,0,0
   18:56.878   409276,),0,0,0
   18:57.022   409328,(,0,0,1
   18:57.119   409363,N,0,0,0
   18:57.122   409364,),0,0,1
   18:57.147   409373,(,0,0,2
   18:57.325   409437,t,0,0,0
   18:57.631   409547,),0,0,2
   19:13.058   415101,(,0,0,1
   19:13.142   415131,N,0,0,0
   19:13.144   415132,),0,0,1
   19:13.164   415139,(,0,0,2
   19:13.322   415196,t,0,0,0
   19:13.539   415274,),0,0,2
   19:21.572   418166,(,0,0,1
   19:21.703   418213,N,0,0,0
   19:21.867   418272,),0,0,1
   19:21.886   418279,(,0,0,2
   19:22.003   418321,t,0,0,0
   19:22.219   418399,),0,0,2
   20:11.889   436280,(,0,0,0
   20:11.917   436290,p,0,0,0
   20:12.031   436331,),0,0,0
   20:12.050   436338,(,0,0,1
   20:12.133   436368,N,0,0,0
   20:12.164   436379,),0,0,1
   20:12.408   436467,(,0,0,2
   20:12.625   436545,t,0,0,4
   20:12.922   436652,t,0,0,4
   20:12.953   436663,),0,0,2
   20:13.533   436872,(,0,0,0
   20:13.561   436882,p,0,0,0
   20:13.678   436924,),0,0,0
   20:13.706   436934,(,0,0,1
   20:13.769   436957,N,0,0,0
   20:13.797   436967,),0,0,1
   20:13.811   436972,(,0,0,2
   20:13.942   437019,t,0,0,5
   20:14.325   437157,t,0,0,5
   20:14.383   437178,),0,0,2
   20:14.397   437183,(,0,0,0
   20:14.464   437207,p,0,0,0
   20:14.547   437237,),0,0,0
   20:14.608   437259,(,0,0,1
   20:14.675   437283,N,0,0,0
   20:14.783   437322,),0,0,1
   20:18.775   438759,(,0,0,0
   20:18.808   438771,p,0,0,0
   20:18.886   438799,),0,0,0
   20:18.942   438819,(,0,0,1
   20:19.028   438850,N,0,0,0
   20:19.103   438877,),0,0,1
   20:19.169   438901,(,0,0,2
   20:19.342   438963,t,0,0,5
   20:19.553   439039,t,0,0,5
   20:19.594   439054,),0,0,2
   20:19.708   439095,(,0,0,0
   20:19.803   439129,p,0,0,0
   20:19.844   439144,),0,0,0
   20:19.897   439163,(,0,0,1
   20:19.958   439185,N,0,0,0
   20:19.986   439195,),0,0,1
   20:20.186   439267,(,0,0,2
   20:20.211   439276,t,0,0,5
   20:20.411   439348,t,0,0,5
   20:20.447   439361,),0,0,2
   20:20.539   439394,(,0,0,0
   20:20.642   439431,p,0,0,0
   20:20.694   439450,),0,0,0
   20:20.706   439454,(,0,0,1
   20:20.800   439488,N,0,0,0
   20:20.828   439498,),0,0,1
   20:21.019   439567,(,0,0,2
   20:21.239   439646,t,0,0,1
   20:21.394   439702,),0,0,2
   20:21.406   439706,(,0,0,0
   20:21.472   439730,p,0,0,0
   20:21.564   439763,),0,0,0
   20:21.594   439774,(,0,0,1
   20:21.692   439809,N,0,0,0
   20:21.731   439823,),0,0,1
