Elapsedtime,sample,Type,Sub,Chan,Num
0:00.761,274,(,0,0,0
0:00.794,286,p,0,0,0
0:00.850,306,),0,0,0
0:00.928,334,(,0,0,1
0:00.969,349,N,0,0,0
0:01.025,369,),0,0,1
0:01.125,405,(,0,0,2
0:01.203,433,t,0,0,0
0:01.311,472,),0,0,2
0:01.497,539,(,0,0,0
0:01.544,556,p,0,0,0
0:01.603,577,),0,0,0
0:01.664,599,(,0,0,1
0:01.711,616,N,0,0,0
0:01.761,634,),0,0,1
0:01.850,666,(,0,0,2
0:01.936,697,t,0,0,0
0:02.033,732,),0,0,2
0:02.228,802,(,0,0,0
0:02.278,820,p,0,0,0
0:02.336,841,),0,0,0
0:02.369,853,(,0,0,1
0:02.442,879,N,0,0,0
0:02.497,899,),0,0,1
0:02.536,913,(,0,0,2
0:02.678,964,t,0,0,5
0:02.769,997,t,0,0,5
0:02.842,1023,),0,0,2
0:03.000,1080,(,0,0,0
0:03.044,1096,p,0,0,0
0:03.083,1110,),0,0,0
0:03.117,1122,(,0,0,1
0:03.161,1138,N,0,0,0
0:03.214,1157,),0,0,1
0:03.294,1186,(,0,0,2
0:03.392,1221,t,0,0,0
0:03.489,1256,),0,0,2
0:03.678,1324,(,0,0,0
0:03.717,1338,p,0,0,0
0:03.781,1361,),0,0,0
0:03.847,1385,(,0,0,1
0:03.889,1400,N,0,0,0
0:03.939,1418,),0,0,1
0:03.994,1438,(,0,0,2
0:04.100,1476,t,0,0,0
0:04.222,1520,),0,0,2
0:04.403,1585,(,0,0,0
0:04.442,1599,p,0,0,0
0:04.503,1621,),0,0,0
0:04.531,1631,(,0,0,1
0:04.625,1665,N,0,0,0
0:04.678,1684,),0,0,1
0:04.769,1717,(,0,0,2
0:04.883,1758,t,0,0,0
0:04.933,1776,),0,0,2
0:05.136,1849,(,0,0,0
0:05.178,1864,p,0,0,0
0:05.228,1882,),0,0,0
0:05.247,1889,(,0,0,1
0:05.350,1926,N,0,0,0
0:05.397,1943,),0,0,1
0:05.428,1954,(,0,0,2
0:05.503,1981,t,0,0,4
0:05.608,2019,t,0,0,4
0:05.664,2039,),0,0,2
0:05.906,2126,(,0,0,0
0:05.950,2142,p,0,0,0
0:05.994,2158,),0,0,0
0:06.006,2162,(,0,0,1
0:06.108,2199,N,0,0,0
0:06.156,2216,),0,0,1
0:06.286,2263,(,0,0,2
0:06.358,2289,t,0,0,5
0:06.444,2320,t,0,0,5
0:06.542,2355,),0,0,2
0:06.639,2390,(,0,0,0
0:06.672,2402,p,0,0,0
0:06.728,2422,),0,0,0
0:06.742,2427,(,0,0,1
0:06.850,2466,N,0,0,0
0:06.900,2484,),0,0,1
0:06.978,2512,(,0,0,2
0:07.003,2521,t,0,0,4
0:07.100,2556,t,0,0,4
0:07.158,2577,),0,0,2
0:07.358,2649,(,0,0,0
0:07.397,2663,p,0,0,0
0:07.450,2682,),0,0,0
0:07.472,2690,(,0,0,1
0:07.569,2725,N,0,0,0
0:07.619,2743,),0,0,1
0:07.703,2773,(,0,0,2
0:07.792,2805,t,0,0,0
0:07.892,2841,),0,0,2
0:08.072,2906,(,0,0,0
0:08.117,2922,p,0,0,0
0:08.172,2942,),0,0,0
0:08.192,2949,(,0,0,1
0:08.289,2984,N,0,0,0
0:08.339,3002,),0,0,1
0:08.467,3048,(,0,0,2
0:08.544,3076,t,0,0,0
0:08.589,3092,),0,0,2
0:08.628,3106,(,0,0,0
0:08.678,3124,p,0,0,0
0:08.764,3155,),0,0,0
0:08.911,3208,(,0,0,1
0:09.008,3243,N,0,0,0
0:09.056,3260,),0,0,1
0:09.072,3266,(,0,0,2
0:09.156,3296,t,0,0,4
0:09.386,3379,t,0,0,4
0:09.467,3408,),0,0,2
0:09.508,3423,(,0,0,0
0:09.550,3438,p,0,0,0
0:09.611,3460,),0,0,0
0:09.633,3468,(,0,0,1
0:09.728,3502,N,0,0,0
0:09.778,3520,),0,0,1
0:09.875,3555,(,0,0,2
0:09.986,3595,t,0,0,0
0:10.061,3622,),0,0,2
0:10.239,3686,(,0,0,0
0:10.286,3703,p,0,0,0
0:10.339,3722,),0,0,0
0:10.369,3733,(,0,0,1
0:10.450,3762,N,0,0,0
0:10.500,3780,),0,0,1
0:10.639,3830,(,0,0,2
0:10.703,3853,t,0,0,0
0:10.753,3871,),0,0,2
0:10.964,3947,(,0,0,0
0:11.000,3960,p,0,0,0
0:11.039,3974,),0,0,0
0:11.072,3986,(,0,0,1
0:11.183,4026,N,0,0,0
0:11.231,4043,),0,0,1
0:11.372,4094,(,0,0,2
0:11.442,4119,t,0,0,5
0:11.506,4142,t,0,0,5
0:11.583,4170,),0,0,2
0:11.728,4222,(,0,0,0
0:11.764,4235,p,0,0,0
0:11.814,4253,),0,0,0
0:11.839,4262,(,0,0,1
0:11.942,4299,N,0,0,0
0:11.989,4316,),0,0,1
0:12.097,4355,(,0,0,2
0:12.178,4384,t,0,0,5
0:12.267,4416,t,0,0,5
0:12.353,4447,),0,0,2
0:12.606,4538,(,0,0,1
0:12.692,4569,N,0,0,0
0:12.742,4587,),0,0,1
0:12.819,4615,(,0,0,2
0:12.911,4648,t,0,0,0
0:13.006,4682,),0,0,2
0:13.239,4766,(,0,0,0
0:13.281,4781,p,0,0,0
0:13.333,4800,),0,0,0
0:13.344,4804,(,0,0,1
0:13.444,4840,N,0,0,0
0:13.494,4858,),0,0,1
0:13.631,4907,(,0,0,2
0:13.706,4934,t,0,0,0
0:13.775,4959,),0,0,2
0:14.003,5041,(,0,0,0
0:14.039,5054,p,0,0,0
0:14.092,5073,),0,0,0
0:14.106,5078,(,0,0,1
0:14.206,5114,N,0,0,0
0:14.256,5132,),0,0,1
0:14.317,5154,(,0,0,2
0:14.367,5172,t,0,0,4
0:14.458,5205,t,0,0,4
0:14.531,5231,),0,0,2
0:14.758,5313,(,0,0,0
0:14.800,5328,p,0,0,0
0:14.847,5345,),0,0,0
0:14.867,5352,(,0,0,1
0:14.964,5387,N,0,0,0
0:15.011,5404,),0,0,1
0:15.111,5440,(,0,0,2
0:15.214,5477,t,0,0,5
0:15.303,5509,t,0,0,5
0:15.350,5526,),0,0,2
0:15.522,5588,(,0,0,0
0:15.561,5602,p,0,0,0
0:15.633,5628,),0,0,0
0:15.664,5639,(,0,0,1
0:15.725,5661,N,0,0,0
0:15.781,5681,),0,0,1
0:15.875,5715,(,0,0,2
0:15.964,5747,t,0,0,5
0:16.128,5806,t,0,0,5
0:16.161,5818,),0,0,2
0:16.250,5850,(,0,0,0
0:16.289,5864,p,0,0,0
0:16.347,5885,),0,0,0
0:16.417,5910,(,0,0,1
0:16.461,5926,N,0,0,0
0:16.514,5945,),0,0,1
0:16.614,5981,(,0,0,2
0:16.700,6012,t,0,0,0
0:16.778,6040,),0,0,2
0:17.003,6121,(,0,0,0
0:17.039,6134,p,0,0,0
0:17.092,6153,),0,0,0
0:17.139,6170,(,0,0,1
0:17.203,6193,N,0,0,0
0:17.253,6211,),0,0,1
0:17.325,6237,(,0,0,2
0:17.419,6271,t,0,0,0
0:17.508,6303,),0,0,2
0:17.739,6386,(,0,0,0
0:17.778,6400,p,0,0,0
0:17.833,6420,),0,0,0
0:17.900,6444,(,0,0,1
0:17.939,6458,N,0,0,0
0:17.992,6477,),0,0,1
0:18.067,6504,(,0,0,2
0:18.164,6539,t,0,0,0
0:18.253,6571,),0,0,2
0:18.497,6659,(,0,0,0
0:18.533,6672,p,0,0,0
0:18.592,6693,),0,0,0
0:18.644,6712,(,0,0,1
0:18.697,6731,N,0,0,0
0:18.753,6751,),0,0,1
0:18.836,6781,(,0,0,2
0:18.919,6811,t,0,0,0
0:19.022,6848,),0,0,2
0:19.244,6928,(,0,0,0
0:19.286,6943,p,0,0,0
0:19.344,6964,),0,0,0
0:19.406,6986,(,0,0,1
0:19.486,7015,N,0,0,0
0:19.514,7025,),0,0,1
0:19.639,7070,(,0,0,2
0:19.697,7091,t,0,0,0
0:19.786,7123,),0,0,2
0:19.967,7188,(,0,0,0
0:20.011,7204,p,0,0,0
0:20.078,7228,),0,0,0
0:20.136,7249,(,0,0,1
0:20.172,7262,N,0,0,0
0:20.228,7282,),0,0,1
0:20.269,7297,(,0,0,2
0:20.400,7344,t,0,0,0
0:20.500,7380,),0,0,2
0:20.678,7444,(,0,0,0
0:20.725,7461,p,0,0,0
0:20.786,7483,),0,0,0
0:20.836,7501,(,0,0,1
0:20.900,7524,N,0,0,0
0:20.956,7544,),0,0,1
0:20.997,7559,(,0,0,2
0:21.125,7605,t,0,0,5
0:21.217,7638,t,0,0,5
0:21.275,7659,),0,0,2
0:21.319,7675,(,0,0,0
0:21.372,7694,p,0,0,0
0:21.406,7706,),0,0,0
0:21.542,7755,(,0,0,1
0:21.597,7775,N,0,0,0
0:21.650,7794,),0,0,1
0:21.689,7808,(,0,0,2
0:21.822,7856,t,0,0,0
0:21.908,7887,),0,0,2
0:22.072,7946,(,0,0,0
0:22.119,7963,p,0,0,0
0:22.169,7981,),0,0,0
0:22.244,8008,(,0,0,1
0:22.289,8024,N,0,0,0
0:22.342,8043,),0,0,1
0:22.422,8072,(,0,0,2
0:22.525,8109,t,0,0,0
0:22.611,8140,),0,0,2
0:22.761,8194,(,0,0,0
0:22.808,8211,p,0,0,0
0:22.875,8235,),0,0,0
0:22.933,8256,(,0,0,1
0:22.981,8273,N,0,0,0
0:23.033,8292,),0,0,1
0:23.106,8318,(,0,0,2
0:23.200,8352,t,0,0,0
0:23.303,8389,),0,0,2
0:23.467,8448,(,0,0,0
0:23.503,8461,p,0,0,0
0:23.567,8484,),0,0,0
0:23.636,8509,(,0,0,1
0:23.675,8523,N,0,0,0
0:23.731,8543,),0,0,1
0:23.856,8588,(,0,0,2
0:23.911,8608,t,0,0,5
0:24.000,8640,t,0,0,5
0:24.061,8662,),0,0,2
0:24.178,8704,(,0,0,0
0:24.222,8720,p,0,0,0
0:24.286,8743,),0,0,0
0:24.344,8764,(,0,0,1
0:24.392,8781,N,0,0,0
0:24.447,8801,),0,0,1
0:24.536,8833,(,0,0,2
0:24.628,8866,t,0,0,0
0:24.717,8898,),0,0,2
0:24.942,8979,(,0,0,0
0:24.983,8994,p,0,0,0
0:25.033,9012,),0,0,0
0:25.106,9038,(,0,0,1
0:25.144,9052,N,0,0,0
0:25.197,9071,),0,0,1
0:25.258,9093,(,0,0,2
0:25.369,9133,t,0,0,0
0:25.458,9165,),0,0,2
0:25.703,9253,(,0,0,0
0:25.747,9269,p,0,0,0
0:25.806,9290,),0,0,0
0:25.867,9312,(,0,0,1
0:25.914,9329,N,0,0,0
0:25.967,9348,),0,0,1
0:26.003,9361,(,0,0,2
0:26.144,9412,t,0,0,0
0:26.236,9445,),0,0,2
0:26.567,9564,(,0,0,1
0:26.661,9598,N,0,0,0
0:26.706,9614,),0,0,1
0:26.808,9651,(,0,0,2
0:26.908,9687,t,0,0,0
0:26.969,9709,),0,0,2
0:27.319,9835,(,0,0,1
0:27.419,9871,N,0,0,0
0:27.467,9888,),0,0,1
0:27.578,9928,(,0,0,2
0:27.675,9963,t,0,0,5
0:27.747,9989,t,0,0,5
0:27.833,10020,),0,0,2
0:27.997,10079,(,0,0,0
0:28.036,10093,p,0,0,0
0:28.089,10112,),0,0,0
0:28.108,10119,(,0,0,1
0:28.211,10156,N,0,0,0
0:28.258,10173,),0,0,1
0:28.375,10215,(,0,0,2
0:28.475,10251,t,0,0,0
0:28.544,10276,),0,0,2
0:28.692,10329,(,0,0,0
0:28.769,10357,p,0,0,0
0:28.825,10377,),0,0,0
0:28.911,10408,(,0,0,1
0:28.992,10437,N,0,0,0
0:29.039,10454,),0,0,1
0:29.122,10484,(,0,0,2
0:29.228,10522,t,0,0,5
0:29.303,10549,t,0,0,5
0:29.375,10575,),0,0,2
0:29.567,10644,(,0,0,0
0:29.608,10659,p,0,0,0
0:29.658,10677,),0,0,0
0:29.678,10684,(,0,0,1
0:29.769,10717,N,0,0,0
0:29.817,10734,),0,0,1
0:29.928,10774,(,0,0,2
0:30.022,10808,t,0,0,5
0:30.097,10835,t,0,0,5
0:30.142,10851,),0,0,2
0:30.322,10916,(,0,0,0
0:30.361,10930,p,0,0,0
0:30.411,10948,),0,0,0
0:30.428,10954,(,0,0,1
0:30.525,10989,N,0,0,0
0:30.575,11007,),0,0,1
0:30.689,11048,(,0,0,2
0:30.786,11083,t,0,0,5
0:30.858,11109,t,0,0,5
0:30.914,11129,),0,0,2
0:31.072,11186,(,0,0,0
0:31.108,11199,p,0,0,0
0:31.164,11219,),0,0,0
0:31.222,11240,(,0,0,1
0:31.275,11259,N,0,0,0
0:31.328,11278,),0,0,1
0:31.372,11294,(,0,0,2
0:31.494,11338,t,0,0,0
0:31.600,11376,),0,0,2
0:31.833,11460,(,0,0,0
0:31.872,11474,p,0,0,0
0:31.925,11493,),0,0,0
0:31.989,11516,(,0,0,1
0:32.031,11531,N,0,0,0
0:32.083,11550,),0,0,1
0:32.139,11570,(,0,0,2
0:32.267,11616,t,0,0,0
0:32.350,11646,),0,0,2
0:32.586,11731,(,0,0,0
0:32.617,11742,p,0,0,0
0:32.683,11766,),0,0,0
0:32.744,11788,(,0,0,1
0:32.792,11805,N,0,0,0
0:32.847,11825,),0,0,1
0:32.922,11852,(,0,0,2
0:33.019,11887,t,0,0,0
0:33.122,11924,),0,0,2
0:33.339,12002,(,0,0,0
0:33.378,12016,p,0,0,0
0:33.439,12038,),0,0,0
0:33.511,12064,(,0,0,1
0:33.550,12078,N,0,0,0
0:33.606,12098,),0,0,1
0:33.675,12123,(,0,0,2
0:33.778,12160,t,0,0,0
0:33.875,12195,),0,0,2
0:34.122,12284,(,0,0,0
0:34.164,12299,p,0,0,0
0:34.214,12317,),0,0,0
0:34.283,12342,(,0,0,1
0:34.328,12358,N,0,0,0
0:34.375,12375,),0,0,1
0:34.422,12392,(,0,0,2
0:34.536,12433,t,0,0,0
0:34.647,12473,),0,0,2
0:34.914,12569,(,0,0,0
0:34.947,12581,p,0,0,0
0:35.008,12603,),0,0,0
0:35.025,12609,(,0,0,1
0:35.117,12642,N,0,0,0
0:35.172,12662,),0,0,1
0:35.236,12685,(,0,0,2
0:35.344,12724,t,0,0,0
0:35.431,12755,),0,0,2
0:35.689,12848,(,0,0,0
0:35.728,12862,p,0,0,0
0:35.789,12884,),0,0,0
0:35.853,12907,(,0,0,1
0:35.897,12923,N,0,0,0
0:35.947,12941,),0,0,1
0:36.014,12965,(,0,0,2
0:36.106,12998,t,0,0,0
0:36.206,13034,),0,0,2
0:36.481,13133,(,0,0,0
0:36.522,13148,p,0,0,0
0:36.578,13168,),0,0,0
0:36.592,13173,(,0,0,1
0:36.689,13208,N,0,0,0
0:36.739,13226,),0,0,1
0:36.875,13275,(,0,0,2
0:36.956,13304,t,0,0,5
0:37.036,13333,t,0,0,5
0:37.092,13353,),0,0,2
0:37.286,13423,(,0,0,0
0:37.344,13444,p,0,0,0
0:37.381,13457,),0,0,0
0:37.392,13461,(,0,0,1
0:37.494,13498,N,0,0,0
0:37.544,13516,),0,0,1
0:37.578,13528,(,0,0,2
0:37.631,13547,t,0,0,4
0:37.744,13588,t,0,0,4
0:37.803,13609,),0,0,2
0:38.078,13708,(,0,0,0
0:38.117,13722,p,0,0,0
0:38.167,13740,),0,0,0
0:38.183,13746,(,0,0,1
0:38.278,13780,N,0,0,0
0:38.328,13798,),0,0,1
0:38.619,13903,(,0,0,2
0:38.683,13926,t,0,0,0
0:38.756,13952,),0,0,2
0:38.831,13979,(,0,0,0
0:38.867,13992,p,0,0,0
0:38.914,14009,),0,0,0
0:38.944,14020,(,0,0,1
0:39.044,14056,N,0,0,0
0:39.089,14072,),0,0,1
0:39.200,14112,(,0,0,2
0:39.292,14145,t,0,0,0
0:39.353,14167,),0,0,2
0:39.594,14254,(,0,0,0
0:39.636,14269,p,0,0,0
0:39.689,14288,),0,0,0
0:39.708,14295,(,0,0,1
0:39.808,14331,N,0,0,0
0:39.856,14348,),0,0,1
0:40.006,14402,(,0,0,2
0:40.061,14422,t,0,0,0
0:40.117,14442,),0,0,2
0:40.375,14535,(,0,0,0
0:40.414,14549,p,0,0,0
0:40.464,14567,),0,0,0
0:40.486,14575,(,0,0,1
0:40.583,14610,N,0,0,0
0:40.633,14628,),0,0,1
0:40.756,14672,(,0,0,2
0:40.847,14705,t,0,0,5
0:40.928,14734,t,0,0,5
0:40.992,14757,),0,0,2
0:41.117,14802,(,0,0,0
0:41.153,14815,p,0,0,0
0:41.206,14834,),0,0,0
0:41.222,14840,(,0,0,1
0:41.322,14876,N,0,0,0
0:41.369,14893,),0,0,1
0:41.497,14939,(,0,0,2
0:41.572,14966,t,0,0,5
0:41.653,14995,t,0,0,5
0:41.714,15017,),0,0,2
0:41.883,15078,(,0,0,0
0:41.917,15090,p,0,0,0
0:41.969,15109,),0,0,0
0:41.992,15117,(,0,0,1
0:42.089,15152,N,0,0,0
0:42.139,15170,),0,0,1
0:42.203,15193,(,0,0,2
0:42.231,15203,t,0,0,1
0:42.319,15235,),0,0,2
0:42.661,15358,(,0,0,0
0:42.703,15373,p,0,0,0
0:42.761,15394,),0,0,0
0:42.828,15418,(,0,0,1
0:42.872,15434,N,0,0,0
0:42.925,15453,),0,0,1
0:43.008,15483,(,0,0,2
0:43.106,15518,t,0,0,0
0:43.194,15550,),0,0,2
0:43.428,15634,(,0,0,0
0:43.467,15648,p,0,0,0
0:43.519,15667,),0,0,0
0:43.564,15683,(,0,0,1
0:43.631,15707,N,0,0,0
0:43.683,15726,),0,0,1
0:43.736,15745,(,0,0,2
0:43.858,15789,t,0,0,0
0:43.950,15822,),0,0,2
0:44.194,15910,(,0,0,0
0:44.231,15923,p,0,0,0
0:44.289,15944,),0,0,0
0:44.353,15967,(,0,0,1
0:44.397,15983,N,0,0,0
0:44.450,16002,),0,0,1
0:44.525,16029,(,0,0,2
0:44.622,16064,t,0,0,0
0:44.717,16098,),0,0,2
0:44.986,16195,(,0,0,0
0:45.028,16210,p,0,0,0
0:45.086,16231,),0,0,0
0:45.133,16248,(,0,0,1
0:45.189,16268,N,0,0,0
0:45.244,16288,),0,0,1
0:45.303,16309,(,0,0,2
0:45.414,16349,t,0,0,0
0:45.514,16385,),0,0,2
0:45.825,16497,(,0,0,0
0:45.864,16511,p,0,0,0
0:45.917,16530,),0,0,0
0:45.969,16549,(,0,0,1
0:46.028,16570,N,0,0,0
0:46.081,16589,),0,0,1
0:46.133,16608,(,0,0,2
0:46.256,16652,t,0,0,0
0:46.347,16685,),0,0,2
0:46.650,16794,(,0,0,0
0:46.689,16808,p,0,0,0
0:46.744,16828,),0,0,0
0:46.800,16848,(,0,0,1
0:46.853,16867,N,0,0,0
0:46.908,16887,),0,0,1
0:46.964,16907,(,0,0,2
0:47.078,16948,t,0,0,0
0:47.178,16984,),0,0,2
0:47.472,17090,(,0,0,0
0:47.511,17104,p,0,0,0
0:47.569,17125,),0,0,0
0:47.631,17147,(,0,0,1
0:47.675,17163,N,0,0,0
0:47.728,17182,),0,0,1
0:47.808,17211,(,0,0,2
0:47.906,17246,t,0,0,0
0:47.997,17279,),0,0,2
0:48.281,17381,(,0,0,0
0:48.317,17394,p,0,0,0
0:48.369,17413,),0,0,0
0:48.428,17434,(,0,0,1
0:48.475,17451,N,0,0,0
0:48.525,17469,),0,0,1
0:48.572,17486,(,0,0,2
0:48.703,17533,t,0,0,0
0:48.800,17568,),0,0,2
0:49.044,17656,(,0,0,0
0:49.083,17670,p,0,0,0
0:49.133,17688,),0,0,0
0:49.169,17701,(,0,0,1
0:49.244,17728,N,0,0,0
0:49.294,17746,),0,0,1
0:49.397,17783,(,0,0,2
0:49.456,17804,t,0,0,5
0:49.569,17845,t,0,0,5
0:49.628,17866,),0,0,2
0:49.814,17933,(,0,0,0
0:49.850,17946,p,0,0,0
0:49.897,17963,),0,0,0
0:49.936,17977,(,0,0,1
0:50.050,18018,N,0,0,0
0:50.075,18027,),0,0,1
0:50.269,18097,(,0,0,2
0:50.336,18121,t,0,0,1
0:50.392,18141,),0,0,2
0:50.572,18206,(,0,0,0
0:50.611,18220,p,0,0,0
0:50.669,18241,),0,0,0
0:50.703,18253,(,0,0,1
0:50.803,18289,N,0,0,0
0:50.822,18296,),0,0,1
0:50.886,18319,(,0,0,2
0:51.017,18366,t,0,0,0
0:51.097,18395,),0,0,2
0:51.353,18487,(,0,0,0
0:51.389,18500,p,0,0,0
0:51.439,18518,),0,0,0
0:51.469,18529,(,0,0,1
0:51.553,18559,N,0,0,0
0:51.603,18577,),0,0,1
0:51.639,18590,(,0,0,2
0:51.775,18639,t,0,0,5
0:51.889,18680,t,0,0,5
0:51.936,18697,),0,0,2
0:52.158,18777,(,0,0,0
0:52.200,18792,p,0,0,0
0:52.256,18812,),0,0,0
0:52.306,18830,(,0,0,1
0:52.392,18861,N,0,0,0
0:52.414,18869,),0,0,1
0:52.419,18871,(,0,0,2
0:52.581,18929,t,0,0,0
0:52.683,18966,),0,0,2
0:52.953,19063,(,0,0,0
0:52.992,19077,p,0,0,0
0:53.042,19095,),0,0,0
0:53.100,19116,(,0,0,1
0:53.150,19134,N,0,0,0
0:53.200,19152,),0,0,1
0:53.231,19163,(,0,0,2
0:53.369,19213,t,0,0,0
0:53.469,19249,),0,0,2
0:53.722,19340,(,0,0,0
0:53.764,19355,p,0,0,0
0:53.819,19375,),0,0,0
0:53.872,19394,(,0,0,1
0:53.922,19412,N,0,0,0
0:53.975,19431,),0,0,1
0:54.022,19448,(,0,0,2
0:54.147,19493,t,0,0,0
0:54.244,19528,),0,0,2
0:54.497,19619,(,0,0,0
0:54.533,19632,p,0,0,0
0:54.589,19652,),0,0,0
0:54.639,19670,(,0,0,1
0:54.722,19700,N,0,0,0
0:54.744,19708,),0,0,1
0:54.817,19734,(,0,0,2
0:54.922,19772,t,0,0,0
0:55.025,19809,),0,0,2
0:55.294,19906,(,0,0,0
0:55.333,19920,p,0,0,0
0:55.386,19939,),0,0,0
0:55.439,19958,(,0,0,1
0:55.525,19989,N,0,0,0
0:55.553,19999,),0,0,1
0:55.625,20025,(,0,0,2
0:55.728,20062,t,0,0,0
0:55.828,20098,),0,0,2
0:56.106,20198,(,0,0,0
0:56.144,20212,p,0,0,0
0:56.200,20232,),0,0,0
0:56.264,20255,(,0,0,1
0:56.333,20280,N,0,0,0
0:56.358,20289,),0,0,1
0:56.419,20311,(,0,0,2
0:56.531,20351,t,0,0,0
0:56.636,20389,),0,0,2
0:56.914,20489,(,0,0,0
0:56.953,20503,p,0,0,0
0:57.006,20522,),0,0,0
0:57.069,20545,(,0,0,1
0:57.111,20560,N,0,0,0
0:57.164,20579,),0,0,1
0:57.203,20593,(,0,0,2
0:57.331,20639,t,0,0,0
0:57.425,20673,),0,0,2
0:57.667,20760,(,0,0,0
0:57.708,20775,p,0,0,0
0:57.761,20794,),0,0,0
0:57.828,20818,(,0,0,1
0:57.872,20834,N,0,0,0
0:57.928,20854,),0,0,1
0:58.003,20881,(,0,0,2
0:58.103,20917,t,0,0,0
0:58.192,20949,),0,0,2
0:58.439,21038,(,0,0,0
0:58.481,21053,p,0,0,0
0:58.533,21072,),0,0,0
0:58.597,21095,(,0,0,1
0:58.642,21111,N,0,0,0
0:58.694,21130,),0,0,1
0:58.772,21158,(,0,0,2
0:58.872,21194,t,0,0,0
0:58.969,21229,),0,0,2
0:59.231,21323,(,0,0,0
0:59.272,21338,p,0,0,0
0:59.328,21358,),0,0,0
0:59.381,21377,(,0,0,1
0:59.431,21395,N,0,0,0
0:59.483,21414,),0,0,1
0:59.553,21439,(,0,0,2
0:59.656,21476,t,0,0,0
0:59.753,21511,),0,0,2
1:00.042,21615,(,0,0,0
1:00.081,21629,p,0,0,0
1:00.136,21649,),0,0,0
1:00.203,21673,(,0,0,1
1:00.247,21689,N,0,0,0
1:00.300,21708,),0,0,1
1:00.350,21726,(,0,0,2
1:00.467,21768,t,0,0,0
1:00.569,21805,),0,0,2
1:00.900,21924,(,0,0,0
1:00.944,21940,p,0,0,0
1:01.000,21960,),0,0,0
1:01.061,21982,(,0,0,1
1:01.131,22007,N,0,0,0
1:01.156,22016,),0,0,1
1:01.208,22035,(,0,0,2
1:01.333,22080,t,0,0,0
1:01.428,22114,),0,0,2
1:01.744,22228,(,0,0,0
1:01.783,22242,p,0,0,0
1:01.836,22261,),0,0,0
1:01.881,22277,(,0,0,1
1:01.944,22300,N,0,0,0
1:01.997,22319,),0,0,1
1:02.042,22335,(,0,0,2
1:02.169,22381,t,0,0,0
1:02.264,22415,),0,0,2
1:02.569,22525,(,0,0,0
1:02.608,22539,p,0,0,0
1:02.661,22558,),0,0,0
1:02.711,22576,(,0,0,1
1:02.792,22605,N,0,0,0
1:02.811,22612,),0,0,1
1:02.883,22638,(,0,0,2
1:02.981,22673,t,0,0,0
1:03.083,22710,),0,0,2
1:03.392,22821,(,0,0,0
1:03.433,22836,p,0,0,0
1:03.489,22856,),0,0,0
1:03.542,22875,(,0,0,1
1:03.594,22894,N,0,0,0
1:03.644,22912,),0,0,1
1:03.708,22935,(,0,0,2
1:03.814,22973,t,0,0,0
1:03.922,23012,),0,0,2
1:04.239,23126,(,0,0,0
1:04.281,23141,p,0,0,0
1:04.333,23160,),0,0,0
1:04.403,23185,(,0,0,1
1:04.472,23210,N,0,0,0
1:04.500,23220,),0,0,1
1:04.564,23243,(,0,0,2
1:04.681,23285,t,0,0,0
1:04.778,23320,),0,0,2
1:05.061,23422,(,0,0,0
1:05.100,23436,p,0,0,0
1:05.147,23453,),0,0,0
1:05.214,23477,(,0,0,1
1:05.258,23493,N,0,0,0
1:05.311,23512,),0,0,1
1:05.372,23534,(,0,0,2
1:05.478,23572,t,0,0,0
1:05.581,23609,),0,0,2
1:05.847,23705,(,0,0,0
1:05.886,23719,p,0,0,0
1:05.942,23739,),0,0,0
1:06.008,23763,(,0,0,1
1:06.050,23778,N,0,0,0
1:06.103,23797,),0,0,1
1:06.161,23818,(,0,0,2
1:06.267,23856,t,0,0,0
1:06.369,23893,),0,0,2
1:06.625,23985,(,0,0,0
1:06.664,23999,p,0,0,0
1:06.714,24017,),0,0,0
1:06.781,24041,(,0,0,1
1:06.828,24058,N,0,0,0
1:06.881,24077,),0,0,1
1:06.944,24100,(,0,0,2
1:07.053,24139,t,0,0,0
1:07.150,24174,),0,0,2
1:07.431,24275,(,0,0,0
1:07.469,24289,p,0,0,0
1:07.519,24307,),0,0,0
1:07.581,24329,(,0,0,1
1:07.661,24358,N,0,0,0
1:07.683,24366,),0,0,1
1:07.747,24389,(,0,0,2
1:07.861,24430,t,0,0,0
1:07.964,24467,),0,0,2
1:08.272,24578,(,0,0,0
1:08.308,24591,p,0,0,0
1:08.358,24609,),0,0,0
1:08.411,24628,(,0,0,1
1:08.467,24648,N,0,0,0
1:08.519,24667,),0,0,1
1:08.586,24691,(,0,0,2
1:08.694,24730,t,0,0,0
1:08.800,24768,),0,0,2
1:09.086,24871,(,0,0,0
1:09.128,24886,p,0,0,0
1:09.186,24907,),0,0,0
1:09.247,24929,(,0,0,1
1:09.322,24956,N,0,0,0
1:09.347,24965,),0,0,1
1:09.414,24989,(,0,0,2
1:09.514,25025,t,0,0,0
1:09.617,25062,),0,0,2
1:09.919,25171,(,0,0,0
1:09.961,25186,p,0,0,0
1:10.011,25204,),0,0,0
1:10.053,25219,(,0,0,1
1:10.150,25254,N,0,0,0
1:10.172,25262,),0,0,1
1:10.236,25285,(,0,0,2
1:10.350,25326,t,0,0,0
1:10.447,25361,),0,0,2
1:10.753,25471,(,0,0,0
1:10.794,25486,p,0,0,0
1:10.847,25505,),0,0,0
1:10.892,25521,(,0,0,1
1:10.953,25543,N,0,0,0
1:11.003,25561,),0,0,1
1:11.072,25586,(,0,0,2
1:11.189,25628,t,0,0,0
1:11.283,25662,),0,0,2
1:11.544,25756,(,0,0,0
1:11.586,25771,p,0,0,0
1:11.639,25790,),0,0,0
1:11.686,25807,(,0,0,1
1:11.767,25836,N,0,0,0
1:11.794,25846,),0,0,1
1:11.858,25869,(,0,0,2
1:11.961,25906,t,0,0,0
1:12.053,25939,),0,0,2
1:12.286,26023,(,0,0,0
1:12.311,26032,p,0,0,0
1:12.361,26050,),0,0,0
1:12.414,26069,(,0,0,1
1:12.497,26099,N,0,0,0
1:12.525,26109,),0,0,1
1:12.558,26121,(,0,0,2
1:12.700,26172,t,0,0,0
1:12.792,26205,),0,0,2
1:12.992,26277,(,0,0,0
1:13.036,26293,p,0,0,0
1:13.092,26313,),0,0,0
1:13.156,26336,(,0,0,1
1:13.231,26363,N,0,0,0
1:13.258,26373,),0,0,1
1:13.342,26403,(,0,0,2
1:13.431,26435,t,0,0,0
1:13.531,26471,),0,0,2
1:13.742,26547,(,0,0,0
1:13.786,26563,p,0,0,0
1:13.839,26582,),0,0,0
1:13.908,26607,(,0,0,1
1:13.978,26632,N,0,0,0
1:14.003,26641,),0,0,1
1:14.028,26650,(,0,0,2
1:14.169,26701,t,0,0,0
1:14.261,26734,),0,0,2
1:14.475,26811,(,0,0,0
1:14.514,26825,p,0,0,0
1:14.572,26846,),0,0,0
1:14.639,26870,(,0,0,1
1:14.706,26894,N,0,0,0
1:14.731,26903,),0,0,1
1:14.808,26931,(,0,0,2
1:14.906,26966,t,0,0,0
1:15.011,27004,),0,0,2
1:15.247,27089,(,0,0,0
1:15.283,27102,p,0,0,0
1:15.336,27121,),0,0,0
1:15.392,27141,(,0,0,1
1:15.469,27169,N,0,0,0
1:15.494,27178,),0,0,1
1:15.550,27198,(,0,0,2
1:15.658,27237,t,0,0,0
1:15.758,27273,),0,0,2
1:16.042,27375,(,0,0,0
1:16.078,27388,p,0,0,0
1:16.133,27408,),0,0,0
1:16.194,27430,(,0,0,1
1:16.242,27447,N,0,0,0
1:16.294,27466,),0,0,1
1:16.322,27476,(,0,0,2
1:16.467,27528,t,0,0,0
1:16.564,27563,),0,0,2
1:16.853,27667,(,0,0,0
1:16.894,27682,p,0,0,0
1:16.947,27701,),0,0,0
1:17.014,27725,(,0,0,1
1:17.056,27740,N,0,0,0
1:17.108,27759,),0,0,1
1:17.153,27775,(,0,0,2
1:17.278,27820,t,0,0,0
1:17.378,27856,),0,0,2
1:17.675,27963,(,0,0,0
1:17.711,27976,p,0,0,0
1:17.764,27995,),0,0,0
1:17.822,28016,(,0,0,1
1:17.869,28033,N,0,0,0
1:17.922,28052,),0,0,1
1:17.994,28078,(,0,0,2
1:18.097,28115,t,0,0,0
1:18.208,28155,),0,0,2
1:18.494,28258,(,0,0,0
1:18.536,28273,p,0,0,0
1:18.589,28292,),0,0,0
1:18.650,28314,(,0,0,1
1:18.719,28339,N,0,0,0
1:18.747,28349,),0,0,1
1:18.789,28364,(,0,0,2
1:18.919,28411,t,0,0,0
1:19.025,28449,),0,0,2
1:19.336,28561,(,0,0,0
1:19.375,28575,p,0,0,0
1:19.425,28593,),0,0,0
1:19.489,28616,(,0,0,1
1:19.561,28642,N,0,0,0
1:19.586,28651,),0,0,1
1:19.656,28676,(,0,0,2
1:19.747,28709,t,0,0,0
1:19.853,28747,),0,0,2
1:20.139,28850,(,0,0,0
1:20.175,28863,p,0,0,0
1:20.231,28883,),0,0,0
1:20.292,28905,(,0,0,1
1:20.339,28922,N,0,0,0
1:20.394,28942,),0,0,1
1:20.458,28965,(,0,0,2
1:20.556,29000,t,0,0,0
1:20.678,29044,),0,0,2
1:20.947,29141,(,0,0,0
1:20.986,29155,p,0,0,0
1:21.036,29173,),0,0,0
1:21.097,29195,(,0,0,1
1:21.142,29211,N,0,0,0
1:21.194,29230,),0,0,1
1:21.256,29252,(,0,0,2
1:21.361,29290,t,0,0,0
1:21.464,29327,),0,0,2
1:21.728,29422,(,0,0,0
1:21.769,29437,p,0,0,0
1:21.822,29456,),0,0,0
1:21.886,29479,(,0,0,1
1:21.958,29505,N,0,0,0
1:21.983,29514,),0,0,1
1:22.056,29540,(,0,0,2
1:22.147,29573,t,0,0,0
1:22.261,29614,),0,0,2
1:22.525,29709,(,0,0,0
1:22.567,29724,p,0,0,0
1:22.622,29744,),0,0,0
1:22.689,29768,(,0,0,1
1:22.761,29794,N,0,0,0
1:22.786,29803,),0,0,1
1:22.856,29828,(,0,0,2
1:22.967,29868,t,0,0,0
1:23.069,29905,),0,0,2
1:23.364,30011,(,0,0,0
1:23.403,30025,p,0,0,0
1:23.458,30045,),0,0,0
1:23.519,30067,(,0,0,1
1:23.589,30092,N,0,0,0
1:23.611,30100,),0,0,1
1:23.672,30122,(,0,0,2
1:23.803,30169,t,0,0,0
1:23.889,30200,),0,0,2
1:24.197,30311,(,0,0,0
1:24.233,30324,p,0,0,0
1:24.289,30344,),0,0,0
1:24.353,30367,(,0,0,1
1:24.419,30391,N,0,0,0
1:24.444,30400,),0,0,1
1:24.503,30421,(,0,0,2
1:24.608,30459,t,0,0,0
1:24.708,30495,),0,0,2
1:24.992,30597,(,0,0,0
1:25.033,30612,p,0,0,0
1:25.086,30631,),0,0,0
1:25.153,30655,(,0,0,1
1:25.222,30680,N,0,0,0
1:25.250,30690,),0,0,1
1:25.303,30709,(,0,0,2
1:25.414,30749,t,0,0,0
1:25.517,30786,),0,0,2
1:25.775,30879,(,0,0,0
1:25.814,30893,p,0,0,0
1:25.872,30914,),0,0,0
1:25.928,30934,(,0,0,1
1:26.003,30961,N,0,0,0
1:26.028,30970,),0,0,1
1:26.106,30998,(,0,0,2
1:26.206,31034,t,0,0,0
1:26.306,31070,),0,0,2
1:26.533,31152,(,0,0,0
1:26.572,31166,p,0,0,0
1:26.625,31185,),0,0,0
1:26.678,31204,(,0,0,1
1:26.753,31231,N,0,0,0
1:26.778,31240,),0,0,1
1:26.831,31259,(,0,0,2
1:26.944,31300,t,0,0,0
1:27.053,31339,),0,0,2
1:27.281,31421,(,0,0,0
1:27.325,31437,p,0,0,0
1:27.383,31458,),0,0,0
1:27.444,31480,(,0,0,1
1:27.517,31506,N,0,0,0
1:27.542,31515,),0,0,1
1:27.589,31532,(,0,0,2
1:27.708,31575,t,0,0,0
1:27.811,31612,),0,0,2
1:28.094,31714,(,0,0,0
1:28.139,31730,p,0,0,0
1:28.192,31749,),0,0,0
1:28.258,31773,(,0,0,1
1:28.331,31799,N,0,0,0
1:28.356,31808,),0,0,1
1:28.414,31829,(,0,0,2
1:28.533,31872,t,0,0,0
1:28.633,31908,),0,0,2
1:28.917,32010,(,0,0,0
1:28.953,32023,p,0,0,0
1:29.006,32042,),0,0,0
1:29.067,32064,(,0,0,1
1:29.136,32089,N,0,0,0
1:29.161,32098,),0,0,1
1:29.197,32111,(,0,0,2
1:29.328,32158,t,0,0,0
1:29.431,32195,),0,0,2
1:29.731,32303,(,0,0,0
1:29.769,32317,p,0,0,0
1:29.831,32339,),0,0,0
1:29.892,32361,(,0,0,1
1:29.961,32386,N,0,0,0
1:29.986,32395,),0,0,1
1:30.019,32407,(,0,0,2
1:30.150,32454,t,0,0,0
1:30.256,32492,),0,0,2
1:30.547,32597,(,0,0,0
1:30.592,32613,p,0,0,0
1:30.647,32633,),0,0,0
1:30.700,32652,(,0,0,1
1:30.781,32681,N,0,0,0
1:30.806,32690,),0,0,1
1:30.853,32707,(,0,0,2
1:30.978,32752,t,0,0,0
1:31.086,32791,),0,0,2
1:31.403,32905,(,0,0,0
1:31.444,32920,p,0,0,0
1:31.497,32939,),0,0,0
1:31.567,32964,(,0,0,1
1:31.639,32990,N,0,0,0
1:31.664,32999,),0,0,1
1:31.706,33014,(,0,0,2
1:31.847,33065,t,0,0,0
1:31.947,33101,),0,0,2
1:32.269,33217,(,0,0,0
1:32.308,33231,p,0,0,0
1:32.364,33251,),0,0,0
1:32.428,33274,(,0,0,1
1:32.497,33299,N,0,0,0
1:32.522,33308,),0,0,1
1:32.569,33325,(,0,0,2
1:32.703,33373,t,0,0,0
1:32.797,33407,),0,0,2
1:33.083,33510,(,0,0,0
1:33.122,33524,p,0,0,0
1:33.175,33543,),0,0,0
1:33.236,33565,(,0,0,1
1:33.314,33593,N,0,0,0
1:33.339,33602,),0,0,1
1:33.389,33620,(,0,0,2
1:33.508,33663,t,0,0,0
1:33.608,33699,),0,0,2
1:33.886,33799,(,0,0,0
1:33.922,33812,p,0,0,0
1:33.972,33830,),0,0,0
1:34.039,33854,(,0,0,1
1:34.108,33879,N,0,0,0
1:34.131,33887,),0,0,1
1:34.186,33907,(,0,0,2
1:34.314,33953,t,0,0,0
1:34.417,33990,),0,0,2
1:34.658,34077,(,0,0,0
1:34.714,34097,p,0,0,0
1:34.761,34114,),0,0,0
1:34.831,34139,(,0,0,1
1:34.903,34165,N,0,0,0
1:34.928,34174,),0,0,1
1:34.994,34198,(,0,0,2
1:35.108,34239,t,0,0,0
1:35.206,34274,),0,0,2
1:35.464,34367,(,0,0,0
1:35.500,34380,p,0,0,0
1:35.561,34402,),0,0,0
1:35.603,34417,(,0,0,1
1:35.692,34449,N,0,0,0
1:35.717,34458,),0,0,1
1:35.806,34490,(,0,0,2
1:35.864,34511,t,0,0,0
1:35.983,34554,),0,0,2
1:36.247,34649,(,0,0,0
1:36.283,34662,p,0,0,0
1:36.336,34681,),0,0,0
1:36.394,34702,(,0,0,1
1:36.469,34729,N,0,0,0
1:36.506,34742,),0,0,1
1:36.606,34778,(,0,0,2
1:36.678,34804,t,0,0,5
1:36.794,34846,t,0,0,5
1:36.833,34860,),0,0,2
1:36.967,34908,(,0,0,0
1:37.011,34924,p,0,0,0
1:37.061,34942,),0,0,0
1:37.167,34980,(,0,0,1
1:37.275,35019,N,0,0,0
1:37.300,35028,),0,0,1
1:37.400,35064,(,0,0,2
1:37.492,35097,t,0,0,0
1:37.600,35136,),0,0,2
1:37.894,35242,(,0,0,0
1:37.925,35253,p,0,0,0
1:37.986,35275,),0,0,0
1:38.006,35282,(,0,0,1
1:38.108,35319,N,0,0,0
1:38.131,35327,),0,0,1
1:38.233,35364,(,0,0,2
1:38.294,35386,t,0,0,0
1:38.397,35423,),0,0,2
1:38.722,35540,(,0,0,0
1:38.786,35563,p,0,0,0
1:38.836,35581,),0,0,0
1:38.886,35599,(,0,0,1
1:38.972,35630,N,0,0,0
1:38.997,35639,),0,0,1
1:39.094,35674,(,0,0,2
1:39.153,35695,t,0,0,0
1:39.261,35734,),0,0,2
1:39.631,35867,(,0,0,0
1:39.686,35887,p,0,0,0
1:39.747,35909,),0,0,0
1:39.772,35918,(,0,0,1
1:39.850,35946,N,0,0,0
1:39.903,35965,),0,0,1
1:39.972,35990,(,0,0,2
1:40.078,36028,t,0,0,0
1:40.186,36067,),0,0,2
1:40.503,36181,(,0,0,0
1:40.561,36202,p,0,0,0
1:40.611,36220,),0,0,0
1:40.669,36241,(,0,0,1
1:40.722,36260,N,0,0,0
1:40.778,36280,),0,0,1
1:40.839,36302,(,0,0,2
1:40.956,36344,t,0,0,0
1:41.067,36384,),0,0,2
1:41.461,36526,(,0,0,0
1:41.486,36535,p,0,0,0
1:41.522,36548,),0,0,0
1:41.550,36558,(,0,0,1
1:41.597,36575,N,0,0,0
1:41.650,36594,),0,0,1
1:41.722,36620,(,0,0,2
1:41.828,36658,t,0,0,5
1:42.097,36755,t,0,0,5
1:42.147,36773,),0,0,2
1:42.267,36816,(,0,0,0
1:42.303,36829,p,0,0,0
1:42.369,36853,),0,0,0
1:42.433,36876,(,0,0,1
1:42.500,36900,N,0,0,0
1:42.525,36909,),0,0,1
1:42.600,36936,(,0,0,2
1:42.692,36969,t,0,0,0
1:42.794,37006,),0,0,2
1:43.081,37109,(,0,0,0
1:43.122,37124,p,0,0,0
1:43.178,37144,),0,0,0
1:43.214,37157,(,0,0,1
1:43.289,37184,N,0,0,0
1:43.344,37204,),0,0,1
1:43.433,37236,(,0,0,2
1:43.517,37266,t,0,0,0
1:43.636,37309,),0,0,2
1:43.886,37399,(,0,0,0
1:43.939,37418,p,0,0,0
1:43.981,37433,),0,0,0
1:44.042,37455,(,0,0,1
1:44.128,37486,N,0,0,0
1:44.156,37496,),0,0,1
1:44.214,37517,(,0,0,2
1:44.339,37562,t,0,0,0
1:44.436,37597,),0,0,2
1:44.692,37689,(,0,0,0
1:44.739,37706,p,0,0,0
1:44.797,37727,),0,0,0
1:44.844,37744,(,0,0,1
1:44.897,37763,N,0,0,0
1:44.953,37783,),0,0,1
1:45.006,37802,(,0,0,2
1:45.136,37849,t,0,0,5
1:45.236,37885,t,0,0,5
1:45.269,37897,),0,0,2
1:45.503,37981,(,0,0,0
1:45.544,37996,p,0,0,0
1:45.606,38018,),0,0,0
1:45.667,38040,(,0,0,1
1:45.711,38056,N,0,0,0
1:45.764,38075,),0,0,1
1:45.842,38103,(,0,0,2
1:45.936,38137,t,0,0,0
1:46.039,38174,),0,0,2
1:46.333,38280,(,0,0,0
1:46.375,38295,p,0,0,0
1:46.431,38315,),0,0,0
1:46.497,38339,(,0,0,1
1:46.569,38365,N,0,0,0
1:46.594,38374,),0,0,1
1:46.647,38393,(,0,0,2
1:46.775,38439,t,0,0,0
1:46.872,38474,),0,0,2
1:47.203,38593,(,0,0,0
1:47.242,38607,p,0,0,0
1:47.300,38628,),0,0,0
1:47.344,38644,(,0,0,1
1:47.406,38666,N,0,0,0
1:47.458,38685,),0,0,1
1:47.514,38705,(,0,0,2
1:47.636,38749,t,0,0,0
1:47.744,38788,),0,0,2
1:48.069,38905,(,0,0,0
1:48.106,38918,p,0,0,0
1:48.158,38937,),0,0,0
1:48.178,38944,(,0,0,1
1:48.267,38976,N,0,0,0
1:48.317,38994,),0,0,1
1:48.369,39013,(,0,0,2
1:48.492,39057,t,0,0,0
1:48.589,39092,),0,0,2
1:48.869,39193,(,0,0,0
1:48.908,39207,p,0,0,0
1:48.961,39226,),0,0,0
1:49.033,39252,(,0,0,1
1:49.103,39277,N,0,0,0
1:49.128,39286,),0,0,1
1:49.186,39307,(,0,0,2
1:49.308,39351,t,0,0,0
1:49.414,39389,),0,0,2
1:49.656,39476,(,0,0,0
1:49.700,39492,p,0,0,0
1:49.747,39509,),0,0,0
1:49.814,39533,(,0,0,1
1:49.894,39562,N,0,0,0
1:49.922,39572,),0,0,1
1:49.953,39583,(,0,0,2
1:50.094,39634,t,0,0,5
1:50.236,39685,t,0,0,5
1:50.286,39703,),0,0,2
1:50.447,39761,(,0,0,0
1:50.486,39775,p,0,0,0
1:50.547,39797,),0,0,0
1:50.608,39819,(,0,0,1
1:50.683,39846,N,0,0,0
1:50.708,39855,),0,0,1
1:50.778,39880,(,0,0,2
1:50.881,39917,t,0,0,0
1:50.975,39951,),0,0,2
1:51.242,40047,(,0,0,0
1:51.286,40063,p,0,0,0
1:51.339,40082,),0,0,0
1:51.406,40106,(,0,0,1
1:51.453,40123,N,0,0,0
1:51.511,40144,),0,0,1
1:51.544,40156,(,0,0,2
1:51.692,40209,t,0,0,0
1:51.786,40243,),0,0,2
1:52.031,40331,(,0,0,0
1:52.067,40344,p,0,0,0
1:52.117,40362,),0,0,0
1:52.178,40384,(,0,0,1
1:52.253,40411,N,0,0,0
1:52.283,40422,),0,0,1
1:52.331,40439,(,0,0,2
1:52.456,40484,t,0,0,5
1:52.669,40561,t,0,0,5
1:52.700,40572,),0,0,2
1:52.792,40605,(,0,0,0
1:52.836,40621,p,0,0,0
1:52.897,40643,),0,0,0
1:52.947,40661,(,0,0,1
1:53.006,40682,N,0,0,0
1:53.058,40701,),0,0,1
1:53.136,40729,(,0,0,2
1:53.233,40764,t,0,0,0
1:53.347,40805,),0,0,2
1:53.578,40888,(,0,0,0
1:53.625,40905,p,0,0,0
1:53.672,40922,),0,0,0
1:53.744,40948,(,0,0,1
1:53.822,40976,N,0,0,0
1:53.844,40984,),0,0,1
1:53.892,41001,(,0,0,2
1:54.017,41046,t,0,0,0
1:54.117,41082,),0,0,2
1:54.342,41163,(,0,0,0
1:54.383,41178,p,0,0,0
1:54.442,41199,),0,0,0
1:54.483,41214,(,0,0,1
1:54.589,41252,N,0,0,0
1:54.614,41261,),0,0,1
1:54.686,41287,(,0,0,2
1:54.794,41326,t,0,0,0
1:54.886,41359,),0,0,2
1:55.147,41453,(,0,0,0
1:55.192,41469,p,0,0,0
1:55.244,41488,),0,0,0
1:55.261,41494,(,0,0,1
1:55.364,41531,N,0,0,0
1:55.417,41550,),0,0,1
1:55.544,41596,(,0,0,2
1:55.631,41627,t,0,0,0
1:55.692,41649,),0,0,2
1:55.983,41754,(,0,0,0
1:56.025,41769,p,0,0,0
1:56.072,41786,),0,0,0
1:56.089,41792,(,0,0,1
1:56.192,41829,N,0,0,0
1:56.242,41847,),0,0,1
1:56.372,41894,(,0,0,2
1:56.456,41924,t,0,0,0
1:56.525,41949,),0,0,2
1:56.842,42063,(,0,0,0
1:56.883,42078,p,0,0,0
1:56.933,42096,),0,0,0
1:56.947,42101,(,0,0,1
1:57.047,42137,N,0,0,0
1:57.097,42155,),0,0,1
1:57.214,42197,(,0,0,2
1:57.300,42228,t,0,0,0
1:57.358,42249,),0,0,2
1:57.675,42363,(,0,0,0
1:57.717,42378,p,0,0,0
1:57.775,42399,),0,0,0
1:57.819,42415,(,0,0,1
1:57.881,42437,N,0,0,0
1:57.931,42455,),0,0,1
1:58.006,42482,(,0,0,2
1:58.111,42520,t,0,0,0
1:58.208,42555,),0,0,2
1:58.525,42669,(,0,0,0
1:58.567,42684,p,0,0,0
1:58.628,42706,),0,0,0
1:58.678,42724,(,0,0,1
1:58.767,42756,N,0,0,0
1:58.789,42764,),0,0,1
1:58.839,42782,(,0,0,2
1:58.972,42830,t,0,0,0
1:59.078,42868,),0,0,2
1:59.414,42989,(,0,0,0
1:59.456,43004,p,0,0,0
1:59.511,43024,),0,0,0
1:59.553,43039,(,0,0,1
1:59.647,43073,N,0,0,0
1:59.669,43081,),0,0,1
1:59.717,43098,(,0,0,2
1:59.844,43144,t,0,0,0
1:59.947,43181,),0,0,2
2:00.272,43298,(,0,0,0
2:00.308,43311,p,0,0,0
2:00.369,43333,),0,0,0
2:00.428,43354,(,0,0,1
2:00.508,43383,N,0,0,0
2:00.533,43392,),0,0,1
2:00.589,43412,(,0,0,2
2:00.700,43452,t,0,0,0
2:00.806,43490,),0,0,2
2:01.100,43596,(,0,0,0
2:01.139,43610,p,0,0,0
2:01.192,43629,),0,0,0
2:01.256,43652,(,0,0,1
2:01.328,43678,N,0,0,0
2:01.356,43688,),0,0,1
2:01.400,43704,(,0,0,2
2:01.531,43751,t,0,0,0
2:01.622,43784,),0,0,2
2:01.869,43873,(,0,0,0
2:01.908,43887,p,0,0,0
2:01.958,43905,),0,0,0
2:02.022,43928,(,0,0,1
2:02.094,43954,N,0,0,0
2:02.122,43964,),0,0,1
2:02.150,43974,(,0,0,2
2:02.292,44025,t,0,0,0
2:02.394,44062,),0,0,2
2:02.631,44147,(,0,0,0
2:02.669,44161,p,0,0,0
2:02.722,44180,),0,0,0
2:02.781,44201,(,0,0,1
2:02.853,44227,N,0,0,0
2:02.881,44237,),0,0,1
2:02.939,44258,(,0,0,2
2:03.047,44297,t,0,0,0
2:03.139,44330,),0,0,2
2:03.361,44410,(,0,0,0
2:03.403,44425,p,0,0,0
2:03.458,44445,),0,0,0
2:03.519,44467,(,0,0,1
2:03.597,44495,N,0,0,0
2:03.625,44505,),0,0,1
2:03.678,44524,(,0,0,2
2:03.800,44568,t,0,0,0
2:03.897,44603,),0,0,2
2:04.119,44683,(,0,0,0
2:04.156,44696,p,0,0,0
2:04.208,44715,),0,0,0
2:04.281,44741,(,0,0,1
2:04.347,44765,N,0,0,0
2:04.372,44774,),0,0,1
2:04.419,44791,(,0,0,2
2:04.564,44843,t,0,0,0
2:04.650,44874,),0,0,2
2:04.886,44959,(,0,0,0
2:04.925,44973,p,0,0,0
2:04.978,44992,),0,0,0
2:05.042,45015,(,0,0,1
2:05.111,45040,N,0,0,0
2:05.136,45049,),0,0,1
2:05.200,45072,(,0,0,2
2:05.322,45116,t,0,0,0
2:05.397,45143,),0,0,2
2:05.617,45222,(,0,0,0
2:05.656,45236,p,0,0,0
2:05.706,45254,),0,0,0
2:05.778,45280,(,0,0,1
2:05.850,45306,N,0,0,0
2:05.875,45315,),0,0,1
2:05.939,45338,(,0,0,2
2:06.061,45382,t,0,0,5
2:06.161,45418,t,0,0,5
2:06.206,45434,),0,0,2
2:06.375,45495,(,0,0,0
2:06.411,45508,p,0,0,0
2:06.458,45525,),0,0,0
2:06.519,45547,(,0,0,1
2:06.597,45575,N,0,0,0
2:06.622,45584,),0,0,1
2:06.664,45599,(,0,0,2
2:06.772,45638,t,0,0,0
2:06.886,45679,),0,0,2
2:07.122,45764,(,0,0,0
2:07.161,45778,p,0,0,0
2:07.211,45796,),0,0,0
2:07.283,45822,(,0,0,1
2:07.353,45847,N,0,0,0
2:07.381,45857,),0,0,1
2:07.492,45897,(,0,0,2
2:07.578,45928,t,0,0,0
2:07.667,45960,),0,0,2
2:07.878,46036,(,0,0,0
2:07.919,46051,p,0,0,0
2:07.975,46071,),0,0,0
2:08.047,46097,(,0,0,1
2:08.117,46122,N,0,0,0
2:08.147,46133,),0,0,1
2:08.239,46166,(,0,0,2
2:08.325,46197,t,0,0,0
2:08.425,46233,),0,0,2
2:08.653,46315,(,0,0,0
2:08.694,46330,p,0,0,0
2:08.753,46351,),0,0,0
2:08.822,46376,(,0,0,1
2:08.889,46400,N,0,0,0
2:08.914,46409,),0,0,1
2:08.956,46424,(,0,0,2
2:09.078,46468,t,0,0,0
2:09.164,46499,),0,0,2
2:09.419,46591,(,0,0,0
2:09.467,46608,p,0,0,0
2:09.514,46625,),0,0,0
2:09.578,46648,(,0,0,1
2:09.617,46662,N,0,0,0
2:09.672,46682,),0,0,1
2:09.747,46709,(,0,0,2
2:09.839,46742,t,0,0,0
2:09.944,46780,),0,0,2
2:10.178,46864,(,0,0,0
2:10.233,46884,p,0,0,0
2:10.294,46906,),0,0,0
2:10.325,46917,(,0,0,1
2:10.439,46958,N,0,0,0
2:10.467,46968,),0,0,1
2:10.519,46987,(,0,0,2
2:10.647,47033,t,0,0,0
2:10.750,47070,),0,0,2
2:11.114,47201,(,0,0,0
2:11.156,47216,p,0,0,0
2:11.211,47236,),0,0,0
2:11.256,47252,(,0,0,1
2:11.311,47272,N,0,0,0
2:11.361,47290,),0,0,1
2:11.417,47310,(,0,0,2
2:11.533,47352,t,0,0,5
2:11.653,47395,t,0,0,5
2:11.725,47421,),0,0,2
2:12.019,47527,(,0,0,0
2:12.067,47544,p,0,0,0
2:12.111,47560,),0,0,0
2:12.136,47569,(,0,0,1
2:12.219,47599,N,0,0,0
2:12.267,47616,),0,0,1
2:12.406,47666,(,0,0,2
2:12.486,47695,t,0,0,5
2:12.733,47784,t,0,0,5
2:12.794,47806,),0,0,2
2:12.933,47856,(,0,0,0
2:12.969,47869,p,0,0,0
2:13.028,47890,),0,0,0
2:13.047,47897,(,0,0,1
2:13.144,47932,N,0,0,0
2:13.194,47950,),0,0,1
2:13.303,47989,(,0,0,2
2:13.325,47997,t,0,0,4
2:13.444,48040,t,0,0,4
2:13.522,48068,),0,0,2
2:13.800,48168,(,0,0,0
2:13.853,48187,p,0,0,0
2:13.903,48205,),0,0,0
2:13.922,48212,(,0,0,1
2:14.022,48248,N,0,0,0
2:14.069,48265,),0,0,1
2:14.186,48307,(,0,0,2
2:14.275,48339,t,0,0,0
2:14.347,48365,),0,0,2
2:14.636,48469,(,0,0,0
2:14.681,48485,p,0,0,0
2:14.733,48504,),0,0,0
2:14.753,48511,(,0,0,1
2:14.853,48547,N,0,0,0
2:14.903,48565,),0,0,1
2:15.447,48761,(,0,0,0
2:15.497,48779,p,0,0,0
2:15.550,48798,),0,0,0
2:15.569,48805,(,0,0,1
2:15.667,48840,N,0,0,0
2:15.714,48857,),0,0,1
2:15.750,48870,(,0,0,2
2:15.853,48907,t,0,0,0
2:15.994,48958,),0,0,2
2:16.278,49060,(,0,0,0
2:16.317,49074,p,0,0,0
2:16.375,49095,),0,0,0
2:16.389,49100,(,0,0,1
2:16.489,49136,N,0,0,0
2:16.539,49154,),0,0,1
2:17.075,49347,(,0,0,0
2:17.122,49364,p,0,0,0
2:17.175,49383,),0,0,0
2:17.192,49389,(,0,0,1
2:17.294,49426,N,0,0,0
2:17.344,49444,),0,0,1
2:17.472,49490,(,0,0,2
2:17.558,49521,t,0,0,5
2:17.631,49547,t,0,0,5
2:17.669,49561,),0,0,2
2:17.875,49635,(,0,0,0
2:17.914,49649,p,0,0,0
2:17.961,49666,),0,0,0
2:17.981,49673,(,0,0,1
2:18.086,49711,N,0,0,0
2:18.133,49728,),0,0,1
2:18.256,49772,(,0,0,2
2:18.350,49806,t,0,0,5
2:18.431,49835,t,0,0,5
2:18.475,49851,),0,0,2
2:18.661,49918,(,0,0,0
2:18.708,49935,p,0,0,0
2:18.753,49951,),0,0,0
2:18.772,49958,(,0,0,1
2:18.872,49994,N,0,0,0
2:18.919,50011,),0,0,1
2:19.039,50054,(,0,0,2
2:19.131,50087,t,0,0,5
2:19.244,50128,t,0,0,5
2:19.328,50158,),0,0,2
2:19.431,50195,(,0,0,0
2:19.467,50208,p,0,0,0
2:19.522,50228,),0,0,0
2:19.533,50232,(,0,0,1
2:19.642,50271,N,0,0,0
2:19.689,50288,),0,0,1
2:19.750,50310,(,0,0,2
2:19.803,50329,t,0,0,4
2:19.900,50364,t,0,0,4
2:19.997,50399,),0,0,2
2:20.203,50473,(,0,0,0
2:20.242,50487,p,0,0,0
2:20.300,50508,),0,0,0
2:20.322,50516,(,0,0,1
2:20.419,50551,N,0,0,0
2:20.469,50569,),0,0,1
2:20.611,50620,(,0,0,2
2:20.681,50645,t,0,0,5
2:20.758,50673,t,0,0,5
2:20.822,50696,),0,0,2
2:21.008,50763,(,0,0,0
2:21.050,50778,p,0,0,0
2:21.097,50795,),0,0,0
2:21.117,50802,(,0,0,1
2:21.217,50838,N,0,0,0
2:21.264,50855,),0,0,1
2:21.403,50905,(,0,0,2
2:21.478,50932,t,0,0,0
2:21.536,50953,),0,0,2
2:21.811,51052,(,0,0,0
2:21.844,51064,p,0,0,0
2:21.894,51082,),0,0,0
2:21.919,51091,(,0,0,1
2:22.022,51128,N,0,0,0
2:22.069,51145,),0,0,1
2:22.236,51205,(,0,0,2
2:22.283,51222,t,0,0,0
2:22.350,51246,),0,0,2
2:22.622,51344,(,0,0,0
2:22.661,51358,p,0,0,0
2:22.717,51378,),0,0,0
2:22.733,51384,(,0,0,1
2:22.839,51422,N,0,0,0
2:22.889,51440,),0,0,1
2:22.964,51467,(,0,0,2
2:23.014,51485,t,0,0,4
2:23.219,51559,t,0,0,4
2:23.325,51597,),0,0,2
2:23.439,51638,(,0,0,0
2:23.486,51655,p,0,0,0
2:23.536,51673,),0,0,0
2:23.561,51682,(,0,0,1
2:23.658,51717,N,0,0,0
2:23.706,51734,),0,0,1
2:23.978,51832,(,0,0,2
2:24.056,51860,t,0,0,0
2:24.119,51883,),0,0,2
2:24.250,51930,(,0,0,0
2:24.286,51943,p,0,0,0
2:24.347,51965,),0,0,0
2:24.364,51971,(,0,0,1
2:24.456,52004,N,0,0,0
2:24.506,52022,),0,0,1
2:24.667,52080,(,0,0,2
2:24.722,52100,t,0,0,0
2:24.764,52115,),0,0,2
2:24.864,52151,(,0,0,0
2:24.911,52168,p,0,0,0
2:24.964,52187,),0,0,0
2:25.158,52257,(,0,0,1
2:25.261,52294,N,0,0,0
2:25.311,52312,),0,0,1
2:25.439,52358,(,0,0,2
2:25.517,52386,t,0,0,5
2:25.647,52433,t,0,0,5
2:25.697,52451,),0,0,2
2:25.881,52517,(,0,0,0
2:25.919,52531,p,0,0,0
2:25.975,52551,),0,0,0
2:26.000,52560,(,0,0,1
2:26.097,52595,N,0,0,0
2:26.144,52612,),0,0,1
2:26.275,52659,(,0,0,2
2:26.489,52736,t,0,0,0
2:26.661,52798,),0,0,2
2:26.719,52819,(,0,0,0
2:26.758,52833,p,0,0,0
2:26.800,52848,),0,0,0
2:26.822,52856,(,0,0,1
2:26.917,52890,N,0,0,0
2:26.967,52908,),0,0,1
2:27.100,52956,(,0,0,2
2:27.175,52983,t,0,0,0
2:27.222,53000,),0,0,2
2:27.500,53100,(,0,0,0
2:27.539,53114,p,0,0,0
2:27.592,53133,),0,0,0
2:27.608,53139,(,0,0,1
2:27.711,53176,N,0,0,0
2:27.758,53193,),0,0,1
2:27.881,53237,(,0,0,2
2:27.964,53267,t,0,0,5
2:28.083,53310,t,0,0,5
2:28.122,53324,),0,0,2
2:28.289,53384,(,0,0,0
2:28.328,53398,p,0,0,0
2:28.372,53414,),0,0,0
2:28.408,53427,(,0,0,1
2:28.492,53457,N,0,0,0
2:28.544,53476,),0,0,1
2:28.628,53506,(,0,0,2
2:28.731,53543,t,0,0,5
2:28.836,53581,t,0,0,5
2:28.878,53596,),0,0,2
2:29.061,53662,(,0,0,0
2:29.086,53671,p,0,0,0
2:29.139,53690,),0,0,0
2:29.153,53695,(,0,0,1
2:29.253,53731,N,0,0,0
2:29.303,53749,),0,0,1
2:29.442,53799,(,0,0,2
2:29.525,53829,t,0,0,5
2:29.589,53852,t,0,0,5
2:29.644,53872,),0,0,2
2:29.825,53937,(,0,0,0
2:29.861,53950,p,0,0,0
2:29.950,53982,),0,0,0
2:29.978,53992,(,0,0,1
2:30.044,54016,N,0,0,0
2:30.072,54026,),0,0,1
2:30.153,54055,(,0,0,2
2:30.239,54086,t,0,0,5
2:30.344,54124,t,0,0,5
2:30.378,54136,),0,0,2
2:30.542,54195,(,0,0,0
2:30.581,54209,p,0,0,0
2:30.644,54232,),0,0,0
2:30.711,54256,(,0,0,1
2:30.789,54284,N,0,0,0
2:30.817,54294,),0,0,1
2:30.892,54321,(,0,0,2
2:30.986,54355,t,0,0,0
2:31.089,54392,),0,0,2
2:31.294,54466,(,0,0,0
2:31.336,54481,p,0,0,0
2:31.417,54510,),0,0,0
2:31.469,54529,(,0,0,1
2:31.544,54556,N,0,0,0
2:31.569,54565,),0,0,1
2:31.642,54591,(,0,0,2
2:31.742,54627,t,0,0,0
2:31.839,54662,),0,0,2
2:32.056,54740,(,0,0,0
2:32.097,54755,p,0,0,0
2:32.161,54778,),0,0,0
2:32.233,54804,(,0,0,1
2:32.306,54830,N,0,0,0
2:32.331,54839,),0,0,1
2:32.367,54852,(,0,0,2
2:32.508,54903,t,0,0,5
2:32.625,54945,t,0,0,5
2:32.683,54966,),0,0,2
2:32.814,55013,(,0,0,0
2:32.853,55027,p,0,0,0
2:32.917,55050,),0,0,0
2:32.972,55070,(,0,0,1
2:33.064,55103,N,0,0,0
2:33.089,55112,),0,0,1
2:33.150,55134,(,0,0,2
2:33.253,55171,t,0,0,5
2:33.367,55212,t,0,0,5
2:33.419,55231,),0,0,2
2:33.617,55302,(,0,0,0
2:33.664,55319,p,0,0,0
2:33.708,55335,),0,0,0
2:33.736,55345,(,0,0,1
2:33.825,55377,N,0,0,0
2:33.872,55394,),0,0,1
2:33.989,55436,(,0,0,2
2:34.081,55469,t,0,0,5
2:34.161,55498,t,0,0,5
2:34.219,55519,),0,0,2
2:34.428,55594,(,0,0,0
2:34.461,55606,p,0,0,0
2:34.514,55625,),0,0,0
2:34.533,55632,(,0,0,1
2:34.642,55671,N,0,0,0
2:34.689,55688,),0,0,1
2:34.786,55723,(,0,0,2
2:34.822,55736,t,0,0,4
2:34.908,55767,t,0,0,4
2:34.978,55792,),0,0,2
2:35.222,55880,(,0,0,0
2:35.261,55894,p,0,0,0
2:35.328,55918,),0,0,0
2:35.364,55931,(,0,0,1
2:35.450,55962,N,0,0,0
2:35.497,55979,),0,0,1
2:35.725,56061,(,0,0,2
2:35.800,56088,t,0,0,1
2:35.864,56111,),0,0,2
2:35.989,56156,(,0,0,0
2:36.031,56171,p,0,0,0
2:36.075,56187,),0,0,0
2:36.106,56198,(,0,0,1
2:36.211,56236,N,0,0,0
2:36.261,56254,),0,0,1
2:36.397,56303,(,0,0,2
2:36.478,56332,t,0,0,5
2:36.581,56369,t,0,0,5
2:36.658,56397,),0,0,2
2:36.747,56429,(,0,0,0
2:36.792,56445,p,0,0,0
2:36.853,56467,),0,0,0
2:36.872,56474,(,0,0,1
2:36.964,56507,N,0,0,0
2:37.014,56525,),0,0,1
2:37.169,56581,(,0,0,2
2:37.219,56599,t,0,0,0
2:37.272,56618,),0,0,2
2:37.483,56694,(,0,0,0
2:37.522,56708,p,0,0,0
2:37.572,56726,),0,0,0
2:37.589,56732,(,0,0,1
2:37.697,56771,N,0,0,0
2:37.744,56788,),0,0,1
2:37.758,56793,(,0,0,2
2:37.803,56809,t,0,0,4
2:37.961,56866,t,0,0,4
2:38.008,56883,),0,0,2
2:38.208,56955,(,0,0,0
2:38.258,56973,p,0,0,0
2:38.317,56994,),0,0,0
2:38.339,57002,(,0,0,1
2:38.433,57036,N,0,0,0
2:38.483,57054,),0,0,1
2:38.603,57097,(,0,0,2
2:38.750,57150,t,0,0,0
2:38.936,57217,),0,0,2
2:39.050,57258,(,0,0,1
2:39.158,57297,N,0,0,0
2:39.206,57314,),0,0,1
2:39.328,57358,(,0,0,2
2:39.417,57390,t,0,0,0
2:39.497,57419,),0,0,2
2:39.689,57488,(,0,0,0
2:39.733,57504,p,0,0,0
2:39.792,57525,),0,0,0
2:39.808,57531,(,0,0,1
2:39.906,57566,N,0,0,0
2:39.956,57584,),0,0,1
2:40.061,57622,(,0,0,2
2:40.158,57657,t,0,0,5
2:40.231,57683,t,0,0,5
2:40.267,57696,),0,0,2
2:40.444,57760,(,0,0,0
2:40.486,57775,p,0,0,0
2:40.544,57796,),0,0,0
2:40.617,57822,(,0,0,1
2:40.692,57849,N,0,0,0
2:40.717,57858,),0,0,1
2:40.814,57893,(,0,0,2
2:40.894,57922,t,0,0,5
2:41.003,57961,t,0,0,5
2:41.058,57981,),0,0,2
2:41.222,58040,(,0,0,0
2:41.264,58055,p,0,0,0
2:41.317,58074,),0,0,0
2:41.331,58079,(,0,0,1
2:41.428,58114,N,0,0,0
2:41.475,58131,),0,0,1
2:41.600,58176,(,0,0,2
2:41.686,58207,t,0,0,0
2:41.747,58229,),0,0,2
2:41.986,58315,(,0,0,0
2:42.022,58328,p,0,0,0
2:42.078,58348,),0,0,0
2:42.094,58354,(,0,0,1
2:42.194,58390,N,0,0,0
2:42.242,58407,),0,0,1
2:42.411,58468,(,0,0,2
2:42.456,58484,t,0,0,5
2:42.514,58505,t,0,0,5
2:42.575,58527,),0,0,2
2:42.736,58585,(,0,0,0
2:42.781,58601,p,0,0,0
2:42.831,58619,),0,0,0
2:42.847,58625,(,0,0,1
2:42.944,58660,N,0,0,0
2:42.992,58677,),0,0,1
2:43.108,58719,(,0,0,2
2:43.206,58754,t,0,0,0
2:43.272,58778,),0,0,2
2:43.519,58867,(,0,0,0
2:43.558,58881,p,0,0,0
2:43.611,58900,),0,0,0
2:43.625,58905,(,0,0,1
2:43.731,58943,N,0,0,0
2:43.778,58960,),0,0,1
2:43.900,59004,(,0,0,2
2:44.000,59040,t,0,0,5
2:44.081,59069,t,0,0,5
2:44.136,59089,),0,0,2
2:44.336,59161,(,0,0,0
2:44.378,59176,p,0,0,0
2:44.439,59198,),0,0,0
2:44.453,59203,(,0,0,1
2:44.547,59237,N,0,0,0
2:44.597,59255,),0,0,1
2:44.661,59278,(,0,0,2
2:44.708,59295,t,0,0,4
2:44.803,59329,t,0,0,4
2:44.850,59346,),0,0,2
2:45.117,59442,(,0,0,0
2:45.164,59459,p,0,0,0
2:45.219,59479,),0,0,0
2:45.286,59503,(,0,0,1
2:45.361,59530,N,0,0,0
2:45.389,59540,),0,0,1
2:45.472,59570,(,0,0,2
2:45.567,59604,t,0,0,0
2:45.656,59636,),0,0,2
2:45.886,59719,(,0,0,0
2:45.919,59731,p,0,0,0
2:45.972,59750,),0,0,0
2:46.047,59777,(,0,0,1
2:46.114,59801,N,0,0,0
2:46.139,59810,),0,0,1
2:46.239,59846,(,0,0,2
2:46.317,59874,t,0,0,0
2:46.400,59904,),0,0,2
2:46.561,59962,(,0,0,0
2:46.617,59982,p,0,0,0
2:46.675,60003,),0,0,0
2:46.728,60022,(,0,0,1
2:46.819,60055,N,0,0,0
2:46.847,60065,),0,0,1
2:46.881,60077,(,0,0,2
2:47.017,60126,t,0,0,5
2:47.119,60163,t,0,0,5
2:47.164,60179,),0,0,2
2:47.247,60209,(,0,0,0
2:47.300,60228,p,0,0,0
2:47.361,60250,),0,0,0
2:47.444,60280,(,0,0,1
2:47.511,60304,N,0,0,0
2:47.536,60313,),0,0,1
2:47.614,60341,(,0,0,2
2:47.722,60380,t,0,0,5
2:47.806,60410,t,0,0,5
2:47.844,60424,),0,0,2
2:47.936,60457,(,0,0,0
2:47.981,60473,p,0,0,0
2:48.047,60497,),0,0,0
2:48.083,60510,(,0,0,1
2:48.183,60546,N,0,0,0
2:48.208,60555,),0,0,1
2:48.286,60583,(,0,0,2
2:48.358,60609,t,0,0,5
2:48.478,60652,t,0,0,5
2:48.544,60676,),0,0,2
2:48.600,60696,(,0,0,0
2:48.636,60709,p,0,0,0
2:48.708,60735,),0,0,0
2:48.758,60753,(,0,0,1
2:48.847,60785,N,0,0,0
2:48.872,60794,),0,0,1
2:48.972,60830,(,0,0,2
2:49.050,60858,t,0,0,0
2:49.142,60891,),0,0,2
2:49.258,60933,(,0,0,0
2:49.311,60952,p,0,0,0
2:49.367,60972,),0,0,0
2:49.439,60998,(,0,0,1
2:49.514,61025,N,0,0,0
2:49.539,61034,),0,0,1
2:49.639,61070,(,0,0,2
2:49.719,61099,t,0,0,0
2:49.811,61132,),0,0,2
2:49.947,61181,(,0,0,0
2:49.992,61197,p,0,0,0
2:50.056,61220,),0,0,0
2:50.122,61244,(,0,0,1
2:50.200,61272,N,0,0,0
2:50.225,61281,),0,0,1
2:50.328,61318,(,0,0,2
2:50.389,61340,t,0,0,0
2:50.486,61375,),0,0,2
2:50.639,61430,(,0,0,0
2:50.675,61443,p,0,0,0
2:50.739,61466,),0,0,0
2:50.797,61487,(,0,0,1
2:50.872,61514,N,0,0,0
2:50.897,61523,),0,0,1
2:50.953,61543,(,0,0,2
2:51.075,61587,t,0,0,0
2:51.175,61623,),0,0,2
2:51.319,61675,(,0,0,0
2:51.369,61693,p,0,0,0
2:51.433,61716,),0,0,0
2:51.481,61733,(,0,0,1
2:51.558,61761,N,0,0,0
2:51.583,61770,),0,0,1
2:51.608,61779,(,0,0,2
2:51.764,61835,t,0,0,0
2:51.864,61871,),0,0,2
2:52.064,61943,(,0,0,0
2:52.108,61959,p,0,0,0
2:52.147,61973,),0,0,0
2:52.181,61985,(,0,0,1
2:52.242,62007,N,0,0,0
2:52.269,62017,),0,0,1
2:52.344,62044,(,0,0,2
2:52.453,62083,t,0,0,0
2:52.528,62110,),0,0,2
2:52.711,62176,(,0,0,0
2:52.753,62191,p,0,0,0
2:52.817,62214,),0,0,0
2:52.886,62239,(,0,0,1
2:52.958,62265,N,0,0,0
2:52.983,62274,),0,0,1
2:53.058,62301,(,0,0,2
2:53.164,62339,t,0,0,0
2:53.247,62369,),0,0,2
2:53.428,62434,(,0,0,0
2:53.469,62449,p,0,0,0
2:53.544,62476,),0,0,0
2:53.589,62492,(,0,0,1
2:53.678,62524,N,0,0,0
2:53.706,62534,),0,0,1
2:53.764,62555,(,0,0,2
2:53.869,62593,t,0,0,0
2:53.983,62634,),0,0,2
2:54.147,62693,(,0,0,0
2:54.178,62704,p,0,0,0
2:54.228,62722,),0,0,0
2:54.247,62729,(,0,0,1
2:54.347,62765,N,0,0,0
2:54.397,62783,),0,0,1
2:54.444,62800,(,0,0,2
2:54.494,62818,t,0,0,4
2:54.614,62861,t,0,0,4
2:54.658,62877,),0,0,2
2:54.956,62984,(,0,0,1
2:55.053,63019,N,0,0,0
2:55.100,63036,),0,0,1
2:55.278,63100,(,0,0,2
2:55.317,63114,t,0,0,0
2:55.367,63132,),0,0,2
2:55.533,63192,(,0,0,0
2:55.569,63205,p,0,0,0
2:55.617,63222,),0,0,0
2:55.650,63234,(,0,0,1
2:55.736,63265,N,0,0,0
2:55.786,63283,),0,0,1
2:55.917,63330,(,0,0,2
2:56.000,63360,t,0,0,5
2:56.058,63381,t,0,0,5
2:56.111,63400,),0,0,2
2:56.181,63425,(,0,0,0
2:56.233,63444,p,0,0,0
2:56.294,63466,),0,0,0
2:56.319,63475,(,0,0,1
2:56.411,63508,N,0,0,0
2:56.464,63527,),0,0,1
2:56.678,63604,(,0,0,2
2:56.725,63621,t,0,0,1
2:56.778,63640,),0,0,2
2:56.889,63680,(,0,0,0
2:56.933,63696,p,0,0,0
2:56.989,63716,),0,0,0
2:57.003,63721,(,0,0,1
2:57.108,63759,N,0,0,0
2:57.156,63776,),0,0,1
2:57.314,63833,(,0,0,2
2:57.358,63849,t,0,0,5
2:57.483,63894,t,0,0,5
2:57.533,63912,),0,0,2
2:57.581,63929,(,0,0,0
2:57.606,63938,p,0,0,0
2:57.656,63956,),0,0,0
2:57.672,63962,(,0,0,1
2:57.778,64000,N,0,0,0
2:57.831,64019,),0,0,1
2:57.981,64073,(,0,0,2
2:58.058,64101,t,0,0,0
2:58.111,64120,),0,0,2
2:58.239,64166,(,0,0,0
2:58.275,64179,p,0,0,0
2:58.342,64203,),0,0,0
2:58.361,64210,(,0,0,1
2:58.464,64247,N,0,0,0
2:58.514,64265,),0,0,1
2:58.533,64272,(,0,0,2
2:58.622,64304,t,0,0,4
2:58.756,64352,t,0,0,4
2:58.792,64365,),0,0,2
2:59.053,64459,(,0,0,1
2:59.150,64494,N,0,0,0
2:59.203,64513,),0,0,1
2:59.342,64563,(,0,0,2
2:59.411,64588,t,0,0,5
2:59.475,64611,t,0,0,5
2:59.533,64632,),0,0,2
2:59.589,64652,(,0,0,0
2:59.633,64668,p,0,0,0
2:59.706,64694,),0,0,0
2:59.756,64712,(,0,0,1
2:59.839,64742,N,0,0,0
2:59.858,64749,),0,0,1
2:59.961,64786,(,0,0,2
3:00.039,64814,t,0,0,0
3:00.125,64845,),0,0,2
3:00.261,64894,(,0,0,0
3:00.303,64909,p,0,0,0
3:00.356,64928,),0,0,0
3:00.386,64939,(,0,0,1
3:00.472,64970,N,0,0,0
3:00.522,64988,),0,0,1
3:00.564,65003,(,0,0,2
3:00.633,65028,t,0,0,4
3:00.722,65060,t,0,0,4
3:00.781,65081,),0,0,2
3:00.903,65125,(,0,0,0
3:00.958,65145,p,0,0,0
3:01.008,65163,),0,0,0
3:01.022,65168,(,0,0,1
3:01.122,65204,N,0,0,0
3:01.172,65222,),0,0,1
3:01.286,65263,(,0,0,2
3:01.369,65293,t,0,0,0
3:01.425,65313,),0,0,2
3:01.542,65355,(,0,0,0
3:01.597,65375,p,0,0,0
3:01.653,65395,),0,0,0
3:01.719,65419,(,0,0,1
3:01.792,65445,N,0,0,0
3:01.814,65453,),0,0,1
3:01.894,65482,(,0,0,2
3:01.983,65514,t,0,0,0
3:02.078,65548,),0,0,2
3:02.175,65583,(,0,0,0
3:02.236,65605,p,0,0,0
3:02.297,65627,),0,0,0
3:02.364,65651,(,0,0,1
3:02.447,65681,N,0,0,0
3:02.469,65689,),0,0,1
3:02.567,65724,(,0,0,2
3:02.650,65754,t,0,0,0
3:02.731,65783,),0,0,2
3:02.900,65844,(,0,0,0
3:02.953,65863,p,0,0,0
3:02.983,65874,),0,0,0
3:03.000,65880,(,0,0,1
3:03.083,65910,N,0,0,0
3:03.108,65919,),0,0,1
3:03.203,65953,(,0,0,2
3:03.278,65980,t,0,0,0
3:03.358,66009,),0,0,2
3:03.486,66055,(,0,0,0
3:03.514,66065,p,0,0,0
3:03.578,66088,),0,0,0
3:03.631,66107,(,0,0,1
3:03.714,66137,N,0,0,0
3:03.739,66146,),0,0,1
3:03.844,66184,(,0,0,2
3:03.911,66208,t,0,0,5
3:04.056,66260,t,0,0,5
3:04.114,66281,),0,0,2
3:04.128,66286,(,0,0,0
3:04.189,66308,p,0,0,0
3:04.217,66318,),0,0,0
3:04.239,66326,(,0,0,1
3:04.319,66355,N,0,0,0
3:04.342,66363,),0,0,1
3:04.414,66389,(,0,0,2
3:04.514,66425,t,0,0,0
3:04.603,66457,),0,0,2
3:04.686,66487,(,0,0,0
3:04.725,66501,p,0,0,0
3:04.778,66520,),0,0,0
3:04.828,66538,(,0,0,1
3:04.928,66574,N,0,0,0
3:04.953,66583,),0,0,1
3:04.986,66595,(,0,0,2
3:05.125,66645,t,0,0,5
3:05.239,66686,t,0,0,5
3:05.317,66714,),0,0,2
3:05.458,66765,(,0,0,1
3:05.531,66791,N,0,0,0
3:05.558,66801,),0,0,1
3:05.658,66837,(,0,0,2
3:05.736,66865,t,0,0,0
3:05.822,66896,),0,0,2
3:05.936,66937,(,0,0,0
3:05.981,66953,p,0,0,0
3:06.039,66974,),0,0,0
3:06.108,66999,(,0,0,1
3:06.178,67024,N,0,0,0
3:06.203,67033,),0,0,1
3:06.256,67052,(,0,0,2
3:06.389,67100,t,0,0,0
3:06.453,67123,),0,0,2
3:06.675,67203,(,0,0,0
3:06.719,67219,p,0,0,0
3:06.758,67233,),0,0,0
3:06.769,67237,(,0,0,1
3:06.847,67265,N,0,0,0
3:06.875,67275,),0,0,1
3:06.928,67294,(,0,0,2
3:07.058,67341,t,0,0,0
3:07.136,67369,),0,0,2
3:07.328,67438,(,0,0,0
3:07.375,67455,p,0,0,0
3:07.436,67477,),0,0,0
3:07.467,67488,(,0,0,1
3:07.569,67525,N,0,0,0
3:07.594,67534,),0,0,1
3:07.644,67552,(,0,0,2
3:07.753,67591,t,0,0,0
3:07.858,67629,),0,0,2
3:08.114,67721,(,0,0,0
3:08.156,67736,p,0,0,0
3:08.211,67756,),0,0,0
3:08.228,67762,(,0,0,1
3:08.319,67795,N,0,0,0
3:08.369,67813,),0,0,1
3:08.458,67845,(,0,0,2
3:08.586,67891,t,0,0,0
3:08.633,67908,),0,0,2
3:08.897,68003,(,0,0,0
3:08.933,68016,p,0,0,0
3:09.003,68041,),0,0,0
3:09.058,68061,(,0,0,1
3:09.125,68085,N,0,0,0
3:09.150,68094,),0,0,1
3:09.228,68122,(,0,0,2
3:09.347,68165,t,0,0,5
3:09.422,68192,t,0,0,5
3:09.467,68208,),0,0,2
3:09.664,68279,(,0,0,0
3:09.700,68292,p,0,0,0
3:09.747,68309,),0,0,0
3:09.817,68334,(,0,0,1
3:09.886,68359,N,0,0,0
3:09.911,68368,),0,0,1
3:09.961,68386,(,0,0,2
3:10.069,68425,t,0,0,0
3:10.169,68461,),0,0,2
3:10.381,68537,(,0,0,0
3:10.414,68549,p,0,0,0
3:10.469,68569,),0,0,0
3:10.506,68582,(,0,0,1
3:10.600,68616,N,0,0,0
3:10.631,68627,),0,0,1
3:10.686,68647,(,0,0,2
3:10.789,68684,t,0,0,0
3:10.897,68723,),0,0,2
3:11.067,68784,(,0,0,0
3:11.117,68802,p,0,0,0
3:11.175,68823,),0,0,0
3:11.236,68845,(,0,0,1
3:11.306,68870,N,0,0,0
3:11.331,68879,),0,0,1
3:11.394,68902,(,0,0,2
3:11.503,68941,t,0,0,0
3:11.614,68981,),0,0,2
3:11.764,69035,(,0,0,0
3:11.797,69047,p,0,0,0
3:11.842,69063,),0,0,0
3:11.917,69090,(,0,0,1
3:11.986,69115,N,0,0,0
3:12.011,69124,),0,0,1
3:12.072,69146,(,0,0,2
3:12.158,69177,t,0,0,5
3:12.278,69220,t,0,0,5
3:12.314,69233,),0,0,2
3:12.372,69254,(,0,0,0
3:12.422,69272,p,0,0,0
3:12.536,69313,),0,0,0
3:12.556,69320,(,0,0,1
3:12.628,69346,N,0,0,0
3:12.658,69357,),0,0,1
3:12.758,69393,(,0,0,2
3:12.822,69416,t,0,0,0
3:12.922,69452,),0,0,2
3:13.092,69513,(,0,0,0
3:13.142,69531,p,0,0,0
3:13.181,69545,),0,0,0
3:13.200,69552,(,0,0,1
3:13.269,69577,N,0,0,0
3:13.294,69586,),0,0,1
3:13.372,69614,(,0,0,2
3:13.447,69641,t,0,0,0
3:13.553,69679,),0,0,2
3:13.619,69703,(,0,0,0
3:13.689,69728,p,0,0,0
3:13.758,69753,),0,0,0
3:13.825,69777,(,0,0,1
3:13.892,69801,N,0,0,0
3:13.922,69812,),0,0,1
3:13.981,69833,(,0,0,2
3:14.089,69872,t,0,0,0
3:14.178,69904,),0,0,2
3:14.306,69950,(,0,0,0
3:14.331,69959,p,0,0,0
3:14.381,69977,),0,0,0
3:14.442,69999,(,0,0,1
3:14.519,70027,N,0,0,0
3:14.544,70036,),0,0,1
3:14.592,70053,(,0,0,2
3:14.722,70100,t,0,0,0
3:14.806,70130,),0,0,2
3:14.928,70174,(,0,0,0
3:14.975,70191,p,0,0,0
3:15.036,70213,),0,0,0
3:15.072,70226,(,0,0,1
3:15.169,70261,N,0,0,0
3:15.194,70270,),0,0,1
3:15.242,70287,(,0,0,2
3:15.375,70335,t,0,0,0
3:15.456,70364,),0,0,2
3:15.553,70399,(,0,0,0
3:15.586,70411,p,0,0,0
3:15.619,70423,),0,0,0
3:15.761,70474,(,0,0,1
3:15.831,70499,N,0,0,0
3:15.856,70508,),0,0,1
3:15.956,70544,(,0,0,2
3:16.056,70580,t,0,0,0
3:16.122,70604,),0,0,2
3:16.281,70661,(,0,0,0
3:16.331,70679,p,0,0,0
3:16.389,70700,),0,0,0
3:16.439,70718,(,0,0,1
3:16.511,70744,N,0,0,0
3:16.539,70754,),0,0,1
3:16.619,70783,(,0,0,2
3:16.708,70815,t,0,0,0
3:16.803,70849,),0,0,2
3:17.003,70921,(,0,0,0
3:17.053,70939,p,0,0,0
3:17.133,70968,),0,0,0
3:17.167,70980,(,0,0,1
3:17.242,71007,N,0,0,0
3:17.267,71016,),0,0,1
3:17.372,71054,(,0,0,2
3:17.458,71085,t,0,0,0
3:17.531,71111,),0,0,2
3:17.756,71192,(,0,0,0
3:17.786,71203,p,0,0,0
3:17.833,71220,),0,0,0
3:17.897,71243,(,0,0,1
3:17.969,71269,N,0,0,0
3:17.994,71278,),0,0,1
3:18.042,71295,(,0,0,2
3:18.181,71345,t,0,0,0
3:18.267,71376,),0,0,2
3:18.461,71446,(,0,0,0
3:18.506,71462,p,0,0,0
3:18.564,71483,),0,0,0
3:18.617,71502,(,0,0,1
3:18.692,71529,N,0,0,0
3:18.717,71538,),0,0,1
3:18.775,71559,(,0,0,2
3:18.881,71597,t,0,0,0
3:18.994,71638,),0,0,2
3:19.175,71703,(,0,0,0
3:19.228,71722,p,0,0,0
3:19.294,71746,),0,0,0
3:19.342,71763,(,0,0,1
3:19.417,71790,N,0,0,0
3:19.439,71798,),0,0,1
3:19.494,71818,(,0,0,2
3:19.642,71871,t,0,0,0
3:19.819,71935,),0,0,2
3:19.936,71977,(,0,0,0
3:19.989,71996,p,0,0,0
3:20.047,72017,),0,0,0
3:20.106,72038,(,0,0,1
3:20.178,72064,N,0,0,0
3:20.200,72072,),0,0,1
3:20.253,72091,(,0,0,2
3:20.383,72138,t,0,0,0
3:20.611,72220,),0,0,2
3:20.683,72246,(,0,0,0
3:20.736,72265,p,0,0,0
3:20.792,72285,),0,0,0
3:20.847,72305,(,0,0,1
3:20.925,72333,N,0,0,0
3:20.947,72341,),0,0,1
3:20.983,72354,(,0,0,2
3:21.156,72416,t,0,0,0
3:21.317,72474,),0,0,2
3:21.400,72504,(,0,0,0
3:21.450,72522,p,0,0,0
3:21.511,72544,),0,0,0
3:21.569,72565,(,0,0,1
3:21.636,72589,N,0,0,0
3:21.661,72598,),0,0,1
3:21.711,72616,(,0,0,2
3:21.883,72678,t,0,0,0
3:21.983,72714,),0,0,2
3:22.136,72769,(,0,0,0
3:22.181,72785,p,0,0,0
3:22.231,72803,),0,0,0
3:22.294,72826,(,0,0,1
3:22.361,72850,N,0,0,0
3:22.389,72860,),0,0,1
3:22.444,72880,(,0,0,2
3:22.547,72917,t,0,0,0
3:22.767,72996,),0,0,2
3:22.817,73014,(,0,0,0
3:22.864,73031,p,0,0,0
3:22.922,73052,),0,0,0
3:22.986,73075,(,0,0,1
3:23.058,73101,N,0,0,0
3:23.086,73111,),0,0,1
3:23.147,73133,(,0,0,2
3:23.278,73180,t,0,0,5
3:23.356,73208,t,0,0,5
3:23.397,73223,),0,0,2
3:23.572,73286,(,0,0,0
3:23.619,73303,p,0,0,0
3:23.656,73316,),0,0,0
3:23.678,73324,(,0,0,1
3:23.756,73352,N,0,0,0
3:23.778,73360,),0,0,1
3:23.806,73370,(,0,0,2
3:23.947,73421,t,0,0,0
3:24.042,73455,),0,0,2
3:24.208,73515,(,0,0,0
3:24.261,73534,p,0,0,0
3:24.336,73561,),0,0,0
3:24.381,73577,(,0,0,1
3:24.453,73603,N,0,0,0
3:24.478,73612,),0,0,1
3:24.542,73635,(,0,0,2
3:24.642,73671,t,0,0,5
3:24.742,73707,t,0,0,5
3:24.781,73721,),0,0,2
3:24.903,73765,(,0,0,0
3:24.956,73784,p,0,0,0
3:25.022,73808,),0,0,0
3:25.081,73829,(,0,0,1
3:25.153,73855,N,0,0,0
3:25.178,73864,),0,0,1
3:25.244,73888,(,0,0,2
3:25.364,73931,t,0,0,0
3:25.450,73962,),0,0,2
3:25.644,74032,(,0,0,0
3:25.689,74048,p,0,0,0
3:25.750,74070,),0,0,0
3:25.803,74089,(,0,0,1
3:25.883,74118,N,0,0,0
3:25.908,74127,),0,0,1
3:25.983,74154,(,0,0,2
3:26.089,74192,t,0,0,0
3:26.239,74246,),0,0,2
3:26.406,74306,(,0,0,0
3:26.450,74322,p,0,0,0
3:26.511,74344,),0,0,0
3:26.567,74364,(,0,0,1
3:26.636,74389,N,0,0,0
3:26.658,74397,),0,0,1
3:26.697,74411,(,0,0,2
3:26.819,74455,t,0,0,0
3:26.928,74494,),0,0,2
3:27.119,74563,(,0,0,0
3:27.167,74580,p,0,0,0
3:27.236,74605,),0,0,0
3:27.292,74625,(,0,0,1
3:27.367,74652,N,0,0,0
3:27.392,74661,),0,0,1
3:27.433,74676,(,0,0,2
3:27.569,74725,t,0,0,0
3:27.656,74756,),0,0,2
3:27.844,74824,(,0,0,0
3:27.900,74844,p,0,0,0
3:27.969,74869,),0,0,0
3:28.011,74884,(,0,0,1
3:28.089,74912,N,0,0,0
3:28.114,74921,),0,0,1
3:28.172,74942,(,0,0,2
3:28.278,74980,t,0,0,0
3:28.372,75014,),0,0,2
3:28.575,75087,(,0,0,0
3:28.617,75102,p,0,0,0
3:28.683,75126,),0,0,0
3:28.719,75139,(,0,0,1
3:28.814,75173,N,0,0,0
3:28.839,75182,),0,0,1
3:28.917,75210,(,0,0,2
3:29.028,75250,t,0,0,0
3:29.111,75280,),0,0,2
3:29.308,75351,(,0,0,0
3:29.350,75366,p,0,0,0
3:29.403,75385,),0,0,0
3:29.453,75403,(,0,0,1
3:29.550,75438,N,0,0,0
3:29.572,75446,),0,0,1
3:29.639,75470,(,0,0,2
3:29.781,75521,t,0,0,0
3:29.864,75551,),0,0,2
3:30.053,75619,(,0,0,0
3:30.097,75635,p,0,0,0
3:30.150,75654,),0,0,0
3:30.214,75677,(,0,0,1
3:30.283,75702,N,0,0,0
3:30.303,75709,),0,0,1
3:30.381,75737,(,0,0,2
3:30.497,75779,t,0,0,0
3:30.575,75807,),0,0,2
3:30.758,75873,(,0,0,0
3:30.817,75894,p,0,0,0
3:30.914,75929,),0,0,0
3:30.933,75936,(,0,0,1
3:31.006,75962,N,0,0,0
3:31.036,75973,),0,0,1
3:31.089,75992,(,0,0,2
3:31.194,76030,t,0,0,0
3:31.289,76064,),0,0,2
3:31.503,76141,(,0,0,0
3:31.542,76155,p,0,0,0
3:31.606,76178,),0,0,0
3:31.658,76197,(,0,0,1
3:31.736,76225,N,0,0,0
3:31.761,76234,),0,0,1
3:31.817,76254,(,0,0,2
3:31.950,76302,t,0,0,0
3:32.033,76332,),0,0,2
3:32.169,76381,(,0,0,0
3:32.272,76418,p,0,0,0
3:32.344,76444,),0,0,0
3:32.406,76466,(,0,0,1
3:32.472,76490,N,0,0,0
3:32.497,76499,),0,0,1
3:32.525,76509,(,0,0,2
3:32.664,76559,t,0,0,0
3:32.775,76599,),0,0,2
3:32.944,76660,(,0,0,0
3:32.992,76677,p,0,0,0
3:33.042,76695,),0,0,0
3:33.058,76701,(,0,0,1
3:33.164,76739,N,0,0,0
3:33.214,76757,),0,0,1
3:33.261,76774,(,0,0,2
3:33.314,76793,t,0,0,4
3:33.422,76832,t,0,0,4
3:33.478,76852,),0,0,2
3:33.636,76909,(,0,0,0
3:33.683,76926,p,0,0,0
3:33.739,76946,),0,0,0
3:33.753,76951,(,0,0,1
3:33.858,76989,N,0,0,0
3:33.908,77007,),0,0,1
3:33.994,77038,(,0,0,2
3:34.125,77085,t,0,0,0
3:34.175,77103,),0,0,2
3:34.419,77191,(,0,0,0
3:34.456,77204,p,0,0,0
3:34.492,77217,),0,0,0
3:34.508,77223,(,0,0,1
3:34.558,77241,N,0,0,0
3:34.606,77258,),0,0,1
3:34.675,77283,(,0,0,2
3:34.744,77308,t,0,0,1
3:34.831,77339,),0,0,2
3:35.033,77412,(,0,0,0
3:35.067,77424,p,0,0,0
3:35.125,77445,),0,0,0
3:35.144,77452,(,0,0,1
3:35.242,77487,N,0,0,0
3:35.292,77505,),0,0,1
3:35.422,77552,(,0,0,2
3:35.550,77598,t,0,0,0
3:35.675,77643,),0,0,2
3:35.694,77650,(,0,0,0
3:35.725,77661,p,0,0,0
3:35.803,77689,),0,0,0
3:35.819,77695,(,0,0,1
3:35.914,77729,N,0,0,0
3:35.961,77746,),0,0,1
3:36.114,77801,(,0,0,2
3:36.172,77822,t,0,0,0
3:36.244,77848,),0,0,2
3:36.481,77933,(,0,0,1
3:36.569,77965,N,0,0,0
3:36.619,77983,),0,0,1
3:36.803,78049,(,0,0,2
3:36.842,78063,t,0,0,5
3:36.914,78089,t,0,0,5
3:36.964,78107,),0,0,2
3:37.128,78166,(,0,0,1
3:37.214,78197,N,0,0,0
3:37.261,78214,),0,0,1
3:37.400,78264,(,0,0,2
3:37.458,78285,t,0,0,0
3:37.503,78301,),0,0,2
3:37.628,78346,(,0,0,0
3:37.678,78364,p,0,0,0
3:37.731,78383,),0,0,0
3:37.750,78390,(,0,0,1
3:37.853,78427,N,0,0,0
3:37.900,78444,),0,0,1
3:38.050,78498,(,0,0,2
3:38.117,78522,t,0,0,0
3:38.164,78539,),0,0,2
3:38.300,78588,(,0,0,0
3:38.339,78602,p,0,0,0
3:38.389,78620,),0,0,0
3:38.422,78632,(,0,0,1
3:38.508,78663,N,0,0,0
3:38.556,78680,),0,0,1
3:38.642,78711,(,0,0,2
3:38.672,78722,t,0,0,4
3:38.775,78759,t,0,0,4
3:38.817,78774,),0,0,2
3:38.953,78823,(,0,0,0
3:38.994,78838,p,0,0,0
3:39.050,78858,),0,0,0
3:39.086,78871,(,0,0,1
3:39.178,78904,N,0,0,0
3:39.225,78921,),0,0,1
3:39.264,78935,(,0,0,2
3:39.431,78995,t,0,0,0
3:39.508,79023,),0,0,2
3:39.644,79072,(,0,0,0
3:39.681,79085,p,0,0,0
3:39.742,79107,),0,0,0
3:39.758,79113,(,0,0,1
3:39.853,79147,N,0,0,0
3:39.900,79164,),0,0,1
3:40.114,79241,(,0,0,2
3:40.178,79264,t,0,0,1
3:40.239,79286,),0,0,2
3:40.339,79322,(,0,0,0
3:40.369,79333,p,0,0,0
3:40.419,79351,),0,0,0
3:40.453,79363,(,0,0,1
3:40.553,79399,N,0,0,0
3:40.603,79417,),0,0,1
3:40.697,79451,(,0,0,2
3:40.803,79489,t,0,0,0
3:40.831,79499,),0,0,2
3:40.933,79536,(,0,0,0
3:40.997,79559,p,0,0,0
3:41.042,79575,),0,0,0
3:41.144,79612,(,0,0,1
3:41.239,79646,N,0,0,0
3:41.286,79663,),0,0,1
3:41.367,79692,(,0,0,2
3:41.486,79735,t,0,0,5
3:41.567,79764,t,0,0,5
3:41.628,79786,),0,0,2
3:41.731,79823,(,0,0,0
3:41.767,79836,p,0,0,0
3:41.831,79859,),0,0,0
3:41.853,79867,(,0,0,1
3:41.944,79900,N,0,0,0
3:41.992,79917,),0,0,1
3:42.069,79945,(,0,0,2
3:42.206,79994,t,0,0,0
3:42.256,80012,),0,0,2
3:42.453,80083,(,0,0,0
3:42.500,80100,p,0,0,0
3:42.547,80117,),0,0,0
3:42.567,80124,(,0,0,1
3:42.661,80158,N,0,0,0
3:42.706,80174,),0,0,1
3:42.775,80199,(,0,0,2
3:42.908,80247,t,0,0,0
3:43.014,80285,),0,0,2
3:43.133,80328,(,0,0,0
3:43.225,80361,p,0,0,0
3:43.278,80380,),0,0,0
3:43.294,80386,(,0,0,1
3:43.386,80419,N,0,0,0
3:43.436,80437,),0,0,1
3:43.611,80500,(,0,0,2
3:43.706,80534,t,0,0,0
3:43.811,80572,),0,0,2
3:43.889,80600,(,0,0,0
3:43.919,80611,p,0,0,0
3:43.944,80620,),0,0,0
3:43.997,80639,(,0,0,1
3:44.094,80674,N,0,0,0
3:44.142,80691,),0,0,1
3:44.258,80733,(,0,0,2
3:44.406,80786,t,0,0,0
3:44.531,80831,),0,0,2
3:44.614,80861,(,0,0,0
3:44.650,80874,p,0,0,0
3:44.700,80892,),0,0,0
3:44.722,80900,(,0,0,1
3:44.811,80932,N,0,0,0
3:44.858,80949,),0,0,1
3:44.967,80988,(,0,0,2
3:45.044,81016,t,0,0,5
3:45.106,81038,t,0,0,5
3:45.181,81065,),0,0,2
3:45.281,81101,(,0,0,0
3:45.319,81115,p,0,0,0
3:45.381,81137,),0,0,0
3:45.397,81143,(,0,0,1
3:45.497,81179,N,0,0,0
3:45.544,81196,),0,0,1
3:45.717,81258,(,0,0,2
3:45.750,81270,t,0,0,0
3:45.797,81287,),0,0,2
3:45.978,81352,(,0,0,0
3:46.025,81369,p,0,0,0
3:46.075,81387,),0,0,0
3:46.092,81393,(,0,0,1
3:46.192,81429,N,0,0,0
3:46.239,81446,),0,0,1
3:46.286,81463,(,0,0,2
3:46.447,81521,t,0,0,0
3:46.497,81539,),0,0,2
3:46.661,81598,(,0,0,0
3:46.708,81615,p,0,0,0
3:46.758,81633,),0,0,0
3:46.781,81641,(,0,0,1
3:46.872,81674,N,0,0,0
3:46.922,81692,),0,0,1
3:47.036,81733,(,0,0,2
3:47.064,81743,t,0,0,4
3:47.217,81798,t,0,0,4
3:47.242,81807,),0,0,2
3:47.319,81835,(,0,0,0
3:47.367,81852,p,0,0,0
3:47.425,81873,),0,0,0
3:47.442,81879,(,0,0,1
3:47.547,81917,N,0,0,0
3:47.597,81935,),0,0,1
3:47.672,81962,(,0,0,2
3:47.717,81978,t,0,0,4
3:47.883,82038,t,0,0,4
3:47.917,82050,),0,0,2
3:48.003,82081,(,0,0,0
3:48.047,82097,p,0,0,0
3:48.114,82121,),0,0,0
3:48.133,82128,(,0,0,1
3:48.225,82161,N,0,0,0
3:48.275,82179,),0,0,1
3:48.408,82227,(,0,0,2
3:48.469,82249,t,0,0,0
3:48.519,82267,),0,0,2
3:48.656,82316,(,0,0,0
3:48.706,82334,p,0,0,0
3:48.761,82354,),0,0,0
3:48.825,82377,(,0,0,1
3:48.903,82405,N,0,0,0
3:48.931,82415,),0,0,1
3:48.994,82438,(,0,0,2
3:49.111,82480,t,0,0,0
3:49.189,82508,),0,0,2
3:49.297,82547,(,0,0,0
3:49.342,82563,p,0,0,0
3:49.408,82587,),0,0,0
3:49.467,82608,(,0,0,1
3:49.544,82636,N,0,0,0
3:49.569,82645,),0,0,1
3:49.622,82664,(,0,0,2
3:49.711,82696,t,0,0,0
3:49.806,82730,),0,0,2
3:49.933,82776,(,0,0,0
3:49.972,82790,p,0,0,0
3:50.031,82811,),0,0,0
3:50.100,82836,(,0,0,1
3:50.175,82863,N,0,0,0
3:50.200,82872,),0,0,1
3:50.264,82895,(,0,0,2
3:50.369,82933,t,0,0,0
3:50.456,82964,),0,0,2
3:50.583,83010,(,0,0,0
3:50.628,83026,p,0,0,0
3:50.683,83046,),0,0,0
3:50.758,83073,(,0,0,1
3:50.828,83098,N,0,0,0
3:50.850,83106,),0,0,1
3:50.906,83126,(,0,0,2
3:51.008,83163,t,0,0,0
3:51.111,83200,),0,0,2
3:51.261,83254,(,0,0,0
3:51.322,83276,p,0,0,0
3:51.381,83297,),0,0,0
3:51.453,83323,(,0,0,1
3:51.522,83348,N,0,0,0
3:51.547,83357,),0,0,1
3:51.617,83382,(,0,0,2
3:51.711,83416,t,0,0,0
3:51.789,83444,),0,0,2
3:51.983,83514,(,0,0,0
3:52.017,83526,p,0,0,0
3:52.075,83547,),0,0,0
3:52.106,83558,(,0,0,1
3:52.214,83597,N,0,0,0
3:52.242,83607,),0,0,1
3:52.300,83628,(,0,0,2
3:52.431,83675,t,0,0,0
3:52.494,83698,),0,0,2
3:52.833,83820,(,0,0,1
3:52.939,83858,N,0,0,0
3:52.958,83865,),0,0,1
3:53.011,83884,(,0,0,2
3:53.158,83937,t,0,0,5
3:53.225,83961,t,0,0,5
3:53.294,83986,),0,0,2
3:53.400,84024,(,0,0,0
3:53.450,84042,p,0,0,0
3:53.522,84068,),0,0,0
3:53.536,84073,(,0,0,1
3:53.631,84107,N,0,0,0
3:53.681,84125,),0,0,1
3:53.778,84160,(,0,0,2
3:53.922,84212,t,0,0,0
3:54.008,84243,),0,0,2
3:54.122,84284,(,0,0,0
3:54.169,84301,p,0,0,0
3:54.203,84313,),0,0,0
3:54.264,84335,(,0,0,1
3:54.344,84364,N,0,0,0
3:54.392,84381,),0,0,1
3:54.758,84513,(,0,0,0
3:54.814,84533,p,0,0,0
3:54.892,84561,),0,0,0
3:54.933,84576,(,0,0,1
3:55.031,84611,N,0,0,0
3:55.081,84629,),0,0,1
3:55.219,84679,(,0,0,2
3:55.242,84687,t,0,0,4
3:55.411,84748,t,0,0,4
3:55.433,84756,),0,0,2
3:55.486,84775,(,0,0,0
3:55.517,84786,p,0,0,0
3:55.572,84806,),0,0,0
3:55.597,84815,(,0,0,1
3:55.697,84851,N,0,0,0
3:55.747,84869,),0,0,1
3:55.864,84911,(,0,0,2
3:55.953,84943,t,0,0,0
3:56.011,84964,),0,0,2
3:56.197,85031,(,0,0,0
3:56.219,85039,p,0,0,0
3:56.275,85059,),0,0,0
3:56.300,85068,(,0,0,1
3:56.419,85111,N,0,0,0
3:56.439,85118,),0,0,1
3:56.556,85160,(,0,0,2
3:56.631,85187,t,0,0,0
3:56.678,85204,),0,0,2
3:56.850,85266,(,0,0,0
3:56.894,85282,p,0,0,0
3:56.953,85303,),0,0,0
3:57.031,85331,(,0,0,1
3:57.100,85356,N,0,0,0
3:57.128,85366,),0,0,1
3:57.189,85388,(,0,0,2
3:57.289,85424,t,0,0,0
3:57.403,85465,),0,0,2
3:57.536,85513,(,0,0,0
3:57.567,85524,p,0,0,0
3:57.622,85544,),0,0,0
3:57.647,85553,(,0,0,1
3:57.739,85586,N,0,0,0
3:57.789,85604,),0,0,1
3:57.967,85668,(,0,0,2
3:58.017,85686,t,0,0,0
3:58.047,85697,),0,0,2
3:58.086,85711,(,0,0,0
3:58.175,85743,p,0,0,0
3:58.219,85759,),0,0,0
3:58.311,85792,(,0,0,1
3:58.417,85830,N,0,0,0
3:58.467,85848,),0,0,1
3:58.561,85882,(,0,0,2
3:58.664,85919,t,0,0,5
3:58.733,85944,t,0,0,5
3:58.778,85960,),0,0,2
3:58.900,86004,(,0,0,0
3:58.939,86018,p,0,0,0
3:58.983,86034,),0,0,0
3:59.000,86040,(,0,0,1
3:59.092,86073,N,0,0,0
3:59.139,86090,),0,0,1
3:59.264,86135,(,0,0,2
3:59.339,86162,t,0,0,5
3:59.406,86186,t,0,0,5
3:59.483,86214,),0,0,2
3:59.597,86255,(,0,0,0
3:59.653,86275,p,0,0,0
3:59.711,86296,),0,0,0
3:59.731,86303,(,0,0,1
3:59.847,86345,N,0,0,0
3:59.867,86352,),0,0,1
3:59.961,86386,(,0,0,2
4:00.078,86428,t,0,0,0
4:00.164,86459,),0,0,2
4:00.356,86528,(,0,0,0
4:00.392,86541,p,0,0,0
4:00.450,86562,),0,0,0
4:00.467,86568,(,0,0,1
4:00.594,86614,N,0,0,0
4:00.617,86622,),0,0,1
4:00.792,86685,(,0,0,2
4:00.833,86700,t,0,0,0
4:00.878,86716,),0,0,2
4:01.039,86774,(,0,0,0
4:01.086,86791,p,0,0,0
4:01.144,86812,),0,0,0
4:01.169,86821,(,0,0,1
4:01.258,86853,N,0,0,0
4:01.308,86871,),0,0,1
4:01.736,87025,(,0,0,0
4:01.775,87039,p,0,0,0
4:01.839,87062,),0,0,0
4:01.903,87085,(,0,0,1
4:01.978,87112,N,0,0,0
4:02.000,87120,),0,0,1
4:02.069,87145,(,0,0,2
4:02.172,87182,t,0,0,0
4:02.269,87217,),0,0,2
4:02.414,87269,(,0,0,0
4:02.472,87290,p,0,0,0
4:02.522,87308,),0,0,0
4:02.594,87334,(,0,0,1
4:02.669,87361,N,0,0,0
4:02.689,87368,),0,0,1
4:02.747,87389,(,0,0,2
4:02.847,87425,t,0,0,0
4:02.958,87465,),0,0,2
4:03.108,87519,(,0,0,0
4:03.164,87539,p,0,0,0
4:03.211,87556,),0,0,0
4:03.269,87577,(,0,0,1
4:03.361,87610,N,0,0,0
4:03.386,87619,),0,0,1
4:03.425,87633,(,0,0,2
4:03.553,87679,t,0,0,0
4:03.642,87711,),0,0,2
4:03.775,87759,(,0,0,0
4:03.839,87782,p,0,0,0
4:03.908,87807,),0,0,0
4:03.933,87816,(,0,0,1
4:04.047,87857,N,0,0,0
4:04.069,87865,),0,0,1
4:04.108,87879,(,0,0,2
4:04.225,87921,t,0,0,5
4:04.333,87960,t,0,0,5
4:04.386,87979,),0,0,2
4:04.483,88014,(,0,0,0
4:04.522,88028,p,0,0,0
4:04.578,88048,),0,0,0
4:04.600,88056,(,0,0,1
4:04.728,88102,N,0,0,0
4:04.750,88110,),0,0,1
4:04.869,88153,(,0,0,2
4:04.997,88199,t,0,0,0
4:05.097,88235,),0,0,2
4:05.158,88257,(,0,0,0
4:05.208,88275,p,0,0,0
4:05.267,88296,),0,0,0
4:05.281,88301,(,0,0,1
4:05.414,88349,N,0,0,0
4:05.433,88356,),0,0,1
4:05.594,88414,(,0,0,2
4:05.642,88431,t,0,0,0
4:05.692,88449,),0,0,2
4:05.769,88477,(,0,0,0
4:05.808,88491,p,0,0,0
4:05.942,88539,),0,0,0
4:05.967,88548,(,0,0,1
4:06.078,88588,N,0,0,0
4:06.131,88607,),0,0,1
4:06.172,88622,(,0,0,2
4:06.256,88652,t,0,0,4
4:06.347,88685,t,0,0,4
4:06.389,88700,),0,0,2
4:06.542,88755,(,0,0,0
4:06.586,88771,p,0,0,0
4:06.633,88788,),0,0,0
4:06.681,88805,(,0,0,1
4:06.792,88845,N,0,0,0
4:06.808,88851,),0,0,1
4:06.933,88896,(,0,0,2
4:07.003,88921,t,0,0,5
4:07.072,88946,t,0,0,5
4:07.150,88974,),0,0,2
4:07.231,89003,(,0,0,0
4:07.278,89020,p,0,0,0
4:07.325,89037,),0,0,0
4:07.347,89045,(,0,0,1
4:07.478,89092,N,0,0,0
4:07.497,89099,),0,0,1
4:07.703,89173,(,0,0,2
4:07.764,89195,t,0,0,1
4:07.828,89218,),0,0,2
4:07.917,89250,(,0,0,0
4:07.956,89264,p,0,0,0
4:08.011,89284,),0,0,0
4:08.042,89295,(,0,0,1
4:08.161,89338,N,0,0,0
4:08.181,89345,),0,0,1
4:08.272,89378,(,0,0,2
4:08.383,89418,t,0,0,0
4:08.422,89432,),0,0,2
4:08.653,89515,(,0,0,0
4:08.694,89530,p,0,0,0
4:08.742,89547,),0,0,0
4:08.764,89555,(,0,0,1
4:08.886,89599,N,0,0,0
4:08.903,89605,),0,0,1
4:08.978,89632,(,0,0,2
4:09.092,89673,t,0,0,5
4:09.194,89710,t,0,0,5
4:09.231,89723,),0,0,2
4:09.403,89785,(,0,0,0
4:09.444,89800,p,0,0,0
4:09.497,89819,),0,0,0
4:09.514,89825,(,0,0,1
4:09.647,89873,N,0,0,0
4:09.667,89880,),0,0,1
4:09.794,89926,(,0,0,2
4:09.825,89937,t,0,0,4
4:09.875,89955,t,0,0,4
4:09.925,89973,),0,0,2
4:10.267,90096,(,0,0,1
4:10.339,90122,N,0,0,0
4:10.389,90140,),0,0,1
4:10.475,90171,(,0,0,2
4:10.603,90217,t,0,0,0
4:10.650,90234,),0,0,2
4:10.842,90303,(,0,0,0
4:10.889,90320,p,0,0,0
4:10.956,90344,),0,0,0
4:11.019,90367,(,0,0,1
4:11.075,90387,N,0,0,0
4:11.122,90404,),0,0,1
4:11.222,90440,(,0,0,2
4:11.378,90496,t,0,0,0
4:11.517,90546,),0,0,2
4:11.642,90591,(,0,0,0
4:11.681,90605,p,0,0,0
4:11.739,90626,),0,0,0
4:11.769,90637,(,0,0,1
4:11.875,90675,N,0,0,0
4:11.894,90682,),0,0,1
4:12.033,90732,(,0,0,2
4:12.083,90750,t,0,0,5
4:12.161,90778,t,0,0,5
4:12.214,90797,),0,0,2
4:12.267,90816,(,0,0,0
4:12.311,90832,p,0,0,0
4:12.372,90854,),0,0,0
4:12.453,90883,(,0,0,1
4:12.556,90920,N,0,0,0
4:12.606,90938,),0,0,1
4:12.708,90975,(,0,0,2
4:12.800,91008,t,0,0,0
4:12.853,91027,),0,0,2
4:13.042,91095,(,0,0,0
4:13.092,91113,p,0,0,0
4:13.144,91132,),0,0,0
4:13.172,91142,(,0,0,1
4:13.258,91173,N,0,0,0
4:13.306,91190,),0,0,1
4:13.439,91238,(,0,0,2
4:13.511,91264,t,0,0,0
4:13.542,91275,),0,0,2
4:13.731,91343,(,0,0,0
4:13.783,91362,p,0,0,0
4:13.842,91383,),0,0,0
4:13.875,91395,(,0,0,1
4:13.953,91423,N,0,0,0
4:14.003,91441,),0,0,1
4:14.050,91458,(,0,0,2
4:14.083,91470,t,0,0,4
4:14.167,91500,t,0,0,4
4:14.286,91543,),0,0,2
4:14.464,91607,(,0,0,0
4:14.506,91622,p,0,0,0
4:14.561,91642,),0,0,0
4:14.578,91648,(,0,0,1
4:14.708,91695,N,0,0,0
4:14.725,91701,),0,0,1
4:14.803,91729,(,0,0,2
4:14.925,91773,t,0,0,5
4:14.997,91799,t,0,0,5
4:15.025,91809,),0,0,2
4:15.217,91878,(,0,0,0
4:15.264,91895,p,0,0,0
4:15.325,91917,),0,0,0
4:15.386,91939,(,0,0,1
4:15.461,91966,N,0,0,0
4:15.486,91975,),0,0,1
4:15.544,91996,(,0,0,2
4:15.644,92032,t,0,0,0
4:15.742,92067,),0,0,2
4:15.981,92153,(,0,0,0
4:16.022,92168,p,0,0,0
4:16.083,92190,),0,0,0
4:16.144,92212,(,0,0,1
4:16.214,92237,N,0,0,0
4:16.239,92246,),0,0,1
4:16.306,92270,(,0,0,2
4:16.397,92303,t,0,0,0
4:16.497,92339,),0,0,2
4:16.700,92412,(,0,0,0
4:16.744,92428,p,0,0,0
4:16.803,92449,),0,0,0
4:16.858,92469,(,0,0,1
4:16.933,92496,N,0,0,0
4:16.958,92505,),0,0,1
4:17.014,92525,(,0,0,2
4:17.106,92558,t,0,0,0
4:17.206,92594,),0,0,2
4:17.394,92662,(,0,0,0
4:17.447,92681,p,0,0,0
4:17.511,92704,),0,0,0
4:17.569,92725,(,0,0,1
4:17.636,92749,N,0,0,0
4:17.664,92759,),0,0,1
4:17.719,92779,(,0,0,2
4:17.814,92813,t,0,0,0
4:17.917,92850,),0,0,2
4:18.114,92921,(,0,0,0
4:18.161,92938,p,0,0,0
4:18.214,92957,),0,0,0
4:18.283,92982,(,0,0,1
4:18.356,93008,N,0,0,0
4:18.381,93017,),0,0,1
4:18.439,93038,(,0,0,2
4:18.539,93074,t,0,0,0
4:18.636,93109,),0,0,2
4:18.839,93182,(,0,0,0
4:18.886,93199,p,0,0,0
4:18.939,93218,),0,0,0
4:18.958,93225,(,0,0,1
4:19.069,93265,N,0,0,0
4:19.092,93273,),0,0,1
4:19.164,93299,(,0,0,2
4:19.242,93327,t,0,0,0
4:19.344,93364,),0,0,2
4:19.578,93448,(,0,0,0
4:19.617,93462,p,0,0,0
4:19.678,93484,),0,0,0
4:19.742,93507,(,0,0,1
4:19.814,93533,N,0,0,0
4:19.839,93542,),0,0,1
4:19.911,93568,(,0,0,2
4:20.003,93601,t,0,0,0
4:20.094,93634,),0,0,2
4:20.331,93719,(,0,0,0
4:20.375,93735,p,0,0,0
4:20.425,93753,),0,0,0
4:20.486,93775,(,0,0,1
4:20.564,93803,N,0,0,0
4:20.592,93813,),0,0,1
4:20.650,93834,(,0,0,2
4:20.750,93870,t,0,0,0
4:20.858,93909,),0,0,2
4:21.067,93984,(,0,0,0
4:21.108,93999,p,0,0,0
4:21.167,94020,),0,0,0
4:21.222,94040,(,0,0,1
4:21.289,94064,N,0,0,0
4:21.317,94074,),0,0,1
4:21.350,94086,(,0,0,2
4:21.469,94129,t,0,0,0
4:21.575,94167,),0,0,2
4:21.750,94230,(,0,0,0
4:21.797,94247,p,0,0,0
4:21.861,94270,),0,0,0
4:21.922,94292,(,0,0,1
4:21.994,94318,N,0,0,0
4:22.022,94328,),0,0,1
4:22.072,94346,(,0,0,2
4:22.175,94383,t,0,0,0
4:22.275,94419,),0,0,2
4:22.456,94484,(,0,0,0
4:22.500,94500,p,0,0,0
4:22.558,94521,),0,0,0
4:22.617,94542,(,0,0,1
4:22.689,94568,N,0,0,0
4:22.717,94578,),0,0,1
4:22.761,94594,(,0,0,2
4:22.869,94633,t,0,0,0
4:22.969,94669,),0,0,2
4:23.175,94743,(,0,0,0
4:23.233,94764,p,0,0,0
4:23.294,94786,),0,0,0
4:23.353,94807,(,0,0,1
4:23.428,94834,N,0,0,0
4:23.447,94841,),0,0,1
4:23.519,94867,(,0,0,2
4:23.614,94901,t,0,0,0
4:23.719,94939,),0,0,2
4:24.011,95044,(,0,0,0
4:24.064,95063,p,0,0,0
4:24.125,95085,),0,0,0
4:24.186,95107,(,0,0,1
4:24.256,95132,N,0,0,0
4:24.278,95140,),0,0,1
4:24.336,95161,(,0,0,2
4:24.444,95200,t,0,0,0
4:24.550,95238,),0,0,2
4:24.864,95351,(,0,0,0
4:24.917,95370,p,0,0,0
4:24.981,95393,),0,0,0
4:25.028,95410,(,0,0,1
4:25.106,95438,N,0,0,0
4:25.125,95445,),0,0,1
4:25.189,95468,(,0,0,2
4:25.289,95504,t,0,0,0
4:25.397,95543,),0,0,2
4:25.747,95669,(,0,0,0
4:25.819,95695,p,0,0,0
4:25.881,95717,),0,0,0
4:25.897,95723,(,0,0,1
4:25.969,95749,N,0,0,0
4:25.994,95758,),0,0,1
4:26.050,95778,(,0,0,2
4:26.158,95817,t,0,0,0
4:26.253,95851,),0,0,2
4:26.583,95970,(,0,0,0
4:26.633,95988,p,0,0,0
4:26.664,95999,),0,0,0
4:26.753,96031,(,0,0,1
4:26.825,96057,N,0,0,0
4:26.847,96065,),0,0,1
4:26.878,96076,(,0,0,2
4:27.014,96125,t,0,0,5
4:27.186,96187,t,0,0,5
4:27.236,96205,),0,0,2
4:27.325,96237,(,0,0,0
4:27.353,96247,p,0,0,0
4:27.381,96257,),0,0,0
4:27.528,96310,(,0,0,1
4:27.647,96353,N,0,0,0
4:27.667,96360,),0,0,1
4:27.819,96415,(,0,0,2
4:27.878,96436,t,0,0,0
4:27.908,96447,),0,0,2
4:28.153,96535,(,0,0,0
4:28.192,96549,p,0,0,0
4:28.242,96567,),0,0,0
4:28.300,96588,(,0,0,1
4:28.361,96610,N,0,0,0
4:28.411,96628,),0,0,1
4:28.461,96646,(,0,0,2
4:28.497,96659,t,0,0,4
4:28.672,96722,t,0,0,4
4:28.700,96732,),0,0,2
4:29.050,96858,(,0,0,1
4:29.128,96886,N,0,0,0
4:29.156,96896,),0,0,1
4:29.236,96925,(,0,0,2
4:29.344,96964,t,0,0,0
4:29.422,96992,),0,0,2
4:29.569,97045,(,0,0,0
4:29.586,97051,p,0,0,0
4:29.706,97094,),0,0,0
4:29.764,97115,(,0,0,1
4:29.844,97144,N,0,0,0
4:29.867,97152,),0,0,1
4:29.953,97183,(,0,0,2
4:30.058,97221,t,0,0,5
4:30.150,97254,t,0,0,5
4:30.200,97272,),0,0,2
4:30.250,97290,(,0,0,0
4:30.319,97315,p,0,0,0
4:30.411,97348,),0,0,0
4:30.442,97359,(,0,0,1
4:30.531,97391,N,0,0,0
4:30.553,97399,),0,0,1
4:30.647,97433,(,0,0,2
4:30.700,97452,t,0,0,5
4:30.878,97516,t,0,0,5
4:30.914,97529,),0,0,2
4:30.997,97559,(,0,0,0
4:31.025,97569,p,0,0,0
4:31.061,97582,),0,0,0
4:31.122,97604,(,0,0,1
4:31.192,97629,N,0,0,0
4:31.244,97648,),0,0,1
4:31.386,97699,(,0,0,2
4:31.508,97743,t,0,0,0
4:31.628,97786,),0,0,2
4:31.636,97789,(,0,0,0
4:31.658,97797,p,0,0,0
4:31.722,97820,),0,0,0
4:31.769,97837,(,0,0,1
4:31.897,97883,N,0,0,0
4:31.914,97889,),0,0,1
4:32.064,97943,(,0,0,2
4:32.147,97973,t,0,0,0
4:32.189,97988,),0,0,2
4:32.272,98018,(,0,0,0
4:32.369,98053,p,0,0,0
4:32.394,98062,),0,0,0
4:32.431,98075,(,0,0,1
4:32.569,98125,N,0,0,0
4:32.594,98134,),0,0,1
4:32.750,98190,(,0,0,2
4:32.800,98208,t,0,0,0
4:32.856,98228,),0,0,2
4:32.992,98277,(,0,0,0
4:33.050,98298,p,0,0,0
4:33.103,98317,),0,0,0
4:33.122,98324,(,0,0,1
4:33.217,98358,N,0,0,0
4:33.272,98378,),0,0,1
4:33.419,98431,(,0,0,2
4:33.547,98477,t,0,0,0
4:33.647,98513,),0,0,2
4:33.658,98517,(,0,0,0
4:33.703,98533,p,0,0,0
4:33.761,98554,),0,0,0
4:33.800,98568,(,0,0,1
4:33.875,98595,N,0,0,0
4:33.925,98613,),0,0,1
4:34.050,98658,(,0,0,2
4:34.136,98689,t,0,0,5
4:34.189,98708,t,0,0,5
4:34.217,98718,),0,0,2
4:34.292,98745,(,0,0,0
4:34.322,98756,p,0,0,0
4:34.350,98766,),0,0,0
4:34.458,98805,(,0,0,1
4:34.575,98847,N,0,0,0
4:34.667,98880,),0,0,1
4:34.708,98895,(,0,0,2
4:34.783,98922,t,0,0,5
4:34.933,98976,t,0,0,5
4:35.028,99010,),0,0,2
4:35.103,99037,(,0,0,1
4:35.231,99083,N,0,0,0
4:35.250,99090,),0,0,1
4:35.350,99126,(,0,0,2
4:35.508,99183,t,0,0,0
4:35.653,99235,),0,0,2
4:35.781,99281,p,0,0,0
4:35.792,99285,),0,0,0
4:35.836,99301,(,0,0,1
4:35.894,99322,N,0,0,0
4:35.942,99339,),0,0,1
4:36.083,99390,(,0,0,2
4:36.150,99414,t,0,0,0
4:36.214,99437,),0,0,2
4:36.428,99514,(,0,0,0
4:36.464,99527,p,0,0,0
4:36.506,99542,),0,0,0
4:36.539,99554,(,0,0,1
4:36.592,99573,N,0,0,0
4:36.644,99592,),0,0,1
4:36.756,99632,(,0,0,2
4:36.839,99662,t,0,0,5
4:36.997,99719,t,0,0,5
4:37.017,99726,),0,0,2
4:37.203,99793,(,0,0,1
4:37.264,99815,N,0,0,0
4:37.314,99833,),0,0,1
4:37.422,99872,(,0,0,2
4:37.506,99902,t,0,0,0
4:37.564,99923,),0,0,2
4:37.744,99988,(,0,0,0
4:37.786,100003,p,0,0,0
4:37.853,100027,),0,0,0
4:37.903,100045,(,0,0,1
4:37.961,100066,N,0,0,0
4:38.008,100083,),0,0,1
4:38.106,100118,(,0,0,2
4:38.200,100152,t,0,0,5
4:38.358,100209,t,0,0,5
4:38.386,100219,),0,0,2
4:38.425,100233,(,0,0,0
4:38.478,100252,p,0,0,0
4:38.519,100267,),0,0,0
4:38.569,100285,(,0,0,1
4:38.636,100309,N,0,0,0
4:38.686,100327,),0,0,1
4:38.786,100363,(,0,0,2
4:38.889,100400,t,0,0,5
4:38.953,100423,t,0,0,5
4:39.014,100445,),0,0,2
4:39.122,100484,(,0,0,0
4:39.164,100499,p,0,0,0
4:39.222,100520,),0,0,0
4:39.272,100538,(,0,0,1
4:39.331,100559,N,0,0,0
4:39.381,100577,),0,0,1
4:39.469,100609,(,0,0,2
4:39.583,100650,t,0,0,0
4:39.631,100667,),0,0,2
4:39.842,100743,(,0,0,0
4:39.894,100762,p,0,0,0
4:39.950,100782,),0,0,0
4:40.003,100801,(,0,0,1
4:40.058,100821,N,0,0,0
4:40.108,100839,),0,0,1
4:40.269,100897,(,0,0,2
4:40.311,100912,t,0,0,5
4:40.369,100933,t,0,0,5
4:40.419,100951,),0,0,2
4:40.569,101005,(,0,0,0
4:40.622,101024,p,0,0,0
4:40.678,101044,),0,0,0
4:40.731,101063,(,0,0,1
4:40.789,101084,N,0,0,0
4:40.839,101102,),0,0,1
4:41.500,101340,(,0,0,1
4:41.553,101359,N,0,0,0
4:41.603,101377,),0,0,1
4:41.778,101440,(,0,0,2
4:41.822,101456,t,0,0,0
4:41.864,101471,),0,0,2
4:42.128,101566,(,0,0,0
4:42.181,101585,p,0,0,0
4:42.203,101593,),0,0,0
4:42.236,101605,(,0,0,1
4:42.289,101624,N,0,0,0
4:42.342,101643,),0,0,1
4:42.478,101692,(,0,0,2
4:42.550,101718,t,0,0,0
4:42.594,101734,),0,0,2
4:42.772,101798,(,0,0,0
4:42.817,101814,p,0,0,0
4:42.872,101834,),0,0,0
4:42.925,101853,(,0,0,1
4:42.981,101873,N,0,0,0
4:43.031,101891,),0,0,1
4:43.133,101928,(,0,0,2
4:43.231,101963,t,0,0,5
4:43.300,101988,t,0,0,5
4:43.358,102009,),0,0,2
4:43.475,102051,(,0,0,0
4:43.531,102071,p,0,0,0
4:43.589,102092,),0,0,0
4:43.642,102111,(,0,0,1
4:43.703,102133,N,0,0,0
4:43.753,102151,),0,0,1
4:43.858,102189,(,0,0,2
4:43.947,102221,t,0,0,0
4:44.003,102241,),0,0,2
4:44.300,102348,(,0,0,0
4:44.353,102367,p,0,0,0
4:44.367,102372,),0,0,0
4:44.400,102384,(,0,0,1
4:44.456,102404,N,0,0,0
4:44.506,102422,),0,0,1
4:44.617,102462,(,0,0,2
4:44.711,102496,t,0,0,0
4:44.772,102518,),0,0,2
4:45.022,102608,(,0,0,0
4:45.081,102629,p,0,0,0
4:45.133,102648,),0,0,0
4:45.178,102664,(,0,0,1
4:45.244,102688,N,0,0,0
4:45.292,102705,),0,0,1
4:45.400,102744,(,0,0,2
4:45.497,102779,t,0,0,5
4:45.594,102814,t,0,0,5
4:45.642,102831,),0,0,2
4:45.861,102910,(,0,0,0
4:45.911,102928,p,0,0,0
4:45.967,102948,),0,0,0
4:46.017,102966,(,0,0,1
4:46.075,102987,N,0,0,0
4:46.122,103004,),0,0,1
4:46.231,103043,(,0,0,2
4:46.319,103075,t,0,0,5
4:46.403,103105,t,0,0,5
4:46.492,103137,),0,0,2
4:46.811,103252,(,0,0,0
4:46.853,103267,p,0,0,0
4:46.897,103283,),0,0,0
4:46.958,103305,(,0,0,1
4:47.019,103327,N,0,0,0
4:47.067,103344,),0,0,1
4:47.164,103379,(,0,0,2
4:47.258,103413,t,0,0,5
4:47.367,103452,t,0,0,5
4:47.458,103485,),0,0,2
4:47.692,103569,(,0,0,0
4:47.736,103585,p,0,0,0
4:47.794,103606,),0,0,0
4:47.847,103625,(,0,0,1
4:47.906,103646,N,0,0,0
4:47.956,103664,),0,0,1
4:48.011,103684,(,0,0,2
4:48.039,103694,t,0,0,4
4:48.147,103733,t,0,0,4
4:48.233,103764,),0,0,2
4:48.603,103897,(,0,0,0
4:48.653,103915,p,0,0,0
4:48.717,103938,),0,0,0
4:48.736,103945,(,0,0,1
4:48.822,103976,N,0,0,0
4:48.872,103994,),0,0,1
4:48.994,104038,(,0,0,2
4:49.061,104062,t,0,0,5
4:49.183,104106,t,0,0,5
4:49.231,104123,),0,0,2
4:49.544,104236,(,0,0,0
4:49.583,104250,p,0,0,0
4:49.650,104274,),0,0,0
4:49.703,104293,(,0,0,1
4:49.758,104313,N,0,0,0
4:49.806,104330,),0,0,1
4:49.914,104369,(,0,0,2
4:50.006,104402,t,0,0,0
4:50.064,104423,),0,0,2
4:50.506,104582,(,0,0,0
4:50.561,104602,p,0,0,0
4:50.617,104622,),0,0,0
4:50.672,104642,(,0,0,1
4:50.731,104663,N,0,0,0
4:50.781,104681,),0,0,1
4:50.819,104695,(,0,0,2
4:50.844,104704,t,0,0,4
4:50.969,104749,t,0,0,4
4:51.067,104784,),0,0,2
4:51.522,104948,(,0,0,0
4:51.567,104964,p,0,0,0
4:51.625,104985,),0,0,0
4:51.675,105003,(,0,0,1
4:51.733,105024,N,0,0,0
4:51.783,105042,),0,0,1
4:51.872,105074,(,0,0,2
4:51.981,105113,t,0,0,5
4:52.064,105143,t,0,0,5
4:52.119,105163,),0,0,2
4:52.467,105288,(,0,0,0
4:52.525,105309,p,0,0,0
4:52.547,105317,),0,0,0
4:52.581,105329,(,0,0,1
4:52.631,105347,N,0,0,0
4:52.681,105365,),0,0,1
4:52.789,105404,(,0,0,2
4:52.867,105432,t,0,0,5
4:52.994,105478,t,0,0,5
4:53.022,105488,),0,0,2
4:53.264,105575,(,0,0,0
4:53.303,105589,p,0,0,0
4:53.353,105607,),0,0,0
4:53.411,105628,(,0,0,1
4:53.469,105649,N,0,0,0
4:53.522,105668,),0,0,1
4:53.636,105709,(,0,0,2
4:53.725,105741,t,0,0,5
4:53.822,105776,t,0,0,5
4:53.850,105786,),0,0,2
4:54.133,105888,(,0,0,0
4:54.167,105900,p,0,0,0
4:54.203,105913,),0,0,0
4:54.275,105939,(,0,0,1
4:54.339,105962,N,0,0,0
4:54.389,105980,),0,0,1
4:54.506,106022,(,0,0,2
4:54.592,106053,t,0,0,0
4:54.644,106072,),0,0,2
4:55.100,106236,(,0,0,0
4:55.147,106253,p,0,0,0
4:55.164,106259,),0,0,0
4:55.197,106271,(,0,0,1
4:55.253,106291,N,0,0,0
4:55.303,106309,),0,0,1
4:55.436,106357,(,0,0,2
4:55.517,106386,t,0,0,5
4:55.647,106433,t,0,0,5
4:55.675,106443,),0,0,2
4:56.014,106565,(,0,0,0
4:56.069,106585,p,0,0,0
4:56.128,106606,),0,0,0
4:56.178,106624,(,0,0,1
4:56.239,106646,N,0,0,0
4:56.289,106664,),0,0,1
4:56.411,106708,(,0,0,2
4:56.500,106740,t,0,0,0
4:56.564,106763,),0,0,2
4:57.025,106929,(,0,0,0
4:57.075,106947,p,0,0,0
4:57.133,106968,),0,0,0
4:57.181,106985,(,0,0,1
4:57.242,107007,N,0,0,0
4:57.289,107024,),0,0,1
4:57.417,107070,(,0,0,2
4:57.492,107097,t,0,0,5
4:57.844,107224,t,0,0,5
4:57.864,107231,),0,0,2
4:58.006,107282,(,0,0,0
4:58.039,107294,p,0,0,0
4:58.106,107318,),0,0,0
4:58.147,107333,(,0,0,1
4:58.219,107359,N,0,0,0
4:58.264,107375,),0,0,1
4:58.375,107415,(,0,0,2
4:58.464,107447,t,0,0,5
4:58.778,107560,t,0,0,5
4:58.803,107569,),0,0,2
4:58.972,107630,(,0,0,0
4:59.022,107648,p,0,0,0
4:59.069,107665,),0,0,0
4:59.119,107683,(,0,0,1
4:59.189,107708,N,0,0,0
4:59.236,107725,),0,0,1
4:59.344,107764,(,0,0,2
4:59.444,107800,t,0,0,5
4:59.536,107833,t,0,0,5
4:59.589,107852,),0,0,2
4:59.917,107970,(,0,0,0
4:59.958,107985,p,0,0,0
5:00.019,108007,),0,0,0
5:00.069,108025,(,0,0,1
5:00.136,108049,N,0,0,0
5:00.186,108067,),0,0,1
5:00.322,108116,(,0,0,2
5:00.392,108141,t,0,0,5
5:00.514,108185,t,0,0,5
5:00.536,108193,),0,0,2
5:00.869,108313,(,0,0,0
5:00.914,108329,p,0,0,0
5:00.967,108348,),0,0,0
5:01.019,108367,(,0,0,1
5:01.083,108390,N,0,0,0
5:01.133,108408,),0,0,1
5:01.175,108423,(,0,0,2
5:01.194,108430,t,0,0,4
5:01.333,108480,t,0,0,4
5:01.408,108507,),0,0,2
5:01.794,108646,(,0,0,0
5:01.839,108662,p,0,0,0
5:01.900,108684,),0,0,0
5:01.947,108701,(,0,0,1
5:02.008,108723,N,0,0,0
5:02.058,108741,),0,0,1
5:02.203,108793,(,0,0,2
5:02.253,108811,t,0,0,0
5:02.317,108834,),0,0,2
5:02.717,108978,(,0,0,0
5:02.750,108990,p,0,0,0
5:02.808,109011,),0,0,0
5:02.853,109027,(,0,0,1
5:02.919,109051,N,0,0,0
5:02.967,109068,),0,0,1
5:03.094,109114,(,0,0,2
5:03.158,109137,t,0,0,0
5:03.225,109161,),0,0,2
5:03.672,109322,(,0,0,0
5:03.708,109335,p,0,0,0
5:03.750,109350,),0,0,0
5:03.825,109377,(,0,0,1
5:03.883,109398,N,0,0,0
5:03.933,109416,),0,0,1
5:04.050,109458,(,0,0,2
5:04.128,109486,t,0,0,5
5:04.217,109518,t,0,0,5
5:04.269,109537,),0,0,2
5:04.644,109672,(,0,0,0
5:04.692,109689,p,0,0,0
5:04.753,109711,),0,0,0
5:04.797,109727,(,0,0,1
5:04.867,109752,N,0,0,0
5:04.917,109770,),0,0,1
5:04.997,109799,(,0,0,2
5:05.025,109809,t,0,0,4
5:05.131,109847,t,0,0,4
5:05.206,109874,),0,0,2
5:05.636,110029,(,0,0,0
5:05.678,110044,p,0,0,0
5:05.694,110050,),0,0,0
5:05.728,110062,(,0,0,1
5:05.792,110085,N,0,0,0
5:05.842,110103,),0,0,1
5:05.964,110147,(,0,0,2
5:06.056,110180,t,0,0,0
5:06.106,110198,),0,0,2
5:06.542,110355,(,0,0,0
5:06.594,110374,p,0,0,0
5:06.608,110379,),0,0,0
5:06.642,110391,(,0,0,1
5:06.703,110413,N,0,0,0
5:06.753,110431,),0,0,1
5:06.861,110470,(,0,0,2
5:06.956,110504,t,0,0,5
5:07.078,110548,t,0,0,5
5:07.108,110559,),0,0,2
5:07.425,110673,(,0,0,0
5:07.472,110690,p,0,0,0
5:07.525,110709,),0,0,0
5:07.564,110723,(,0,0,1
5:07.644,110752,N,0,0,0
5:07.694,110770,),0,0,1
5:07.764,110795,(,0,0,2
5:07.792,110805,t,0,0,4
5:07.903,110845,t,0,0,4
5:07.967,110868,),0,0,2
5:08.325,110997,(,0,0,0
5:08.375,111015,p,0,0,0
5:08.428,111034,),0,0,0
5:08.458,111045,(,0,0,1
5:08.547,111077,N,0,0,0
5:08.600,111096,),0,0,1
5:09.256,111332,(,0,0,0
5:09.306,111350,p,0,0,0
5:09.356,111368,),0,0,0
5:09.403,111385,(,0,0,1
5:09.486,111415,N,0,0,0
5:09.539,111434,),0,0,1
5:09.647,111473,(,0,0,2
5:09.750,111510,t,0,0,0
5:09.828,111538,),0,0,2
5:10.231,111683,(,0,0,0
5:10.286,111703,p,0,0,0
5:10.339,111722,),0,0,0
5:10.392,111741,(,0,0,1
5:10.464,111767,N,0,0,0
5:10.514,111785,),0,0,1
5:10.628,111826,(,0,0,2
5:10.725,111861,t,0,0,5
5:10.819,111895,t,0,0,5
5:10.869,111913,),0,0,2
5:11.144,112012,(,0,0,0
5:11.200,112032,p,0,0,0
5:11.247,112049,),0,0,0
5:11.294,112066,(,0,0,1
5:11.364,112091,N,0,0,0
5:11.414,112109,),0,0,1
5:11.531,112151,(,0,0,2
5:11.622,112184,t,0,0,5
5:11.717,112218,t,0,0,5
5:11.767,112236,),0,0,2
5:12.017,112326,(,0,0,0
5:12.058,112341,p,0,0,0
5:12.114,112361,),0,0,0
5:12.158,112377,(,0,0,1
5:12.231,112403,N,0,0,0
5:12.278,112420,),0,0,1
5:12.392,112461,(,0,0,2
5:12.486,112495,t,0,0,0
5:12.558,112521,),0,0,2
5:12.961,112666,(,0,0,0
5:13.011,112684,p,0,0,0
5:13.069,112705,),0,0,0
5:13.100,112716,(,0,0,1
5:13.181,112745,N,0,0,0
5:13.231,112763,),0,0,1
5:13.325,112797,(,0,0,2
5:13.431,112835,t,0,0,5
5:13.797,112967,t,0,0,5
5:13.847,112985,),0,0,2
5:13.942,113019,(,0,0,0
5:13.978,113032,p,0,0,0
5:14.011,113044,),0,0,0
5:14.092,113073,(,0,0,1
5:14.164,113099,N,0,0,0
5:14.214,113117,),0,0,1
5:14.881,113357,(,0,0,0
5:14.925,113373,p,0,0,0
5:14.981,113393,),0,0,0
5:15.028,113410,(,0,0,1
5:15.103,113437,N,0,0,0
5:15.153,113455,),0,0,1
5:15.269,113497,(,0,0,2
5:15.361,113530,t,0,0,5
5:15.458,113565,t,0,0,5
5:15.508,113583,),0,0,2
5:15.847,113705,(,0,0,0
5:15.889,113720,p,0,0,0
5:15.939,113738,),0,0,0
5:15.992,113757,(,0,0,1
5:16.058,113781,N,0,0,0
5:16.108,113799,),0,0,1
5:16.675,114003,(,0,0,0
5:16.722,114020,p,0,0,0
5:16.786,114043,),0,0,0
5:16.825,114057,(,0,0,1
5:16.897,114083,N,0,0,0
5:16.944,114100,),0,0,1
5:17.058,114141,(,0,0,2
5:17.158,114177,t,0,0,5
5:17.236,114205,t,0,0,5
5:17.308,114231,),0,0,2
5:17.514,114305,(,0,0,0
5:17.553,114319,p,0,0,0
5:17.622,114344,),0,0,0
5:17.667,114360,(,0,0,1
5:17.739,114386,N,0,0,0
5:17.789,114404,),0,0,1
5:17.928,114454,(,0,0,2
5:18.006,114482,t,0,0,5
5:18.081,114509,t,0,0,5
5:18.111,114520,),0,0,2
5:18.425,114633,(,0,0,0
5:18.469,114649,p,0,0,0
5:18.525,114669,),0,0,0
5:18.572,114686,(,0,0,1
5:18.642,114711,N,0,0,0
5:18.692,114729,),0,0,1
5:18.822,114776,(,0,0,2
5:18.867,114792,t,0,0,5
5:18.994,114838,t,0,0,5
5:19.050,114858,),0,0,2
5:19.372,114974,(,0,0,0
5:19.411,114988,p,0,0,0
5:19.433,114996,),0,0,0
5:19.467,115008,(,0,0,1
5:19.533,115032,N,0,0,0
5:19.583,115050,),0,0,1
5:19.761,115114,(,0,0,2
5:19.808,115131,t,0,0,0
5:19.853,115147,),0,0,2
5:20.222,115280,(,0,0,0
5:20.261,115294,p,0,0,0
5:20.308,115311,),0,0,0
5:20.369,115333,(,0,0,1
5:20.428,115354,N,0,0,0
5:20.475,115371,),0,0,1
5:20.606,115418,(,0,0,2
5:20.697,115451,t,0,0,5
5:20.814,115493,t,0,0,5
5:20.878,115516,),0,0,2
5:21.164,115619,(,0,0,0
5:21.200,115632,p,0,0,0
5:21.253,115651,),0,0,0
5:21.303,115669,(,0,0,1
5:21.372,115694,N,0,0,0
5:21.419,115711,),0,0,1
5:21.550,115758,(,0,0,2
5:21.639,115790,t,0,0,5
5:21.733,115824,t,0,0,5
5:21.769,115837,),0,0,2
5:22.169,115981,(,0,0,0
5:22.217,115998,p,0,0,0
5:22.250,116010,),0,0,0
5:22.269,116017,(,0,0,1
5:22.328,116038,N,0,0,0
5:22.375,116055,),0,0,1
5:22.525,116109,(,0,0,2
5:22.583,116130,t,0,0,5
5:22.672,116162,t,0,0,5
5:22.742,116187,),0,0,2
5:23.142,116331,(,0,0,0
5:23.189,116348,p,0,0,0
5:23.206,116354,),0,0,0
5:23.239,116366,(,0,0,1
5:23.303,116389,N,0,0,0
5:23.350,116406,),0,0,1
5:23.464,116447,(,0,0,2
5:23.544,116476,t,0,0,0
5:23.622,116504,),0,0,2
5:24.039,116654,(,0,0,0
5:24.075,116667,p,0,0,0
5:24.125,116685,),0,0,0
5:24.186,116707,(,0,0,1
5:24.247,116729,N,0,0,0
5:24.294,116746,),0,0,1
5:24.411,116788,(,0,0,2
5:24.497,116819,t,0,0,0
5:24.575,116847,),0,0,2
5:24.972,116990,(,0,0,0
5:25.019,117007,p,0,0,0
5:25.075,117027,),0,0,0
5:25.128,117046,(,0,0,1
5:25.192,117069,N,0,0,0
5:25.239,117086,),0,0,1
5:25.358,117129,(,0,0,2
5:25.447,117161,t,0,0,5
5:25.533,117192,t,0,0,5
5:25.614,117221,),0,0,2
5:25.947,117341,(,0,0,0
5:25.992,117357,p,0,0,0
5:26.047,117377,),0,0,0
5:26.094,117394,(,0,0,1
5:26.161,117418,N,0,0,0
5:26.211,117436,),0,0,1
5:26.889,117680,(,0,0,0
5:26.928,117694,p,0,0,0
5:26.983,117714,),0,0,0
5:27.069,117745,(,0,0,1
5:27.106,117758,N,0,0,0
5:27.156,117776,),0,0,1
5:27.219,117799,(,0,0,2
5:27.339,117842,t,0,0,0
5:27.442,117879,),0,0,2
5:27.789,118004,(,0,0,0
5:27.839,118022,p,0,0,0
5:27.894,118042,),0,0,0
5:27.939,118058,(,0,0,1
5:28.011,118084,N,0,0,0
5:28.058,118101,),0,0,1
5:28.172,118142,(,0,0,2
5:28.269,118177,t,0,0,5
5:28.367,118212,t,0,0,5
5:28.414,118229,),0,0,2
5:28.711,118336,(,0,0,0
5:28.764,118355,p,0,0,0
5:28.817,118374,),0,0,0
5:28.869,118393,(,0,0,1
5:28.936,118417,N,0,0,0
5:28.986,118435,),0,0,1
5:29.097,118475,(,0,0,2
5:29.189,118508,t,0,0,5
5:29.289,118544,t,0,0,5
5:29.333,118560,),0,0,2
5:29.678,118684,(,0,0,0
5:29.719,118699,p,0,0,0
5:29.769,118717,),0,0,0
5:29.808,118731,(,0,0,1
5:29.892,118761,N,0,0,0
5:29.944,118780,),0,0,1
5:30.039,118814,(,0,0,2
5:30.153,118855,t,0,0,5
5:30.269,118897,t,0,0,5
5:30.319,118915,),0,0,2
5:30.686,119047,(,0,0,0
5:30.728,119062,p,0,0,0
5:30.781,119081,),0,0,0
5:30.836,119101,(,0,0,1
5:30.900,119124,N,0,0,0
5:30.953,119143,),0,0,1
5:31.064,119183,(,0,0,2
5:31.169,119221,t,0,0,5
5:31.267,119256,t,0,0,5
5:31.319,119275,),0,0,2
5:31.703,119413,(,0,0,0
5:31.744,119428,p,0,0,0
5:31.803,119449,),0,0,0
5:31.842,119463,(,0,0,1
5:31.922,119492,N,0,0,0
5:31.972,119510,),0,0,1
5:32.656,119756,(,0,0,0
5:32.694,119770,p,0,0,0
5:32.764,119795,),0,0,0
5:32.839,119822,(,0,0,1
5:32.875,119835,N,0,0,0
5:32.928,119854,),0,0,1
5:33.017,119886,(,0,0,2
5:33.111,119920,t,0,0,0
5:33.217,119958,),0,0,2
5:33.594,120094,(,0,0,0
5:33.636,120109,p,0,0,0
5:33.692,120129,),0,0,0
5:33.742,120147,(,0,0,1
5:33.808,120171,N,0,0,0
5:33.856,120188,),0,0,1
5:34.567,120444,(,0,0,0
5:34.608,120459,p,0,0,0
5:34.661,120478,),0,0,0
5:34.706,120494,(,0,0,1
5:34.781,120521,N,0,0,0
5:34.831,120539,),0,0,1
5:35.508,120783,(,0,0,0
5:35.556,120800,p,0,0,0
5:35.608,120819,),0,0,0
5:35.664,120839,(,0,0,1
5:35.731,120863,N,0,0,0
5:35.786,120883,),0,0,1
5:36.458,121125,(,0,0,0
5:36.506,121142,p,0,0,0
5:36.561,121162,),0,0,0
5:36.611,121180,(,0,0,1
5:36.692,121209,N,0,0,0
5:36.744,121228,),0,0,1
5:37.442,121479,(,0,0,0
5:37.483,121494,p,0,0,0
5:37.536,121513,),0,0,0
5:37.578,121528,(,0,0,1
5:37.656,121556,N,0,0,0
5:37.706,121574,),0,0,1
5:37.817,121614,(,0,0,2
5:37.919,121651,t,0,0,0
5:37.989,121676,),0,0,2
5:38.392,121821,(,0,0,0
5:38.436,121837,p,0,0,0
5:38.486,121855,),0,0,0
5:38.536,121873,(,0,0,1
5:38.603,121897,N,0,0,0
5:38.653,121915,),0,0,1
5:39.378,122176,(,0,0,0
5:39.419,122191,p,0,0,0
5:39.469,122209,),0,0,0
5:39.514,122225,(,0,0,1
5:39.589,122252,N,0,0,0
5:39.639,122270,),0,0,1
5:39.753,122311,(,0,0,2
5:39.856,122348,t,0,0,0
5:39.908,122367,),0,0,2
5:40.364,122531,(,0,0,0
5:40.386,122539,p,0,0,0
5:40.458,122565,),0,0,0
5:40.517,122586,(,0,0,1
5:40.572,122606,N,0,0,0
5:40.622,122624,),0,0,1
5:40.697,122651,(,0,0,2
5:40.714,122657,t,0,0,4
5:40.850,122706,t,0,0,4
5:40.892,122721,),0,0,2
5:41.272,122858,(,0,0,0
5:41.314,122873,p,0,0,0
5:41.336,122881,),0,0,0
5:41.369,122893,(,0,0,1
5:41.425,122913,N,0,0,0
5:41.475,122931,),0,0,1
5:41.597,122975,(,0,0,2
5:41.681,123005,t,0,0,0
5:41.739,123026,),0,0,2
5:42.111,123160,(,0,0,0
5:42.175,123183,p,0,0,0
5:42.189,123188,),0,0,0
5:42.222,123200,(,0,0,1
5:42.286,123223,N,0,0,0
5:42.333,123240,),0,0,1
5:42.478,123292,(,0,0,2
5:42.547,123317,t,0,0,0
5:42.633,123348,),0,0,2
5:43.011,123484,(,0,0,0
5:43.056,123500,p,0,0,0
5:43.081,123509,),0,0,0
5:43.114,123521,(,0,0,1
5:43.169,123541,N,0,0,0
5:43.217,123558,),0,0,1
5:43.347,123605,(,0,0,2
5:43.431,123635,t,0,0,0
5:43.492,123657,),0,0,2
5:43.969,123829,(,0,0,0
5:44.017,123846,p,0,0,0
5:44.039,123854,),0,0,0
5:44.072,123866,(,0,0,1
5:44.128,123886,N,0,0,0
5:44.175,123903,),0,0,1
5:44.272,123938,(,0,0,2
5:44.378,123976,t,0,0,0
5:44.447,124001,),0,0,2
5:44.853,124147,(,0,0,0
5:44.892,124161,p,0,0,0
5:44.947,124181,),0,0,0
5:44.997,124199,(,0,0,1
5:45.067,124224,N,0,0,0
5:45.122,124244,),0,0,1
5:45.450,124362,(,0,0,2
5:45.506,124382,t,0,0,0
5:45.553,124399,),0,0,2
5:45.708,124455,(,0,0,0
5:45.761,124474,p,0,0,0
5:45.789,124484,),0,0,0
5:45.886,124519,(,0,0,1
5:45.944,124540,N,0,0,0
5:45.994,124558,),0,0,1
5:46.128,124606,(,0,0,2
5:46.167,124620,t,0,0,0
5:46.194,124630,),0,0,2
5:46.642,124791,(,0,0,0
5:46.689,124808,p,0,0,0
5:46.711,124816,),0,0,0
5:46.744,124828,(,0,0,1
5:46.797,124847,N,0,0,0
5:46.844,124864,),0,0,1
5:47.178,124984,(,0,0,2
5:47.206,124994,t,0,0,0
5:47.239,125006,),0,0,2
5:47.422,125072,(,0,0,0
5:47.486,125095,p,0,0,0
5:47.539,125114,),0,0,0
5:47.589,125132,(,0,0,1
5:47.644,125152,N,0,0,0
5:47.692,125169,),0,0,1
5:47.736,125185,(,0,0,2
5:47.839,125222,t,0,0,0
5:47.989,125276,),0,0,2
5:48.306,125390,(,0,0,0
5:48.350,125406,p,0,0,0
5:48.411,125428,),0,0,0
5:48.461,125446,(,0,0,1
5:48.522,125468,N,0,0,0
5:48.569,125485,),0,0,1
5:48.706,125534,(,0,0,2
5:48.767,125556,t,0,0,5
5:48.867,125592,t,0,0,5
5:48.892,125601,),0,0,2
5:49.294,125746,(,0,0,0
5:49.322,125756,p,0,0,0
5:49.389,125780,),0,0,0
5:49.408,125787,(,0,0,1
5:49.461,125806,N,0,0,0
5:49.506,125822,),0,0,1
5:49.628,125866,(,0,0,2
5:49.700,125892,t,0,0,0
5:49.789,125924,),0,0,2
5:50.208,126075,(,0,0,0
5:50.247,126089,p,0,0,0
5:50.286,126103,),0,0,0
5:50.350,126126,(,0,0,1
5:50.414,126149,N,0,0,0
5:50.461,126166,),0,0,1
5:50.508,126183,(,0,0,2
5:50.567,126204,t,0,0,4
5:50.675,126243,t,0,0,4
5:50.733,126264,),0,0,2
5:51.081,126389,(,0,0,0
5:51.125,126405,p,0,0,0
5:51.181,126425,),0,0,0
5:51.233,126444,(,0,0,1
5:51.294,126466,N,0,0,0
5:51.347,126485,),0,0,1
5:51.519,126547,(,0,0,2
5:51.569,126565,t,0,0,5
5:51.633,126588,t,0,0,5
5:51.722,126620,),0,0,2
5:51.922,126692,(,0,0,0
5:51.958,126705,p,0,0,0
5:52.011,126724,),0,0,0
5:52.061,126742,(,0,0,1
5:52.128,126766,N,0,0,0
5:52.175,126783,),0,0,1
5:52.258,126813,(,0,0,2
5:52.289,126824,t,0,0,4
5:52.372,126854,t,0,0,4
5:52.486,126895,),0,0,2
5:52.819,127015,(,0,0,0
5:52.867,127032,p,0,0,0
5:52.883,127038,),0,0,0
5:52.917,127050,(,0,0,1
5:52.972,127070,N,0,0,0
5:53.022,127088,),0,0,1
5:53.128,127126,(,0,0,2
5:53.219,127159,t,0,0,5
5:53.339,127202,t,0,0,5
5:53.414,127229,),0,0,2
5:53.650,127314,(,0,0,0
5:53.689,127328,p,0,0,0
5:53.742,127347,),0,0,0
5:53.794,127366,(,0,0,1
5:53.858,127389,N,0,0,0
5:53.908,127407,),0,0,1
5:54.033,127452,(,0,0,2
5:54.117,127482,t,0,0,0
5:54.164,127499,),0,0,2
5:54.597,127655,(,0,0,0
5:54.644,127672,p,0,0,0
5:54.703,127693,),0,0,0
5:54.756,127712,(,0,0,1
5:54.822,127736,N,0,0,0
5:54.869,127753,),0,0,1
5:55.000,127800,(,0,0,2
5:55.089,127832,t,0,0,0
5:55.189,127868,),0,0,2
5:55.650,128034,(,0,0,0
5:55.703,128053,p,0,0,0
5:55.717,128058,),0,0,0
5:55.750,128070,(,0,0,1
5:55.811,128092,N,0,0,0
5:55.858,128109,),0,0,1
5:55.986,128155,(,0,0,2
5:56.072,128186,t,0,0,0
5:56.150,128214,),0,0,2
5:56.522,128348,(,0,0,0
5:56.608,128379,p,0,0,0
5:56.667,128400,),0,0,0
5:56.747,128429,(,0,0,1
5:56.781,128441,N,0,0,0
5:56.828,128458,),0,0,1
5:56.900,128484,(,0,0,2
5:57.006,128522,t,0,0,0
5:57.111,128560,),0,0,2
5:57.528,128710,(,0,0,0
5:57.569,128725,p,0,0,0
5:57.628,128746,),0,0,0
5:57.706,128774,(,0,0,1
5:57.742,128787,N,0,0,0
5:57.792,128805,),0,0,1
5:57.853,128827,(,0,0,2
5:57.972,128870,t,0,0,5
5:58.094,128914,t,0,0,5
5:58.147,128933,),0,0,2
5:58.414,129029,(,0,0,0
5:58.450,129042,p,0,0,0
5:58.514,129065,),0,0,0
5:58.583,129090,(,0,0,1
5:58.617,129102,N,0,0,0
5:58.664,129119,),0,0,1
5:58.728,129142,(,0,0,2
5:58.839,129182,t,0,0,0
5:58.931,129215,),0,0,2
5:59.203,129313,(,0,0,0
5:59.272,129338,p,0,0,0
5:59.328,129358,),0,0,0
5:59.408,129387,(,0,0,1
5:59.444,129400,N,0,0,0
5:59.497,129419,),0,0,1
5:59.581,129449,(,0,0,2
5:59.678,129484,t,0,0,5
5:59.856,129548,t,0,0,5
5:59.892,129561,),0,0,2
6:00.006,129602,(,0,0,0
6:00.050,129618,p,0,0,0
6:00.111,129640,),0,0,0
6:00.164,129659,(,0,0,1
6:00.231,129683,N,0,0,0
6:00.283,129702,),0,0,1
6:00.397,129743,(,0,0,2
6:00.497,129779,t,0,0,5
6:00.589,129812,t,0,0,5
6:00.653,129835,),0,0,2
6:00.817,129894,(,0,0,0
6:00.861,129910,p,0,0,0
6:00.917,129930,),0,0,0
6:00.967,129948,(,0,0,1
6:01.028,129970,N,0,0,0
6:01.075,129987,),0,0,1
6:01.183,130026,(,0,0,2
6:01.278,130060,t,0,0,0
6:01.339,130082,),0,0,2
6:01.628,130186,(,0,0,0
6:01.669,130201,p,0,0,0
6:01.719,130219,),0,0,0
6:01.772,130238,(,0,0,1
6:01.839,130262,N,0,0,0
6:01.889,130280,),0,0,1
6:02.006,130322,(,0,0,2
6:02.094,130354,t,0,0,0
6:02.156,130376,),0,0,2
6:02.497,130499,(,0,0,0
6:02.536,130513,p,0,0,0
6:02.589,130532,),0,0,0
6:02.636,130549,(,0,0,1
6:02.706,130574,N,0,0,0
6:02.753,130591,),0,0,1
6:02.883,130638,(,0,0,2
6:02.967,130668,t,0,0,0
6:03.031,130691,),0,0,2
6:03.447,130841,(,0,0,0
6:03.497,130859,p,0,0,0
6:03.547,130877,),0,0,0
6:03.628,130906,(,0,0,1
6:03.661,130918,N,0,0,0
6:03.711,130936,),0,0,1
6:03.814,130973,(,0,0,2
6:03.892,131001,t,0,0,5
6:04.014,131045,t,0,0,5
6:04.072,131066,),0,0,2
6:04.422,131192,(,0,0,0
6:04.464,131207,p,0,0,0
6:04.519,131227,),0,0,0
6:04.594,131254,(,0,0,1
6:04.628,131266,N,0,0,0
6:04.678,131284,),0,0,1
6:04.750,131310,(,0,0,2
6:04.856,131348,t,0,0,0
6:04.964,131387,),0,0,2
6:05.386,131539,(,0,0,0
6:05.428,131554,p,0,0,0
6:05.486,131575,),0,0,0
6:05.564,131603,(,0,0,1
6:05.597,131615,N,0,0,0
6:05.644,131632,),0,0,1
6:05.717,131658,(,0,0,2
6:05.819,131695,t,0,0,0
6:05.917,131730,),0,0,2
6:06.267,131856,(,0,0,0
6:06.306,131870,p,0,0,0
6:06.364,131891,),0,0,0
6:06.442,131919,(,0,0,1
6:06.478,131932,N,0,0,0
6:06.528,131950,),0,0,1
6:06.589,131972,(,0,0,2
6:06.697,132011,t,0,0,0
6:06.800,132048,),0,0,2
6:07.136,132169,(,0,0,0
6:07.183,132186,p,0,0,0
6:07.244,132208,),0,0,0
6:07.325,132237,(,0,0,1
6:07.358,132249,N,0,0,0
6:07.411,132268,),0,0,1
6:07.494,132298,(,0,0,2
6:07.597,132335,t,0,0,0
6:07.694,132370,),0,0,2
6:07.947,132461,(,0,0,0
6:07.992,132477,p,0,0,0
6:08.050,132498,),0,0,0
6:08.133,132528,(,0,0,1
6:08.167,132540,N,0,0,0
6:08.217,132558,),0,0,1
6:08.300,132588,(,0,0,2
6:08.408,132627,t,0,0,0
6:08.508,132663,),0,0,2
6:08.753,132751,(,0,0,0
6:08.797,132767,p,0,0,0
6:08.856,132788,),0,0,0
6:08.906,132806,(,0,0,1
6:08.978,132832,N,0,0,0
6:09.028,132850,),0,0,1
6:09.144,132892,(,0,0,2
6:09.247,132929,t,0,0,5
6:09.347,132965,t,0,0,5
6:09.414,132989,),0,0,2
6:09.600,133056,(,0,0,0
6:09.650,133074,p,0,0,0
6:09.700,133092,),0,0,0
6:09.756,133112,(,0,0,1
6:09.825,133137,N,0,0,0
6:09.872,133154,),0,0,1
6:09.994,133198,(,0,0,2
6:10.086,133231,t,0,0,0
6:10.144,133252,),0,0,2
6:10.517,133386,(,0,0,0
6:10.569,133405,p,0,0,0
6:10.617,133422,),0,0,0
6:10.667,133440,(,0,0,1
6:10.736,133465,N,0,0,0
6:10.786,133483,),0,0,1
6:10.911,133528,(,0,0,2
6:11.000,133560,t,0,0,5
6:11.081,133589,t,0,0,5
6:11.153,133615,),0,0,2
6:11.500,133740,(,0,0,0
6:11.547,133757,p,0,0,0
6:11.564,133763,),0,0,0
6:11.597,133775,(,0,0,1
6:11.658,133797,N,0,0,0
6:11.708,133815,),0,0,1
6:11.831,133859,(,0,0,2
6:11.922,133892,t,0,0,0
6:11.981,133913,),0,0,2
6:12.442,134079,(,0,0,0
6:12.492,134097,p,0,0,0
6:12.544,134116,),0,0,0
6:12.600,134136,(,0,0,1
6:12.669,134161,N,0,0,0
6:12.722,134180,),0,0,1
6:12.842,134223,(,0,0,2
6:12.939,134258,t,0,0,5
6:13.053,134299,t,0,0,5
6:13.119,134323,),0,0,2
6:13.500,134460,(,0,0,0
6:13.542,134475,p,0,0,0
6:13.589,134492,),0,0,0
6:13.633,134508,(,0,0,1
6:13.708,134535,N,0,0,0
6:13.761,134554,),0,0,1
6:13.883,134598,(,0,0,2
6:13.975,134631,t,0,0,5
6:14.064,134663,t,0,0,5
6:14.117,134682,),0,0,2
6:14.483,134814,(,0,0,0
6:14.531,134831,p,0,0,0
6:14.578,134848,),0,0,0
6:14.636,134869,(,0,0,1
6:14.700,134892,N,0,0,0
6:14.750,134910,),0,0,1
6:15.450,135162,(,0,0,0
6:15.500,135180,p,0,0,0
6:15.550,135198,),0,0,0
6:15.581,135209,(,0,0,1
6:15.669,135241,N,0,0,0
6:15.722,135260,),0,0,1
6:16.428,135514,(,0,0,0
6:16.475,135531,p,0,0,0
6:16.525,135549,),0,0,0
6:16.575,135567,(,0,0,1
6:16.647,135593,N,0,0,0
6:16.697,135611,),0,0,1
6:17.353,135847,(,0,0,0
6:17.400,135864,p,0,0,0
6:17.453,135883,),0,0,0
6:17.506,135902,(,0,0,1
6:17.578,135928,N,0,0,0
6:17.628,135946,),0,0,1
6:18.281,136181,(,0,0,0
6:18.328,136198,p,0,0,0
6:18.375,136215,),0,0,0
6:18.414,136229,(,0,0,1
6:18.503,136261,N,0,0,0
6:18.556,136280,),0,0,1
6:19.167,136500,(,0,0,0
6:19.208,136515,p,0,0,0
6:19.256,136532,),0,0,0
6:19.311,136552,(,0,0,1
6:19.383,136578,N,0,0,0
6:19.433,136596,),0,0,1
6:19.561,136642,(,0,0,2
6:19.653,136675,t,0,0,0
6:19.722,136700,),0,0,2
6:20.089,136832,(,0,0,0
6:20.131,136847,p,0,0,0
6:20.186,136867,),0,0,0
6:20.239,136886,(,0,0,1
6:20.303,136909,N,0,0,0
6:20.353,136927,),0,0,1
6:20.467,136968,(,0,0,2
6:20.561,137002,t,0,0,0
6:20.628,137026,),0,0,2
6:21.047,137177,(,0,0,0
6:21.094,137194,p,0,0,0
6:21.147,137213,),0,0,0
6:21.203,137233,(,0,0,1
6:21.269,137257,N,0,0,0
6:21.319,137275,),0,0,1
6:21.447,137321,(,0,0,2
6:21.544,137356,t,0,0,5
6:21.667,137400,t,0,0,5
6:21.703,137413,),0,0,2
6:21.964,137507,(,0,0,0
6:22.011,137524,p,0,0,0
6:22.069,137545,),0,0,0
6:22.119,137563,(,0,0,1
6:22.194,137590,N,0,0,0
6:22.247,137609,),0,0,1
6:22.361,137650,(,0,0,2
6:22.461,137686,t,0,0,5
6:22.547,137717,t,0,0,5
6:22.608,137739,),0,0,2
6:22.906,137846,(,0,0,0
6:22.947,137861,p,0,0,0
6:23.003,137881,),0,0,0
6:23.053,137899,(,0,0,1
6:23.128,137926,N,0,0,0
6:23.181,137945,),0,0,1
6:23.300,137988,(,0,0,2
6:23.397,138023,t,0,0,5
6:23.719,138139,t,0,0,5
6:23.761,138154,),0,0,2
6:23.861,138190,(,0,0,0
6:23.900,138204,p,0,0,0
6:23.947,138221,),0,0,0
6:24.003,138241,(,0,0,1
6:24.069,138265,N,0,0,0
6:24.119,138283,),0,0,1
6:24.242,138327,(,0,0,2
6:24.333,138360,t,0,0,0
6:24.403,138385,),0,0,2
6:24.839,138542,(,0,0,0
6:24.881,138557,p,0,0,0
6:24.933,138576,),0,0,0
6:24.981,138593,(,0,0,1
6:25.050,138618,N,0,0,0
6:25.100,138636,),0,0,1
6:25.222,138680,(,0,0,2
6:25.319,138715,t,0,0,5
6:25.414,138749,t,0,0,5
6:25.464,138767,),0,0,2
6:25.825,138897,(,0,0,0
6:25.861,138910,p,0,0,0
6:25.917,138930,),0,0,0
6:25.956,138944,(,0,0,1
6:26.031,138971,N,0,0,0
6:26.081,138989,),0,0,1
6:26.200,139032,(,0,0,2
6:26.297,139067,t,0,0,5
6:26.392,139101,t,0,0,5
6:26.433,139116,),0,0,2
6:26.789,139244,(,0,0,0
6:26.833,139260,p,0,0,0
6:26.886,139279,),0,0,0
6:26.964,139307,(,0,0,1
6:26.997,139319,N,0,0,0
6:27.047,139337,),0,0,1
6:27.108,139359,(,0,0,2
6:27.233,139404,t,0,0,5
6:27.344,139444,t,0,0,5
6:27.364,139451,),0,0,2
6:27.917,139650,(,0,0,1
6:27.944,139660,N,0,0,0
6:27.992,139677,),0,0,1
6:28.058,139701,(,0,0,2
6:28.172,139742,t,0,0,0
6:28.269,139777,),0,0,2
6:28.611,139900,(,0,0,0
6:28.653,139915,p,0,0,0
6:28.711,139936,),0,0,0
6:28.792,139965,(,0,0,1
6:28.828,139978,N,0,0,0
6:28.881,139997,),0,0,1
6:28.950,140022,(,0,0,2
6:29.061,140062,t,0,0,0
6:29.158,140097,),0,0,2
6:29.461,140206,(,0,0,0
6:29.506,140222,p,0,0,0
6:29.561,140242,),0,0,0
6:29.639,140270,(,0,0,1
6:29.675,140283,N,0,0,0
6:29.728,140302,),0,0,1
6:29.794,140326,(,0,0,2
6:29.908,140367,t,0,0,0
6:30.006,140402,),0,0,2
6:30.297,140507,(,0,0,0
6:30.339,140522,p,0,0,0
6:30.400,140544,),0,0,0
6:30.486,140575,(,0,0,1
6:30.522,140588,N,0,0,0
6:30.572,140606,),0,0,1
6:30.639,140630,(,0,0,2
6:30.761,140674,t,0,0,5
6:30.897,140723,t,0,0,5
6:30.936,140737,),0,0,2
6:31.167,140820,(,0,0,0
6:31.214,140837,p,0,0,0
6:31.269,140857,),0,0,0
6:31.319,140875,(,0,0,1
6:31.392,140901,N,0,0,0
6:31.442,140919,),0,0,1
6:31.569,140965,(,0,0,2
6:31.661,140998,t,0,0,5
6:31.750,141030,t,0,0,5
6:31.844,141064,),0,0,2
6:32.075,141147,(,0,0,0
6:32.117,141162,p,0,0,0
6:32.164,141179,),0,0,0
6:32.217,141198,(,0,0,1
6:32.286,141223,N,0,0,0
6:32.336,141241,),0,0,1
6:32.461,141286,(,0,0,2
6:32.558,141321,t,0,0,0
6:32.617,141342,),0,0,2
6:33.006,141482,(,0,0,0
6:33.050,141498,p,0,0,0
6:33.094,141514,),0,0,0
6:33.147,141533,(,0,0,1
6:33.222,141560,N,0,0,0
6:33.272,141578,),0,0,1
6:33.394,141622,(,0,0,2
6:33.497,141659,t,0,0,5
6:33.603,141697,t,0,0,5
6:33.644,141712,),0,0,2
6:33.936,141817,(,0,0,0
6:33.978,141832,p,0,0,0
6:34.031,141851,),0,0,0
6:34.081,141869,(,0,0,1
6:34.156,141896,N,0,0,0
6:34.208,141915,),0,0,1
6:34.436,141997,(,0,0,2
6:34.692,142089,t,0,0,1
6:34.956,142184,),0,0,2
6:35.900,142524,(,0,0,0
6:35.947,142541,p,0,0,0
6:36.000,142560,),0,0,0
6:36.056,142580,(,0,0,1
6:36.122,142604,N,0,0,0
6:36.175,142623,),0,0,1
6:36.300,142668,(,0,0,2
6:36.400,142704,t,0,0,5
6:36.489,142736,t,0,0,5
6:36.567,142764,),0,0,2
6:36.844,142864,(,0,0,0
6:36.894,142882,p,0,0,0
6:36.947,142901,),0,0,0
6:36.997,142919,(,0,0,1
6:37.067,142944,N,0,0,0
6:37.114,142961,),0,0,1
6:37.778,143200,(,0,0,0
6:37.825,143217,p,0,0,0
6:37.878,143236,),0,0,0
6:37.928,143254,(,0,0,1
6:37.997,143279,N,0,0,0
6:38.047,143297,),0,0,1
6:38.161,143338,(,0,0,2
6:38.258,143373,t,0,0,0
6:38.322,143396,),0,0,2
6:38.744,143548,(,0,0,0
6:38.792,143565,p,0,0,0
6:38.844,143584,),0,0,0
6:38.894,143602,(,0,0,1
6:38.964,143627,N,0,0,0
6:39.014,143645,),0,0,1
6:39.142,143691,(,0,0,2
6:39.228,143722,t,0,0,0
6:39.314,143753,),0,0,2
6:39.761,143914,(,0,0,0
6:39.817,143934,p,0,0,0
6:39.869,143953,),0,0,0
6:39.919,143971,(,0,0,1
6:39.992,143997,N,0,0,0
6:40.042,144015,),0,0,1
6:40.169,144061,(,0,0,2
6:40.261,144094,t,0,0,5
6:40.383,144138,t,0,0,5
6:40.431,144155,),0,0,2
6:40.797,144287,(,0,0,0
6:40.842,144303,p,0,0,0
6:40.892,144321,),0,0,0
6:40.933,144336,(,0,0,1
6:41.014,144365,N,0,0,0
6:41.067,144384,),0,0,1
6:41.733,144624,(,0,0,0
6:41.778,144640,p,0,0,0
6:41.833,144660,),0,0,0
6:41.872,144674,(,0,0,1
6:41.947,144701,N,0,0,0
6:41.997,144719,),0,0,1
6:42.222,144800,(,0,0,2
6:42.469,144889,t,0,0,1
6:42.722,144980,),0,0,2
6:44.619,145663,(,0,0,0
6:44.669,145681,p,0,0,0
6:44.719,145699,),0,0,0
6:44.767,145716,(,0,0,1
6:44.844,145744,N,0,0,0
6:44.894,145762,),0,0,1
6:45.589,146012,(,0,0,0
6:45.633,146028,p,0,0,0
6:45.689,146048,),0,0,0
6:45.733,146064,(,0,0,1
6:45.814,146093,N,0,0,0
6:45.864,146111,),0,0,1
6:46.625,146385,(,0,0,0
6:46.675,146403,p,0,0,0
6:46.689,146408,),0,0,0
6:46.722,146420,(,0,0,1
6:46.789,146444,N,0,0,0
6:46.839,146462,),0,0,1
6:48.575,147087,(,0,0,0
6:48.619,147103,p,0,0,0
6:48.672,147122,),0,0,0
6:48.758,147153,(,0,0,1
6:48.794,147166,N,0,0,0
6:48.844,147184,),0,0,1
6:48.914,147209,(,0,0,2
6:49.042,147255,t,0,0,0
6:49.139,147290,),0,0,2
6:49.506,147422,(,0,0,0
6:49.550,147438,p,0,0,0
6:49.608,147459,),0,0,0
6:49.683,147486,(,0,0,1
6:49.717,147498,N,0,0,0
6:49.767,147516,),0,0,1
6:49.850,147546,(,0,0,2
6:49.956,147584,t,0,0,0
6:50.058,147621,),0,0,2
6:50.400,147744,(,0,0,0
6:50.444,147760,p,0,0,0
6:50.497,147779,),0,0,0
6:50.544,147796,(,0,0,1
6:50.614,147821,N,0,0,0
6:50.664,147839,),0,0,1
6:51.294,148066,(,0,0,0
6:51.336,148081,p,0,0,0
6:51.383,148098,),0,0,0
6:51.436,148117,(,0,0,1
6:51.511,148144,N,0,0,0
6:51.561,148162,),0,0,1
6:52.211,148396,(,0,0,0
6:52.256,148412,p,0,0,0
6:52.306,148430,),0,0,0
6:52.358,148449,(,0,0,1
6:52.433,148476,N,0,0,0
6:52.483,148494,),0,0,1
6:53.197,148751,(,0,0,0
6:53.239,148766,p,0,0,0
6:53.292,148785,),0,0,0
6:53.372,148814,(,0,0,1
6:53.411,148828,N,0,0,0
6:53.461,148846,),0,0,1
6:53.533,148872,(,0,0,2
6:53.656,148916,t,0,0,5
6:54.000,149040,t,0,0,5
6:54.019,149047,),0,0,2
6:54.094,149074,(,0,0,0
6:54.142,149091,p,0,0,0
6:54.203,149113,),0,0,0
6:54.278,149140,(,0,0,1
6:54.314,149153,N,0,0,0
6:54.364,149171,),0,0,1
6:54.425,149193,(,0,0,2
6:54.558,149241,t,0,0,0
6:54.658,149277,),0,0,2
6:55.047,149417,(,0,0,0
6:55.089,149432,p,0,0,0
6:55.103,149437,),0,0,0
6:55.136,149449,(,0,0,1
6:55.200,149472,N,0,0,0
6:55.247,149489,),0,0,1
6:55.361,149530,(,0,0,2
6:55.458,149565,t,0,0,0
6:55.525,149589,),0,0,2
6:55.872,149714,(,0,0,0
6:55.942,149739,p,0,0,0
6:55.983,149754,),0,0,0
6:56.011,149764,(,0,0,1
6:56.103,149797,N,0,0,0
6:56.150,149814,),0,0,1
6:56.264,149855,(,0,0,2
6:56.361,149890,t,0,0,5
6:56.636,149989,t,0,0,5
6:56.692,150009,),0,0,2
6:56.797,150047,(,0,0,0
6:56.839,150062,p,0,0,0
6:56.892,150081,),0,0,0
6:56.942,150099,(,0,0,1
6:57.011,150124,N,0,0,0
6:57.058,150141,),0,0,1
6:57.200,150192,(,0,0,2
6:57.242,150207,t,0,0,0
6:57.278,150220,),0,0,2
6:57.711,150376,(,0,0,0
6:57.756,150392,p,0,0,0
6:57.822,150416,),0,0,0
6:57.903,150445,(,0,0,1
6:57.939,150458,N,0,0,0
6:57.989,150476,),0,0,1
6:58.019,150487,(,0,0,2
6:58.183,150546,t,0,0,0
6:58.286,150583,),0,0,2
6:58.608,150699,(,0,0,0
6:58.653,150715,p,0,0,0
6:58.703,150733,),0,0,0
6:58.761,150754,(,0,0,1
6:58.825,150777,N,0,0,0
6:58.872,150794,),0,0,1
6:59.503,151021,(,0,0,0
6:59.544,151036,p,0,0,0
6:59.597,151055,),0,0,0
6:59.644,151072,(,0,0,1
6:59.717,151098,N,0,0,0
6:59.764,151115,),0,0,1
7:00.419,151351,(,0,0,0
7:00.467,151368,p,0,0,0
7:00.514,151385,),0,0,0
7:00.575,151407,(,0,0,1
7:00.642,151431,N,0,0,0
7:00.692,151449,),0,0,1
7:01.392,151701,(,0,0,0
7:01.431,151715,p,0,0,0
7:01.486,151735,),0,0,0
7:01.572,151766,(,0,0,1
7:01.606,151778,N,0,0,0
7:01.656,151796,),0,0,1
7:01.739,151826,(,0,0,2
7:01.842,151863,t,0,0,0
7:01.939,151898,),0,0,2
7:02.350,152046,(,0,0,0
7:02.392,152061,p,0,0,0
7:02.447,152081,),0,0,0
7:02.533,152112,(,0,0,1
7:02.567,152124,N,0,0,0
7:02.619,152143,),0,0,1
7:02.675,152163,(,0,0,2
7:02.803,152209,t,0,0,5
7:03.208,152355,t,0,0,5
7:03.275,152379,),0,0,2
7:04.142,152691,(,0,0,0
7:04.181,152705,p,0,0,0
7:04.231,152723,),0,0,0
7:04.281,152741,(,0,0,1
7:04.347,152765,N,0,0,0
7:04.397,152783,),0,0,1
7:05.047,153017,(,0,0,0
7:05.089,153032,p,0,0,0
7:05.139,153050,),0,0,0
7:05.192,153069,(,0,0,1
7:05.261,153094,N,0,0,0
7:05.311,153112,),0,0,1
7:05.439,153158,(,0,0,2
7:05.528,153190,t,0,0,0
7:05.586,153211,),0,0,2
7:05.903,153325,(,0,0,0
7:05.939,153338,p,0,0,0
7:05.989,153356,),0,0,0
7:06.044,153376,(,0,0,1
7:06.114,153401,N,0,0,0
7:06.167,153420,),0,0,1
7:06.828,153658,(,0,0,0
7:06.872,153674,p,0,0,0
7:06.928,153694,),0,0,0
7:06.978,153712,(,0,0,1
7:07.047,153737,N,0,0,0
7:07.100,153756,),0,0,1
7:07.225,153801,(,0,0,2
7:07.328,153838,t,0,0,5
7:07.697,153971,t,0,0,5
7:07.758,153993,),0,0,2
7:07.825,154017,(,0,0,0
7:07.872,154034,p,0,0,0
7:07.925,154053,),0,0,0
7:07.978,154072,(,0,0,1
7:08.042,154095,N,0,0,0
7:08.092,154113,),0,0,1
7:08.214,154157,(,0,0,2
7:08.314,154193,t,0,0,5
7:08.822,154376,t,0,0,5
7:08.883,154398,),0,0,2
7:09.881,154757,(,0,0,0
7:09.922,154772,p,0,0,0
7:09.978,154792,),0,0,0
7:10.019,154807,(,0,0,1
7:10.094,154834,N,0,0,0
7:10.144,154852,),0,0,1
7:10.286,154903,(,0,0,2
7:10.367,154932,t,0,0,5
7:10.453,154963,t,0,0,5
7:10.514,154985,),0,0,2
7:10.781,155081,(,0,0,0
7:10.828,155098,p,0,0,0
7:10.878,155116,),0,0,0
7:10.928,155134,(,0,0,1
7:10.992,155157,N,0,0,0
7:11.039,155174,),0,0,1
7:11.147,155213,(,0,0,2
7:11.244,155248,t,0,0,0
7:11.314,155273,),0,0,2
7:11.667,155400,(,0,0,0
7:11.728,155422,p,0,0,0
7:11.789,155444,),0,0,0
7:11.864,155471,(,0,0,1
7:11.900,155484,N,0,0,0
7:11.950,155502,),0,0,1
7:12.031,155531,(,0,0,2
7:12.133,155568,t,0,0,0
7:12.247,155609,),0,0,2
7:12.583,155730,(,0,0,0
7:12.631,155747,p,0,0,0
7:12.692,155769,),0,0,0
7:12.781,155801,(,0,0,1
7:12.811,155812,N,0,0,0
7:12.861,155830,),0,0,1
7:12.942,155859,(,0,0,2
7:13.061,155902,t,0,0,0
7:13.147,155933,),0,0,2
7:13.503,156061,(,0,0,0
7:13.542,156075,p,0,0,0
7:13.603,156097,),0,0,0
7:13.678,156124,(,0,0,1
7:13.711,156136,N,0,0,0
7:13.761,156154,),0,0,1
7:13.861,156190,(,0,0,2
7:13.958,156225,t,0,0,0
7:14.050,156258,),0,0,2
7:14.333,156360,(,0,0,0
7:14.372,156374,p,0,0,0
7:14.428,156394,),0,0,0
7:14.511,156424,(,0,0,1
7:14.547,156437,N,0,0,0
7:14.597,156455,),0,0,1
7:14.672,156482,(,0,0,2
7:14.781,156521,t,0,0,0
7:14.875,156555,),0,0,2
7:15.142,156651,(,0,0,0
7:15.189,156668,p,0,0,0
7:15.244,156688,),0,0,0
7:15.289,156704,(,0,0,1
7:15.358,156729,N,0,0,0
7:15.408,156747,),0,0,1
7:15.536,156793,(,0,0,2
7:15.628,156826,t,0,0,5
7:15.708,156855,t,0,0,5
7:15.775,156879,),0,0,2
7:15.997,156959,(,0,0,0
7:16.042,156975,p,0,0,0
7:16.094,156994,),0,0,0
7:16.147,157013,(,0,0,1
7:16.214,157037,N,0,0,0
7:16.264,157055,),0,0,1
7:16.392,157101,(,0,0,2
7:16.483,157134,t,0,0,0
7:16.550,157158,),0,0,2
7:25.028,160210,(,0,0,0
7:25.069,160225,p,0,0,0
7:25.125,160245,),0,0,0
7:25.211,160276,(,0,0,1
7:25.247,160289,N,0,0,0
7:25.297,160307,),0,0,1
7:25.372,160334,(,0,0,2
7:25.478,160372,t,0,0,0
7:25.586,160411,),0,0,2
7:27.642,161151,(,0,0,0
7:27.686,161167,p,0,0,0
7:27.747,161189,),0,0,0
7:27.825,161217,(,0,0,1
7:27.861,161230,N,0,0,0
7:27.911,161248,),0,0,1
7:27.992,161277,(,0,0,2
7:28.094,161314,t,0,0,0
7:28.178,161344,),0,0,2
7:28.428,161434,(,0,0,0
7:28.464,161447,p,0,0,0
7:28.519,161467,),0,0,0
7:28.617,161502,(,0,0,1
7:28.650,161514,N,0,0,0
7:28.700,161532,),0,0,1
7:28.792,161565,(,0,0,2
7:28.897,161603,t,0,0,0
7:28.992,161637,),0,0,2
7:29.200,161712,(,0,0,0
7:29.253,161731,p,0,0,0
7:29.308,161751,),0,0,0
7:29.392,161781,(,0,0,1
7:29.425,161793,N,0,0,0
7:29.475,161811,),0,0,1
7:29.544,161836,(,0,0,2
7:29.658,161877,t,0,0,0
7:29.758,161913,),0,0,2
7:30.019,162007,(,0,0,0
7:30.058,162021,p,0,0,0
7:30.117,162042,),0,0,0
7:30.197,162071,(,0,0,1
7:30.233,162084,N,0,0,0
7:30.281,162101,),0,0,1
7:30.339,162122,(,0,0,2
7:30.464,162167,t,0,0,0
7:30.572,162206,),0,0,2
7:30.886,162319,(,0,0,0
7:30.919,162331,p,0,0,0
7:30.989,162356,),0,0,0
7:31.067,162384,(,0,0,1
7:31.103,162397,N,0,0,0
7:31.156,162416,),0,0,1
7:31.222,162440,(,0,0,2
7:31.344,162484,t,0,0,0
7:31.433,162516,),0,0,2
7:31.792,162645,(,0,0,0
7:31.844,162664,p,0,0,0
7:31.861,162670,),0,0,0
7:31.894,162682,(,0,0,1
7:31.958,162705,N,0,0,0
7:32.006,162722,),0,0,1
7:32.128,162766,(,0,0,2
7:32.222,162800,t,0,0,5
7:32.308,162831,t,0,0,5
7:32.381,162857,),0,0,2
7:32.644,162952,(,0,0,0
7:32.686,162967,p,0,0,0
7:32.742,162987,),0,0,0
7:32.794,163006,(,0,0,1
7:32.864,163031,N,0,0,0
7:32.911,163048,),0,0,1
7:33.028,163090,(,0,0,2
7:33.122,163124,t,0,0,5
7:33.219,163159,t,0,0,5
7:33.256,163172,),0,0,2
7:33.567,163284,(,0,0,0
7:33.611,163300,p,0,0,0
7:33.661,163318,),0,0,0
7:33.719,163339,(,0,0,1
7:33.783,163362,N,0,0,0
7:33.833,163380,),0,0,1
7:33.950,163422,(,0,0,2
7:34.058,163461,t,0,0,5
7:34.139,163490,t,0,0,5
7:34.222,163520,),0,0,2
7:34.492,163617,(,0,0,0
7:34.536,163633,p,0,0,0
7:34.597,163655,),0,0,0
7:34.678,163684,(,0,0,1
7:34.714,163697,N,0,0,0
7:34.761,163714,),0,0,1
7:34.864,163751,(,0,0,2
7:34.950,163782,t,0,0,0
7:35.042,163815,),0,0,2
7:35.311,163912,(,0,0,0
7:35.358,163929,p,0,0,0
7:35.406,163946,),0,0,0
7:35.467,163968,(,0,0,1
7:35.536,163993,N,0,0,0
7:35.586,164011,),0,0,1
7:35.711,164056,(,0,0,2
7:35.806,164090,t,0,0,5
7:35.903,164125,t,0,0,5
7:35.947,164141,),0,0,2
7:36.114,164201,(,0,0,0
7:36.164,164219,p,0,0,0
7:36.219,164239,),0,0,0
7:36.267,164256,(,0,0,1
7:36.336,164281,N,0,0,0
7:36.383,164298,),0,0,1
7:36.906,164486,(,0,0,0
7:36.950,164502,p,0,0,0
7:37.006,164522,),0,0,0
7:37.064,164543,(,0,0,1
7:37.128,164566,N,0,0,0
7:37.178,164584,),0,0,1
7:37.306,164630,(,0,0,2
7:37.392,164661,t,0,0,5
7:37.453,164683,t,0,0,5
7:37.544,164716,),0,0,2
7:37.678,164764,(,0,0,0
7:37.722,164780,p,0,0,0
7:37.781,164801,),0,0,0
7:37.836,164821,(,0,0,1
7:37.903,164845,N,0,0,0
7:37.953,164863,),0,0,1
7:38.058,164901,(,0,0,2
7:38.161,164938,t,0,0,5
7:38.453,165043,t,0,0,5
7:38.519,165067,),0,0,2
7:41.136,166009,(,0,0,0
7:41.181,166025,p,0,0,0
7:41.236,166045,),0,0,0
7:41.319,166075,(,0,0,1
7:41.353,166087,N,0,0,0
7:41.403,166105,),0,0,1
7:41.467,166128,(,0,0,2
7:41.586,166171,t,0,0,0
7:41.683,166206,),0,0,2
7:42.006,166322,(,0,0,0
7:42.047,166337,p,0,0,0
7:42.097,166355,),0,0,0
7:42.144,166372,(,0,0,1
7:42.217,166398,N,0,0,0
7:42.264,166415,),0,0,1
7:42.364,166451,(,0,0,2
7:42.478,166492,t,0,0,5
7:42.581,166529,t,0,0,5
7:42.633,166548,),0,0,2
7:46.339,167882,(,0,0,0
7:46.378,167896,p,0,0,0
7:46.422,167912,),0,0,0
7:46.472,167930,(,0,0,1
7:46.547,167957,N,0,0,0
7:46.597,167975,),0,0,1
7:46.708,168015,(,0,0,2
7:46.814,168053,t,0,0,5
7:46.914,168089,t,0,0,5
7:46.964,168107,),0,0,2
7:48.983,168834,(,0,0,0
7:49.028,168850,p,0,0,0
7:49.083,168870,),0,0,0
7:49.169,168901,(,0,0,1
7:49.203,168913,N,0,0,0
7:49.256,168932,),0,0,1
7:49.339,168962,(,0,0,2
7:49.447,169001,t,0,0,0
7:49.536,169033,),0,0,2
7:49.822,169136,(,0,0,0
7:49.867,169152,p,0,0,0
7:49.919,169171,),0,0,0
7:50.003,169201,(,0,0,1
7:50.036,169213,N,0,0,0
7:50.089,169232,),0,0,1
7:50.178,169264,(,0,0,2
7:50.275,169299,t,0,0,0
7:50.378,169336,),0,0,2
7:50.681,169445,(,0,0,0
7:50.722,169460,p,0,0,0
7:50.772,169478,),0,0,0
7:50.814,169493,(,0,0,1
7:50.889,169520,N,0,0,0
7:50.936,169537,),0,0,1
7:51.042,169575,(,0,0,2
7:51.144,169612,t,0,0,5
7:51.236,169645,t,0,0,5
7:51.281,169661,),0,0,2
7:53.361,170410,(,0,0,0
7:53.406,170426,p,0,0,0
7:53.458,170445,),0,0,0
7:53.539,170474,(,0,0,1
7:53.572,170486,N,0,0,0
7:53.625,170505,),0,0,1
7:53.708,170535,(,0,0,2
7:53.817,170574,t,0,0,0
7:53.911,170608,),0,0,2
7:54.211,170716,(,0,0,0
7:54.258,170733,p,0,0,0
7:54.303,170749,),0,0,0
7:54.389,170780,(,0,0,1
7:54.422,170792,N,0,0,0
7:54.469,170809,),0,0,1
7:54.547,170837,(,0,0,2
7:54.656,170876,t,0,0,0
7:54.747,170909,),0,0,2
7:55.042,171015,(,0,0,0
7:55.089,171032,p,0,0,0
7:55.139,171050,),0,0,0
7:55.189,171068,(,0,0,1
7:55.261,171094,N,0,0,0
7:55.308,171111,),0,0,1
7:55.431,171155,(,0,0,2
7:55.528,171190,t,0,0,5
7:55.611,171220,t,0,0,5
7:55.694,171250,),0,0,2
7:57.747,171989,(,0,0,0
7:57.792,172005,p,0,0,0
7:57.850,172026,),0,0,0
7:57.933,172056,(,0,0,1
7:57.967,172068,N,0,0,0
7:58.017,172086,),0,0,1
7:58.108,172119,(,0,0,2
7:58.214,172157,t,0,0,0
7:58.317,172194,),0,0,2
7:58.639,172310,(,0,0,0
7:58.686,172327,p,0,0,0
7:58.733,172344,),0,0,0
7:58.783,172362,(,0,0,1
7:58.853,172387,N,0,0,0
7:58.900,172404,),0,0,1
7:59.006,172442,(,0,0,2
7:59.114,172481,t,0,0,5
7:59.206,172514,t,0,0,5
7:59.292,172545,),0,0,2
7:59.544,172636,(,0,0,0
7:59.586,172651,p,0,0,0
7:59.636,172669,),0,0,0
7:59.692,172689,(,0,0,1
7:59.758,172713,N,0,0,0
7:59.806,172730,),0,0,1
7:59.925,172773,(,0,0,2
8:00.017,172806,t,0,0,0
8:00.081,172829,),0,0,2
8:03.300,173988,(,0,0,0
8:03.344,174004,p,0,0,0
8:03.394,174022,),0,0,0
8:03.478,174052,(,0,0,1
8:03.511,174064,N,0,0,0
8:03.561,174082,),0,0,1
8:03.619,174103,(,0,0,2
8:03.742,174147,t,0,0,0
8:03.842,174183,),0,0,2
8:04.194,174310,(,0,0,0
8:04.239,174326,p,0,0,0
8:04.289,174344,),0,0,0
8:04.375,174375,(,0,0,1
8:04.408,174387,N,0,0,0
8:04.458,174405,),0,0,1
8:04.536,174433,(,0,0,2
8:04.644,174472,t,0,0,0
8:04.742,174507,),0,0,2
8:05.056,174620,(,0,0,0
8:05.100,174636,p,0,0,0
8:05.156,174656,),0,0,0
8:05.244,174688,(,0,0,1
8:05.281,174701,N,0,0,0
8:05.328,174718,),0,0,1
8:05.392,174741,(,0,0,2
8:05.511,174784,t,0,0,0
8:05.608,174819,),0,0,2
8:06.750,175230,(,0,0,0
8:06.789,175244,p,0,0,0
8:06.844,175264,),0,0,0
8:06.894,175282,(,0,0,1
8:06.964,175307,N,0,0,0
8:07.017,175326,),0,0,1
8:07.181,175385,(,0,0,2
8:07.239,175406,t,0,0,5
8:07.331,175439,t,0,0,5
8:07.403,175465,),0,0,2
8:07.653,175555,(,0,0,0
8:07.697,175571,p,0,0,0
8:07.744,175588,),0,0,0
8:07.792,175605,(,0,0,1
8:07.864,175631,N,0,0,0
8:07.911,175648,),0,0,1
8:08.028,175690,(,0,0,2
8:08.119,175723,t,0,0,0
8:08.189,175748,),0,0,2
8:09.519,176227,(,0,0,0
8:09.564,176243,p,0,0,0
8:09.614,176261,),0,0,0
8:09.661,176278,(,0,0,1
8:09.736,176305,N,0,0,0
8:09.783,176322,),0,0,1
8:09.914,176369,(,0,0,2
8:10.006,176402,t,0,0,0
