Elapsedtime,sample,Type,Sub,Chan,Num
0:00.300,108,(,0,0,0
0:00.342,123,p,0,0,0
0:00.389,140,),0,0,0
0:00.453,163,(,0,0,1
0:00.497,179,N,0,0,0
0:00.581,209,),0,0,1
0:00.697,251,(,0,0,2
0:00.842,303,t,0,0,0
0:00.947,341,),0,0,2
0:01.264,455,(,0,0,0
0:01.303,469,p,0,0,0
0:01.358,489,),0,0,0
0:01.419,511,(,0,0,1
0:01.461,526,N,0,0,0
0:01.542,555,),0,0,1
0:01.667,600,(,0,0,2
0:01.806,650,t,0,0,0
0:01.911,688,),0,0,2
0:02.161,778,(,0,0,0
0:02.206,794,p,0,0,0
0:02.250,810,),0,0,0
0:02.322,836,(,0,0,1
0:02.350,846,N,0,0,0
0:02.431,875,),0,0,1
0:02.536,913,(,0,0,2
0:02.697,971,t,0,0,0
0:02.789,1004,),0,0,2
0:03.050,1098,(,0,0,0
0:03.083,1110,p,0,0,0
0:03.128,1126,),0,0,0
0:03.189,1148,(,0,0,1
0:03.236,1165,N,0,0,0
0:03.314,1193,),0,0,1
0:03.425,1233,(,0,0,2
0:03.575,1287,t,0,0,0
0:03.686,1327,),0,0,2
0:03.992,1437,(,0,0,0
0:04.031,1451,p,0,0,0
0:04.078,1468,),0,0,0
0:04.150,1494,(,0,0,1
0:04.197,1511,N,0,0,0
0:04.281,1541,),0,0,1
0:04.389,1580,(,0,0,2
0:04.539,1634,t,0,0,0
0:04.653,1675,),0,0,2
0:04.889,1760,(,0,0,0
0:04.936,1777,p,0,0,0
0:04.978,1792,),0,0,0
0:05.047,1817,(,0,0,1
0:05.089,1832,N,0,0,0
0:05.169,1861,),0,0,1
0:05.261,1894,(,0,0,2
0:05.417,1950,t,0,0,5
0:05.711,2056,t,0,0,5
0:05.775,2079,),0,0,2
0:06.636,2389,(,0,0,0
0:06.675,2403,p,0,0,0
0:06.725,2421,),0,0,0
0:06.783,2442,(,0,0,1
0:06.831,2459,N,0,0,0
0:06.856,2468,),0,0,1
0:07.131,2567,(,0,0,2
0:07.219,2599,t,0,0,0
0:07.325,2637,),0,0,2
0:07.539,2714,(,0,0,0
0:07.581,2729,p,0,0,0
0:07.636,2749,),0,0,0
0:07.703,2773,(,0,0,1
0:07.744,2788,N,0,0,0
0:07.825,2817,),0,0,1
0:07.933,2856,(,0,0,2
0:08.069,2905,t,0,0,0
0:08.172,2942,),0,0,2
0:08.381,3017,(,0,0,0
0:08.422,3032,p,0,0,0
0:08.469,3049,),0,0,0
0:08.533,3072,(,0,0,1
0:08.572,3086,N,0,0,0
0:08.650,3114,),0,0,1
0:08.736,3145,(,0,0,2
0:08.900,3204,t,0,0,0
0:08.994,3238,),0,0,2
0:09.297,3347,(,0,0,0
0:09.339,3362,p,0,0,0
0:09.392,3381,),0,0,0
0:09.453,3403,(,0,0,1
0:09.494,3418,N,0,0,0
0:09.575,3447,),0,0,1
0:09.694,3490,(,0,0,2
0:09.847,3545,t,0,0,0
0:09.961,3586,),0,0,2
0:10.231,3683,(,0,0,0
0:10.269,3697,p,0,0,0
0:10.317,3714,),0,0,0
0:10.381,3737,(,0,0,1
0:10.425,3753,N,0,0,0
0:10.508,3783,),0,0,1
0:10.611,3820,(,0,0,2
0:10.769,3877,t,0,0,0
0:10.867,3912,),0,0,2
0:11.069,3985,(,0,0,0
0:11.111,4000,p,0,0,0
0:11.158,4017,),0,0,0
0:11.225,4041,(,0,0,1
0:11.267,4056,N,0,0,0
0:11.347,4085,),0,0,1
0:11.439,4118,(,0,0,2
0:11.606,4178,t,0,0,0
0:11.703,4213,),0,0,2
0:12.000,4320,(,0,0,0
0:12.033,4332,p,0,0,0
0:12.081,4349,),0,0,0
0:12.136,4369,(,0,0,1
0:12.178,4384,N,0,0,0
0:12.258,4413,),0,0,1
0:12.375,4455,(,0,0,2
0:12.531,4511,t,0,0,0
0:12.639,4550,),0,0,2
0:12.894,4642,(,0,0,0
0:12.950,4662,p,0,0,0
0:12.992,4677,),0,0,0
0:13.064,4703,(,0,0,1
0:13.106,4718,N,0,0,0
0:13.192,4749,),0,0,1
0:13.322,4796,(,0,0,2
0:13.461,4846,t,0,0,0
0:13.556,4880,),0,0,2
0:13.783,4962,(,0,0,0
0:13.822,4976,p,0,0,0
0:13.872,4994,),0,0,0
0:13.942,5019,(,0,0,1
0:13.983,5034,N,0,0,0
0:14.061,5062,),0,0,1
0:14.161,5098,(,0,0,2
0:14.306,5150,t,0,0,0
0:14.408,5187,),0,0,2
0:14.733,5304,(,0,0,0
0:14.775,5319,p,0,0,0
0:14.825,5337,),0,0,0
0:14.889,5360,(,0,0,1
0:14.933,5376,N,0,0,0
0:15.017,5406,),0,0,1
0:15.161,5458,(,0,0,2
0:15.292,5505,t,0,0,0
0:15.411,5548,),0,0,2
0:15.742,5667,(,0,0,0
0:15.781,5681,p,0,0,0
0:15.831,5699,),0,0,0
0:15.908,5727,(,0,0,1
0:15.942,5739,N,0,0,0
0:16.028,5770,),0,0,1
0:16.144,5812,(,0,0,2
0:16.294,5866,t,0,0,0
0:16.389,5900,),0,0,2
0:16.631,5987,(,0,0,0
0:16.672,6002,p,0,0,0
0:16.719,6019,),0,0,0
0:16.786,6043,(,0,0,1
0:16.831,6059,N,0,0,0
0:16.908,6087,),0,0,1
0:17.017,6126,(,0,0,2
0:17.161,6178,t,0,0,0
0:17.267,6216,),0,0,2
0:17.628,6346,(,0,0,0
0:17.667,6360,p,0,0,0
0:17.711,6376,),0,0,0
0:17.772,6398,(,0,0,1
0:17.814,6413,N,0,0,0
0:17.897,6443,),0,0,1
0:18.022,6488,(,0,0,2
0:18.175,6543,t,0,0,0
0:18.281,6581,),0,0,2
0:18.692,6729,(,0,0,0
0:18.725,6741,p,0,0,0
0:18.775,6759,),0,0,0
0:18.853,6787,(,0,0,1
0:18.883,6798,N,0,0,0
0:18.961,6826,),0,0,1
0:19.056,6860,(,0,0,2
0:19.219,6919,t,0,0,0
0:19.319,6955,),0,0,2
0:19.592,7053,(,0,0,0
0:19.631,7067,p,0,0,0
0:19.678,7084,),0,0,0
0:19.747,7109,(,0,0,1
0:19.778,7120,N,0,0,0
0:19.856,7148,),0,0,1
0:19.969,7189,(,0,0,2
0:20.111,7240,t,0,0,0
0:20.214,7277,),0,0,2
0:20.572,7406,(,0,0,0
0:20.614,7421,p,0,0,0
0:20.667,7440,),0,0,0
0:20.731,7463,(,0,0,1
0:20.775,7479,N,0,0,0
0:20.858,7509,),0,0,1
0:20.986,7555,(,0,0,2
0:21.128,7606,t,0,0,0
0:21.242,7647,),0,0,2
0:21.542,7755,(,0,0,0
0:21.583,7770,p,0,0,0
0:21.628,7786,),0,0,0
0:21.697,7811,(,0,0,1
0:21.736,7825,N,0,0,0
0:21.817,7854,),0,0,1
0:21.917,7890,(,0,0,2
0:22.058,7941,t,0,0,0
0:22.161,7978,),0,0,2
0:22.408,8067,(,0,0,0
0:22.450,8082,p,0,0,0
0:22.500,8100,),0,0,0
0:22.558,8121,(,0,0,1
0:22.600,8136,N,0,0,0
0:22.681,8165,),0,0,1
0:22.800,8208,(,0,0,2
0:22.950,8262,t,0,0,0
0:23.050,8298,),0,0,2
0:23.342,8403,(,0,0,0
0:23.383,8418,p,0,0,0
0:23.433,8436,),0,0,0
0:23.500,8460,(,0,0,1
0:23.547,8477,N,0,0,0
0:23.631,8507,),0,0,1
0:23.731,8543,(,0,0,2
0:23.892,8601,t,0,0,0
0:24.006,8642,),0,0,2
0:24.292,8745,(,0,0,0
0:24.342,8763,p,0,0,0
0:24.383,8778,),0,0,0
0:24.461,8806,(,0,0,1
0:24.492,8817,N,0,0,0
0:24.569,8845,),0,0,1
0:24.669,8881,(,0,0,2
0:24.825,8937,t,0,0,0
0:24.928,8974,),0,0,2
0:25.181,9065,(,0,0,0
0:25.222,9080,p,0,0,0
0:25.272,9098,),0,0,0
0:25.333,9120,(,0,0,1
0:25.375,9135,N,0,0,0
0:25.453,9163,),0,0,1
0:25.575,9207,(,0,0,2
0:25.708,9255,t,0,0,0
0:25.817,9294,),0,0,2
0:26.167,9420,(,0,0,0
0:26.214,9437,p,0,0,0
0:26.261,9454,),0,0,0
0:26.331,9479,(,0,0,1
0:26.375,9495,N,0,0,0
0:26.461,9526,),0,0,1
0:26.583,9570,(,0,0,2
0:26.725,9621,t,0,0,0
0:26.839,9662,),0,0,2
0:27.178,9784,(,0,0,0
0:27.211,9796,p,0,0,0
0:27.258,9813,),0,0,0
0:27.325,9837,(,0,0,1
0:27.367,9852,N,0,0,0
0:27.444,9880,),0,0,1
0:27.547,9917,(,0,0,2
0:27.697,9971,t,0,0,0
0:27.808,10011,),0,0,2
0:28.081,10109,(,0,0,0
0:28.119,10123,p,0,0,0
0:28.167,10140,),0,0,0
0:28.236,10165,(,0,0,1
0:28.281,10181,N,0,0,0
0:28.364,10211,),0,0,1
0:28.492,10257,(,0,0,2
0:28.625,10305,t,0,0,0
0:28.719,10339,),0,0,2
0:29.056,10460,(,0,0,0
0:29.106,10478,p,0,0,0
0:29.156,10496,),0,0,0
0:29.225,10521,(,0,0,1
0:29.269,10537,N,0,0,0
0:29.347,10565,),0,0,1
0:29.469,10609,(,0,0,2
0:29.608,10659,t,0,0,0
0:29.719,10699,),0,0,2
0:30.061,10822,(,0,0,0
0:30.103,10837,p,0,0,0
0:30.147,10853,),0,0,0
0:30.222,10880,(,0,0,1
0:30.253,10891,N,0,0,0
0:30.333,10920,),0,0,1
0:30.458,10965,(,0,0,2
0:30.603,11017,t,0,0,0
0:30.708,11055,),0,0,2
0:30.983,11154,(,0,0,0
0:31.025,11169,p,0,0,0
0:31.069,11185,),0,0,0
0:31.131,11207,(,0,0,1
0:31.175,11223,N,0,0,0
0:31.256,11252,),0,0,1
0:31.358,11289,(,0,0,2
0:31.514,11345,t,0,0,0
0:31.617,11382,),0,0,2
0:31.969,11509,(,0,0,0
0:32.008,11523,p,0,0,0
0:32.058,11541,),0,0,0
0:32.125,11565,(,0,0,1
0:32.169,11581,N,0,0,0
0:32.250,11610,),0,0,1
0:32.372,11654,(,0,0,2
0:32.503,11701,t,0,0,0
0:32.611,11740,),0,0,2
0:32.914,11849,(,0,0,0
0:32.953,11863,p,0,0,0
0:32.997,11879,),0,0,0
0:33.069,11905,(,0,0,1
0:33.100,11916,N,0,0,0
0:33.175,11943,),0,0,1
0:33.308,11991,(,0,0,2
0:33.436,12037,t,0,0,0
0:33.539,12074,),0,0,2
0:33.781,12161,(,0,0,0
0:33.822,12176,p,0,0,0
0:33.869,12193,),0,0,0
0:33.939,12218,(,0,0,1
0:33.983,12234,N,0,0,0
0:34.064,12263,),0,0,1
0:34.181,12305,(,0,0,2
0:34.308,12351,t,0,0,0
0:34.408,12387,),0,0,2
0:34.769,12517,(,0,0,0
0:34.811,12532,p,0,0,0
0:34.861,12550,),0,0,0
0:34.925,12573,(,0,0,1
0:34.967,12588,N,0,0,0
0:35.044,12616,),0,0,1
0:35.175,12663,(,0,0,2
0:35.319,12715,t,0,0,0
0:35.447,12761,),0,0,2
0:35.747,12869,(,0,0,0
0:35.789,12884,p,0,0,0
0:35.831,12899,),0,0,0
0:35.903,12925,(,0,0,1
0:35.944,12940,N,0,0,0
0:36.031,12971,),0,0,1
0:36.164,13019,(,0,0,2
0:36.289,13064,t,0,0,0
0:36.386,13099,),0,0,2
0:36.633,13188,(,0,0,0
0:36.678,13204,p,0,0,0
0:36.725,13221,),0,0,0
0:36.789,13244,(,0,0,1
0:36.831,13259,N,0,0,0
0:36.911,13288,),0,0,1
0:37.042,13335,(,0,0,2
0:37.181,13385,t,0,0,0
0:37.286,13423,),0,0,2
0:37.625,13545,(,0,0,0
0:37.669,13561,p,0,0,0
0:37.717,13578,),0,0,0
0:37.781,13601,(,0,0,1
0:37.822,13616,N,0,0,0
0:37.903,13645,),0,0,1
0:38.036,13693,(,0,0,2
0:38.161,13738,t,0,0,0
0:38.281,13781,),0,0,2
0:38.556,13880,(,0,0,0
0:38.600,13896,p,0,0,0
0:38.644,13912,),0,0,0
0:38.711,13936,(,0,0,1
0:38.742,13947,N,0,0,0
0:38.828,13978,),0,0,1
0:38.939,14018,(,0,0,2
0:39.089,14072,t,0,0,0
0:39.183,14106,),0,0,2
0:39.464,14207,(,0,0,0
0:39.508,14223,p,0,0,0
0:39.556,14240,),0,0,0
0:39.628,14266,(,0,0,1
0:39.672,14282,N,0,0,0
0:39.747,14309,),0,0,1
0:39.853,14347,(,0,0,2
0:40.000,14400,t,0,0,0
0:40.111,14440,),0,0,2
0:40.428,14554,(,0,0,0
0:40.469,14569,p,0,0,0
0:40.514,14585,),0,0,0
0:40.581,14609,(,0,0,1
0:40.625,14625,N,0,0,0
0:40.706,14654,),0,0,1
0:40.833,14700,(,0,0,2
0:40.975,14751,t,0,0,0
0:41.086,14791,),0,0,2
0:41.381,14897,(,0,0,0
0:41.417,14910,p,0,0,0
0:41.467,14928,),0,0,0
0:41.533,14952,(,0,0,1
0:41.575,14967,N,0,0,0
0:41.661,14998,),0,0,1
0:41.781,15041,(,0,0,2
0:41.914,15089,t,0,0,0
0:42.014,15125,),0,0,2
0:42.261,15214,(,0,0,0
0:42.303,15229,p,0,0,0
0:42.350,15246,),0,0,0
0:42.419,15271,(,0,0,1
0:42.461,15286,N,0,0,0
0:42.542,15315,),0,0,1
0:42.678,15364,(,0,0,2
0:42.814,15413,t,0,0,0
0:42.922,15452,),0,0,2
0:43.247,15569,(,0,0,0
0:43.286,15583,p,0,0,0
0:43.333,15600,),0,0,0
0:43.394,15622,(,0,0,1
0:43.436,15637,N,0,0,0
0:43.511,15664,),0,0,1
0:43.650,15714,(,0,0,2
0:43.775,15759,t,0,0,0
0:43.883,15798,),0,0,2
0:44.183,15906,(,0,0,0
0:44.231,15923,p,0,0,0
0:44.278,15940,),0,0,0
0:44.339,15962,(,0,0,1
0:44.378,15976,N,0,0,0
0:44.467,16008,),0,0,1
0:44.592,16053,(,0,0,2
0:44.722,16100,t,0,0,0
0:44.817,16134,),0,0,2
0:45.081,16229,(,0,0,0
0:45.128,16246,p,0,0,0
0:45.178,16264,),0,0,0
0:45.244,16288,(,0,0,1
0:45.286,16303,N,0,0,0
0:45.361,16330,),0,0,1
0:45.464,16367,(,0,0,2
0:45.608,16419,t,0,0,0
0:45.717,16458,),0,0,2
0:46.050,16578,(,0,0,0
0:46.094,16594,p,0,0,0
0:46.142,16611,),0,0,0
0:46.203,16633,(,0,0,1
0:46.247,16649,N,0,0,0
0:46.331,16679,),0,0,1
0:46.469,16729,(,0,0,2
0:46.603,16777,t,0,0,0
0:46.717,16818,),0,0,2
0:47.061,16942,(,0,0,0
0:47.114,16961,p,0,0,0
0:47.158,16977,),0,0,0
0:47.228,17002,(,0,0,1
0:47.269,17017,N,0,0,0
0:47.353,17047,),0,0,1
0:47.442,17079,(,0,0,2
0:47.611,17140,t,0,0,0
0:47.708,17175,),0,0,2
0:47.989,17276,(,0,0,0
0:48.039,17294,p,0,0,0
0:48.086,17311,),0,0,0
0:48.156,17336,(,0,0,1
0:48.197,17351,N,0,0,0
0:48.281,17381,),0,0,1
0:48.392,17421,(,0,0,2
0:48.547,17477,t,0,0,0
0:48.644,17512,),0,0,2
0:48.986,17635,(,0,0,0
0:49.031,17651,p,0,0,0
0:49.078,17668,),0,0,0
0:49.139,17690,(,0,0,1
0:49.183,17706,N,0,0,0
0:49.264,17735,),0,0,1
0:49.406,17786,(,0,0,2
0:49.533,17832,t,0,0,0
0:49.642,17871,),0,0,2
0:49.944,17980,(,0,0,0
0:49.978,17992,p,0,0,0
0:50.025,18009,),0,0,0
0:50.097,18035,(,0,0,1
0:50.131,18047,N,0,0,0
0:50.214,18077,),0,0,1
0:50.322,18116,(,0,0,2
0:50.469,18169,t,0,0,0
0:50.578,18208,),0,0,2
0:50.839,18302,(,0,0,0
0:50.883,18318,p,0,0,0
0:50.931,18335,),0,0,0
0:50.997,18359,(,0,0,1
0:51.025,18369,N,0,0,0
0:51.103,18397,),0,0,1
0:51.225,18441,(,0,0,2
0:51.369,18493,t,0,0,0
0:51.478,18532,),0,0,2
0:51.786,18643,(,0,0,0
0:51.822,18656,p,0,0,0
0:51.869,18673,),0,0,0
0:51.939,18698,(,0,0,1
0:51.983,18714,N,0,0,0
0:52.067,18744,),0,0,1
0:52.197,18791,(,0,0,2
0:52.328,18838,t,0,0,0
0:52.436,18877,),0,0,2
0:52.728,18982,(,0,0,0
0:52.772,18998,p,0,0,0
0:52.822,19016,),0,0,0
0:52.883,19038,(,0,0,1
0:52.925,19053,N,0,0,0
0:53.008,19083,),0,0,1
0:53.100,19116,(,0,0,2
0:53.258,19173,t,0,0,0
0:53.356,19208,),0,0,2
0:53.597,19295,(,0,0,0
0:53.636,19309,p,0,0,0
0:53.681,19325,),0,0,0
0:53.744,19348,(,0,0,1
0:53.789,19364,N,0,0,0
0:53.875,19395,),0,0,1
0:53.992,19437,(,0,0,2
0:54.136,19489,t,0,0,0
0:54.244,19528,),0,0,2
0:54.586,19651,(,0,0,0
0:54.628,19666,p,0,0,0
0:54.672,19682,),0,0,0
0:54.733,19704,(,0,0,1
0:54.775,19719,N,0,0,0
0:54.856,19748,),0,0,1
0:54.992,19797,(,0,0,2
0:55.122,19844,t,0,0,0
0:55.239,19886,),0,0,2
0:55.503,19981,(,0,0,0
0:55.550,19998,p,0,0,0
0:55.600,20016,),0,0,0
0:55.672,20042,(,0,0,1
0:55.703,20053,N,0,0,0
0:55.783,20082,),0,0,1
0:55.892,20121,(,0,0,2
0:56.033,20172,t,0,0,0
0:56.136,20209,),0,0,2
0:56.400,20304,(,0,0,0
0:56.442,20319,p,0,0,0
0:56.489,20336,),0,0,0
0:56.558,20361,(,0,0,1
0:56.589,20372,N,0,0,0
0:56.667,20400,),0,0,1
0:56.753,20431,(,0,0,2
0:56.922,20492,t,0,0,0
0:57.025,20529,),0,0,2
0:57.378,20656,(,0,0,0
0:57.419,20671,p,0,0,0
0:57.469,20689,),0,0,0
0:57.539,20714,(,0,0,1
0:57.581,20729,N,0,0,0
0:57.661,20758,),0,0,1
0:57.772,20798,(,0,0,2
0:57.922,20852,t,0,0,0
0:58.031,20891,),0,0,2
0:58.325,20997,(,0,0,0
0:58.364,21011,p,0,0,0
0:58.408,21027,),0,0,0
0:58.475,21051,(,0,0,1
0:58.519,21067,N,0,0,0
0:58.603,21097,),0,0,1
0:58.725,21141,(,0,0,2
0:58.847,21185,t,0,0,0
0:58.944,21220,),0,0,2
0:59.194,21310,(,0,0,0
0:59.236,21325,p,0,0,0
0:59.286,21343,),0,0,0
0:59.350,21366,(,0,0,1
0:59.394,21382,N,0,0,0
0:59.478,21412,),0,0,1
0:59.597,21455,(,0,0,2
0:59.747,21509,t,0,0,0
0:59.856,21548,),0,0,2
1:00.169,21661,(,0,0,0
1:00.211,21676,p,0,0,0
1:00.258,21693,),0,0,0
1:00.317,21714,(,0,0,1
1:00.361,21730,N,0,0,0
1:00.439,21758,),0,0,1
1:00.564,21803,(,0,0,2
1:00.703,21853,t,0,0,0
1:00.814,21893,),0,0,2
1:01.061,21982,(,0,0,0
1:01.119,22003,p,0,0,0
1:01.167,22020,),0,0,0
1:01.242,22047,(,0,0,1
1:01.275,22059,N,0,0,0
1:01.356,22088,),0,0,1
1:01.458,22125,(,0,0,2
1:01.606,22178,t,0,0,0
1:01.708,22215,),0,0,2
1:01.967,22308,(,0,0,0
1:02.008,22323,p,0,0,0
1:02.053,22339,),0,0,0
1:02.114,22361,(,0,0,1
1:02.158,22377,N,0,0,0
1:02.233,22404,),0,0,1
1:02.339,22442,(,0,0,2
1:02.486,22495,t,0,0,0
1:02.594,22534,),0,0,2
1:02.925,22653,(,0,0,0
1:02.967,22668,p,0,0,0
1:03.017,22686,),0,0,0
1:03.081,22709,(,0,0,1
1:03.125,22725,N,0,0,0
1:03.208,22755,),0,0,1
1:03.331,22799,(,0,0,2
1:03.478,22852,t,0,0,0
1:03.586,22891,),0,0,2
1:03.900,23004,(,0,0,0
1:03.936,23017,p,0,0,0
1:03.983,23034,),0,0,0
1:04.047,23057,(,0,0,1
1:04.092,23073,N,0,0,0
1:04.175,23103,),0,0,1
1:04.278,23140,(,0,0,2
1:04.425,23193,t,0,0,0
1:04.525,23229,),0,0,2
1:04.792,23325,(,0,0,0
1:04.828,23338,p,0,0,0
1:04.875,23355,),0,0,0
1:04.942,23379,(,0,0,1
1:04.983,23394,N,0,0,0
1:05.069,23425,),0,0,1
1:05.192,23469,(,0,0,2
1:05.336,23521,t,0,0,0
1:05.444,23560,),0,0,2
1:05.764,23675,(,0,0,0
1:05.811,23692,p,0,0,0
1:05.858,23709,),0,0,0
1:05.917,23730,(,0,0,1
1:05.961,23746,N,0,0,0
1:06.039,23774,),0,0,1
1:06.161,23818,(,0,0,2
1:06.306,23870,t,0,0,0
1:06.422,23912,),0,0,2
1:06.694,24010,(,0,0,0
1:06.739,24026,p,0,0,0
1:06.786,24043,),0,0,0
1:06.853,24067,(,0,0,1
1:06.894,24082,N,0,0,0
1:06.981,24113,),0,0,1
1:07.075,24147,(,0,0,2
1:07.231,24203,t,0,0,0
1:07.331,24239,),0,0,2
1:07.597,24335,(,0,0,0
1:07.639,24350,p,0,0,0
1:07.686,24367,),0,0,0
1:07.744,24388,(,0,0,1
1:07.789,24404,N,0,0,0
1:07.864,24431,),0,0,1
1:07.989,24476,(,0,0,2
1:08.119,24523,t,0,0,0
1:08.228,24562,),0,0,2
1:08.592,24693,(,0,0,0
1:08.639,24710,p,0,0,0
1:08.686,24727,),0,0,0
1:08.753,24751,(,0,0,1
1:08.797,24767,N,0,0,0
1:08.883,24798,),0,0,1
1:08.997,24839,(,0,0,2
1:09.153,24895,t,0,0,0
1:09.261,24934,),0,0,2
1:09.592,25053,(,0,0,0
1:09.622,25064,p,0,0,0
1:09.664,25079,),0,0,0
1:09.733,25104,(,0,0,1
1:09.775,25119,N,0,0,0
1:09.856,25148,),0,0,1
1:09.992,25197,(,0,0,2
1:10.106,25238,t,0,0,0
1:10.200,25272,),0,0,2
1:10.483,25374,(,0,0,0
1:10.519,25387,p,0,0,0
1:10.569,25405,),0,0,0
1:10.647,25433,(,0,0,1
1:10.678,25444,N,0,0,0
1:10.764,25475,),0,0,1
1:10.875,25515,(,0,0,2
1:11.036,25573,t,0,0,0
1:11.131,25607,),0,0,2
1:11.492,25737,(,0,0,0
1:11.536,25753,p,0,0,0
1:11.583,25770,),0,0,0
1:11.647,25793,(,0,0,1
1:11.692,25809,N,0,0,0
1:11.772,25838,),0,0,1
1:11.903,25885,(,0,0,2
1:12.042,25935,t,0,0,0
1:12.142,25971,),0,0,2
1:12.461,26086,(,0,0,0
1:12.500,26100,p,0,0,0
1:12.547,26117,),0,0,0
1:12.622,26144,(,0,0,1
1:12.653,26155,N,0,0,0
1:12.728,26182,),0,0,1
1:12.833,26220,(,0,0,2
1:12.992,26277,t,0,0,0
1:13.108,26319,),0,0,2
1:13.378,26416,(,0,0,0
1:13.433,26436,p,0,0,0
1:13.475,26451,),0,0,0
1:13.556,26480,(,0,0,1
1:13.586,26491,N,0,0,0
1:13.669,26521,),0,0,1
1:13.769,26557,(,0,0,2
1:13.942,26619,t,0,0,0
1:14.033,26652,),0,0,2
1:14.339,26762,(,0,0,0
1:14.386,26779,p,0,0,0
1:14.436,26797,),0,0,0
1:14.508,26823,(,0,0,1
1:14.553,26839,N,0,0,0
1:14.633,26868,),0,0,1
1:14.758,26913,(,0,0,2
1:14.892,26961,t,0,0,0
1:15.000,27000,),0,0,2
1:15.342,27123,(,0,0,0
1:15.383,27138,p,0,0,0
1:15.436,27157,),0,0,0
1:15.494,27178,(,0,0,1
1:15.536,27193,N,0,0,0
1:15.614,27221,),0,0,1
1:15.736,27265,(,0,0,2
1:15.869,27313,t,0,0,0
1:15.992,27357,),0,0,2
1:16.306,27470,(,0,0,0
1:16.353,27487,p,0,0,0
1:16.400,27504,),0,0,0
1:16.483,27534,(,0,0,1
1:16.511,27544,N,0,0,0
1:16.600,27576,),0,0,1
1:16.728,27622,(,0,0,2
1:16.875,27675,t,0,0,0
1:16.969,27709,),0,0,2
1:17.219,27799,(,0,0,0
1:17.261,27814,p,0,0,0
1:17.308,27831,),0,0,0
1:17.381,27857,(,0,0,1
1:17.422,27872,N,0,0,0
1:17.506,27902,),0,0,1
1:17.608,27939,(,0,0,2
1:17.756,27992,t,0,0,0
1:17.850,28026,),0,0,2
1:18.156,28136,(,0,0,0
1:18.197,28151,p,0,0,0
1:18.242,28167,),0,0,0
1:18.300,28188,(,0,0,1
1:18.344,28204,N,0,0,0
1:18.422,28232,),0,0,1
1:18.553,28279,(,0,0,2
1:18.692,28329,t,0,0,0
1:18.797,28367,),0,0,2
1:19.128,28486,(,0,0,0
1:19.167,28500,p,0,0,0
1:19.211,28516,),0,0,0
1:19.289,28544,(,0,0,1
1:19.322,28556,N,0,0,0
1:19.406,28586,),0,0,1
1:19.533,28632,(,0,0,2
1:19.675,28683,t,0,0,0
1:19.778,28720,),0,0,2
1:20.036,28813,(,0,0,0
1:20.075,28827,p,0,0,0
1:20.125,28845,),0,0,0
1:20.197,28871,(,0,0,1
1:20.239,28886,N,0,0,0
1:20.322,28916,),0,0,1
1:20.417,28950,(,0,0,2
1:20.569,29005,t,0,0,0
1:20.664,29039,),0,0,2
1:21.014,29165,(,0,0,0
1:21.056,29180,p,0,0,0
1:21.103,29197,),0,0,0
1:21.161,29218,(,0,0,1
1:21.203,29233,N,0,0,0
1:21.281,29261,),0,0,1
1:21.403,29305,(,0,0,2
1:21.533,29352,t,0,0,0
1:21.650,29394,),0,0,2
1:21.981,29513,(,0,0,0
1:22.039,29534,p,0,0,0
1:22.086,29551,),0,0,0
1:22.156,29576,(,0,0,1
1:22.200,29592,N,0,0,0
1:22.289,29624,),0,0,1
1:22.397,29663,(,0,0,2
1:22.550,29718,t,0,0,0
1:22.656,29756,),0,0,2
1:22.925,29853,(,0,0,0
1:22.967,29868,p,0,0,0
1:23.017,29886,),0,0,0
1:23.083,29910,(,0,0,1
1:23.125,29925,N,0,0,0
1:23.203,29953,),0,0,1
1:23.306,29990,(,0,0,2
1:23.447,30041,t,0,0,0
1:23.544,30076,),0,0,2
1:23.911,30208,(,0,0,0
1:23.950,30222,p,0,0,0
1:23.994,30238,),0,0,0
1:24.061,30262,(,0,0,1
1:24.108,30279,N,0,0,0
1:24.192,30309,),0,0,1
1:24.311,30352,(,0,0,2
1:24.458,30405,t,0,0,0
1:24.561,30442,),0,0,2
1:24.872,30554,(,0,0,0
1:24.936,30577,p,0,0,0
1:24.981,30593,),0,0,0
1:25.056,30620,(,0,0,1
1:25.097,30635,N,0,0,0
1:25.183,30666,),0,0,1
1:25.300,30708,(,0,0,2
1:25.447,30761,t,0,0,0
1:25.547,30797,),0,0,2
1:25.850,30906,(,0,0,0
1:25.892,30921,p,0,0,0
1:25.936,30937,),0,0,0
1:25.997,30959,(,0,0,1
1:26.039,30974,N,0,0,0
1:26.114,31001,),0,0,1
1:26.217,31038,(,0,0,2
1:26.378,31096,t,0,0,0
1:26.475,31131,),0,0,2
1:26.811,31252,(,0,0,0
1:26.856,31268,p,0,0,0
1:26.903,31285,),0,0,0
1:26.964,31307,(,0,0,1
1:27.008,31323,N,0,0,0
1:27.089,31352,),0,0,1
1:27.208,31395,(,0,0,2
1:27.356,31448,t,0,0,0
1:27.472,31490,),0,0,2
1:27.836,31621,(,0,0,0
1:27.872,31634,p,0,0,0
1:27.914,31649,),0,0,0
1:27.989,31676,(,0,0,1
1:28.031,31691,N,0,0,0
1:28.114,31721,),0,0,1
1:28.214,31757,(,0,0,2
1:28.378,31816,t,0,0,0
1:28.475,31851,),0,0,2
1:28.747,31949,(,0,0,0
1:28.789,31964,p,0,0,0
1:28.833,31980,),0,0,0
1:28.897,32003,(,0,0,1
1:28.939,32018,N,0,0,0
1:29.017,32046,),0,0,1
1:29.100,32076,(,0,0,2
1:29.275,32139,t,0,0,0
1:29.369,32173,),0,0,2
1:29.683,32286,(,0,0,0
1:29.722,32300,p,0,0,0
1:29.767,32316,),0,0,0
1:29.836,32341,(,0,0,1
1:29.883,32358,N,0,0,0
1:29.964,32387,),0,0,1
1:30.075,32427,(,0,0,2
1:30.219,32479,t,0,0,0
1:30.333,32520,),0,0,2
1:30.636,32629,(,0,0,0
1:30.683,32646,p,0,0,0
1:30.736,32665,),0,0,0
1:30.797,32687,(,0,0,1
1:30.839,32702,N,0,0,0
1:30.922,32732,),0,0,1
1:31.008,32763,(,0,0,2
1:31.192,32829,t,0,0,0
1:31.292,32865,),0,0,2
1:31.553,32959,(,0,0,0
1:31.589,32972,p,0,0,0
1:31.636,32989,),0,0,0
1:31.711,33016,(,0,0,1
1:31.739,33026,N,0,0,0
1:31.822,33056,),0,0,1
1:31.964,33107,(,0,0,2
1:32.089,33152,t,0,0,0
1:32.181,33185,),0,0,2
1:32.469,33289,(,0,0,0
1:32.503,33301,p,0,0,0
1:32.547,33317,),0,0,0
1:32.614,33341,(,0,0,1
1:32.656,33356,N,0,0,0
1:32.733,33384,),0,0,1
1:32.844,33424,(,0,0,2
1:33.000,33480,t,0,0,0
1:33.111,33520,),0,0,2
1:33.442,33639,(,0,0,0
1:33.483,33654,p,0,0,0
1:33.533,33672,),0,0,0
1:33.594,33694,(,0,0,1
1:33.639,33710,N,0,0,0
1:33.717,33738,),0,0,1
1:33.836,33781,(,0,0,2
1:33.981,33833,t,0,0,0
1:34.081,33869,),0,0,2
1:34.317,33954,(,0,0,0
1:34.367,33972,p,0,0,0
1:34.408,33987,),0,0,0
1:34.483,34014,(,0,0,1
1:34.514,34025,N,0,0,0
1:34.594,34054,),0,0,1
1:34.861,34150,(,0,0,2
1:35.047,34217,t,0,0,1
1:35.200,34272,),0,0,2
1:36.061,34582,(,0,0,0
1:36.097,34595,p,0,0,0
1:36.150,34614,),0,0,0
1:36.206,34634,(,0,0,1
1:36.250,34650,N,0,0,0
1:36.275,34659,),0,0,1
1:36.542,34755,(,0,0,2
1:36.631,34787,t,0,0,0
1:36.744,34828,),0,0,2
1:36.978,34912,(,0,0,0
1:37.008,34923,p,0,0,0
1:37.047,34937,),0,0,0
1:37.125,34965,(,0,0,1
1:37.153,34975,N,0,0,0
1:37.233,35004,),0,0,1
1:37.367,35052,(,0,0,2
1:37.489,35096,t,0,0,5
1:37.758,35193,t,0,0,5
1:37.822,35216,),0,0,2
1:38.656,35516,(,0,0,0
1:38.694,35530,p,0,0,0
1:38.744,35548,),0,0,0
1:38.803,35569,(,0,0,1
1:38.850,35586,N,0,0,0
1:38.875,35595,),0,0,1
1:39.158,35697,(,0,0,2
1:39.408,35787,t,0,0,0
1:39.628,35866,),0,0,2
1:40.389,36140,(,0,0,0
1:40.428,36154,p,0,0,0
1:40.472,36170,),0,0,0
1:40.533,36192,(,0,0,1
1:40.575,36207,N,0,0,0
1:40.614,36221,),0,0,1
1:41.247,36449,(,0,0,2
1:41.294,36466,t,0,0,0
1:41.347,36485,),0,0,2
1:42.142,36771,(,0,0,0
1:42.178,36784,p,0,0,0
1:42.228,36802,),0,0,0
1:42.286,36823,(,0,0,1
1:42.331,36839,N,0,0,0
1:42.356,36848,),0,0,1
1:42.569,36925,(,0,0,2
1:42.861,37030,t,0,0,0
1:43.072,37106,),0,0,2
1:43.819,37375,(,0,0,0
1:43.858,37389,p,0,0,0
1:43.906,37406,),0,0,0
1:43.964,37427,(,0,0,1
1:44.008,37443,N,0,0,0
1:44.033,37452,),0,0,1
1:44.692,37689,(,0,0,2
1:44.739,37706,t,0,0,0
1:44.797,37727,),0,0,2
1:45.531,37991,(,0,0,0
1:45.572,38006,p,0,0,0
1:45.617,38022,),0,0,0
1:45.667,38040,(,0,0,1
1:45.708,38055,N,0,0,0
1:45.742,38067,),0,0,1
1:45.947,38141,(,0,0,2
1:46.067,38184,t,0,0,5
1:46.253,38251,t,0,0,5
1:46.356,38288,),0,0,2
1:47.181,38585,(,0,0,0
1:47.217,38598,p,0,0,0
1:47.267,38616,),0,0,0
1:47.328,38638,(,0,0,1
1:47.369,38653,N,0,0,0
1:47.392,38661,),0,0,1
1:48.878,39196,(,0,0,0
1:48.925,39213,p,0,0,0
1:48.967,39228,),0,0,0
1:49.033,39252,(,0,0,1
1:49.064,39263,N,0,0,0
1:49.103,39277,),0,0,1
1:49.286,39343,(,0,0,2
1:49.436,39397,t,0,0,5
1:49.650,39474,t,0,0,5
1:49.722,39500,),0,0,2
1:50.539,39794,(,0,0,0
1:50.575,39807,p,0,0,0
1:50.625,39825,),0,0,0
1:50.678,39844,(,0,0,1
1:50.728,39862,N,0,0,0
1:50.750,39870,),0,0,1
1:50.956,39944,(,0,0,2
1:51.244,40048,t,0,0,0
1:51.456,40124,),0,0,2
1:52.197,40391,(,0,0,0
1:52.236,40405,p,0,0,0
1:52.283,40422,),0,0,0
1:52.350,40446,(,0,0,1
1:52.381,40457,N,0,0,0
1:52.419,40471,),0,0,1
1:53.011,40684,(,0,0,2
1:53.058,40701,t,0,0,0
1:53.119,40723,),0,0,2
1:53.858,40989,(,0,0,0
1:53.903,41005,p,0,0,0
1:53.950,41022,),0,0,0
1:54.006,41042,(,0,0,1
1:54.047,41057,N,0,0,0
1:54.072,41066,),0,0,1
1:54.283,41142,(,0,0,2
1:54.553,41239,t,0,0,0
1:54.744,41308,),0,0,2
1:55.486,41575,(,0,0,0
1:55.528,41590,p,0,0,0
1:55.578,41608,),0,0,0
1:55.639,41630,(,0,0,1
1:55.683,41646,N,0,0,0
1:55.711,41656,),0,0,1
1:55.919,41731,(,0,0,2
1:56.211,41836,t,0,0,0
1:56.419,41911,),0,0,2
1:57.106,42158,(,0,0,0
1:57.136,42169,p,0,0,0
1:57.181,42185,),0,0,0
1:57.253,42211,(,0,0,1
1:57.278,42220,N,0,0,0
1:57.353,42247,),0,0,1
1:57.508,42303,(,0,0,2
1:57.650,42354,t,0,0,5
1:57.808,42411,t,0,0,5
1:57.892,42441,),0,0,2
1:58.656,42716,(,0,0,0
1:58.697,42731,p,0,0,0
1:58.744,42748,),0,0,0
1:58.806,42770,(,0,0,1
1:58.850,42786,N,0,0,0
1:58.936,42817,),0,0,1
1:59.094,42874,(,0,0,2
1:59.222,42920,t,0,0,5
1:59.356,42968,t,0,0,5
1:59.492,43017,),0,0,2
2:00.250,43290,(,0,0,0
2:00.289,43304,p,0,0,0
2:00.333,43320,),0,0,0
2:00.406,43346,(,0,0,1
2:00.433,43356,N,0,0,0
2:00.514,43385,),0,0,1
2:00.689,43448,(,0,0,2
2:00.817,43494,t,0,0,5
2:00.956,43544,t,0,0,5
2:01.086,43591,),0,0,2
2:01.853,43867,(,0,0,0
2:01.894,43882,p,0,0,0
2:01.942,43899,),0,0,0
2:02.000,43920,(,0,0,1
2:02.042,43935,N,0,0,0
2:02.119,43963,),0,0,1
2:02.267,44016,(,0,0,2
2:02.389,44060,t,0,0,5
2:02.647,44153,t,0,0,5
2:02.706,44174,),0,0,2
2:03.492,44457,(,0,0,0
2:03.533,44472,p,0,0,0
2:03.572,44486,),0,0,0
2:03.639,44510,(,0,0,1
2:03.681,44525,N,0,0,0
2:03.767,44556,),0,0,1
2:03.928,44614,(,0,0,2
2:04.072,44666,t,0,0,5
2:04.208,44715,t,0,0,5
2:04.353,44767,),0,0,2
2:05.117,45042,(,0,0,0
2:05.156,45056,p,0,0,0
2:05.206,45074,),0,0,0
2:05.267,45096,(,0,0,1
2:05.311,45112,N,0,0,0
2:05.389,45140,),0,0,1
2:05.528,45190,(,0,0,2
2:05.675,45243,t,0,0,5
2:05.831,45299,t,0,0,5
2:05.939,45338,),0,0,2
2:06.728,45622,(,0,0,0
2:06.767,45636,p,0,0,0
2:06.817,45654,),0,0,0
2:06.878,45676,(,0,0,1
2:06.917,45690,N,0,0,0
2:07.000,45720,),0,0,1
2:07.150,45774,(,0,0,2
2:07.292,45825,t,0,0,5
2:07.419,45871,t,0,0,5
2:07.561,45922,),0,0,2
2:08.300,46188,(,0,0,0
2:08.342,46203,p,0,0,0
2:08.389,46220,),0,0,0
2:08.442,46239,(,0,0,1
2:08.486,46255,N,0,0,0
2:08.567,46284,),0,0,1
2:08.728,46342,(,0,0,2
2:08.867,46392,t,0,0,5
2:08.992,46437,t,0,0,5
2:09.117,46482,),0,0,2
2:09.867,46752,(,0,0,0
2:09.900,46764,p,0,0,0
2:09.939,46778,),0,0,0
2:10.011,46804,(,0,0,1
2:10.044,46816,N,0,0,0
2:10.117,46842,),0,0,1
2:10.275,46899,(,0,0,2
2:10.400,46944,t,0,0,5
2:10.611,47020,t,0,0,5
2:10.675,47043,),0,0,2
2:11.456,47324,(,0,0,0
2:11.500,47340,p,0,0,0
2:11.553,47359,),0,0,0
2:11.614,47381,(,0,0,1
2:11.658,47397,N,0,0,0
2:11.747,47429,),0,0,1
2:11.894,47482,(,0,0,2
2:12.064,47543,t,0,0,5
2:12.294,47626,t,0,0,5
2:12.364,47651,),0,0,2
2:13.169,47941,(,0,0,0
2:13.211,47956,p,0,0,0
2:13.258,47973,),0,0,0
2:13.314,47993,(,0,0,1
2:13.356,48008,N,0,0,0
2:13.433,48036,),0,0,1
2:13.567,48084,(,0,0,2
2:13.731,48143,t,0,0,5
2:13.958,48225,t,0,0,5
2:14.014,48245,),0,0,2
2:14.794,48526,(,0,0,0
2:14.839,48542,p,0,0,0
2:14.883,48558,),0,0,0
2:14.964,48587,(,0,0,1
2:14.992,48597,N,0,0,0
2:15.075,48627,),0,0,1
2:15.231,48683,(,0,0,2
2:15.386,48739,t,0,0,5
2:15.586,48811,t,0,0,5
2:15.653,48835,),0,0,2
2:16.431,49115,(,0,0,0
2:16.469,49129,p,0,0,0
2:16.519,49147,),0,0,0
2:16.575,49167,(,0,0,1
2:16.617,49182,N,0,0,0
2:16.694,49210,),0,0,1
2:16.861,49270,(,0,0,2
2:16.989,49316,t,0,0,5
2:17.217,49398,t,0,0,5
2:17.272,49418,),0,0,2
2:18.103,49717,(,0,0,0
2:18.136,49729,p,0,0,0
2:18.183,49746,),0,0,0
2:18.250,49770,(,0,0,1
2:18.281,49781,N,0,0,0
2:18.361,49810,),0,0,1
2:18.558,49881,(,0,0,2
2:18.675,49923,t,0,0,5
2:18.900,50004,t,0,0,5
2:18.958,50025,),0,0,2
2:19.725,50301,(,0,0,0
2:19.761,50314,p,0,0,0
2:19.811,50332,),0,0,0
2:19.875,50355,(,0,0,1
2:19.917,50370,N,0,0,0
2:20.006,50402,),0,0,1
2:20.178,50464,(,0,0,2
2:20.303,50509,t,0,0,5
2:20.517,50586,t,0,0,5
2:20.586,50611,),0,0,2
2:21.397,50903,(,0,0,0
2:21.431,50915,p,0,0,0
2:21.478,50932,),0,0,0
2:21.547,50957,(,0,0,1
2:21.581,50969,N,0,0,0
2:21.658,50997,),0,0,1
2:21.800,51048,(,0,0,2
2:21.956,51104,t,0,0,5
2:22.189,51188,t,0,0,5
2:22.247,51209,),0,0,2
2:23.017,51486,(,0,0,0
2:23.064,51503,p,0,0,0
2:23.117,51522,),0,0,0
2:23.172,51542,(,0,0,1
2:23.214,51557,N,0,0,0
2:23.300,51588,),0,0,1
2:23.469,51649,(,0,0,2
2:23.625,51705,t,0,0,5
2:23.817,51774,t,0,0,5
2:23.881,51797,),0,0,2
2:24.658,52077,(,0,0,0
2:24.694,52090,p,0,0,0
2:24.739,52106,),0,0,0
2:24.792,52125,(,0,0,1
2:24.836,52141,N,0,0,0
2:24.922,52172,),0,0,1
2:25.097,52235,(,0,0,2
2:25.228,52282,t,0,0,0
2:25.311,52312,),0,0,2
2:25.903,52525,(,0,0,0
2:25.944,52540,p,0,0,0
2:25.975,52551,),0,0,0
2:26.058,52581,(,0,0,1
2:26.103,52597,N,0,0,0
2:26.186,52627,),0,0,1
2:26.361,52690,(,0,0,2
2:26.494,52738,t,0,0,0
2:26.600,52776,),0,0,2
2:27.008,52923,(,0,0,0
2:27.056,52940,p,0,0,0
2:27.106,52958,),0,0,0
2:27.158,52977,(,0,0,1
2:27.206,52994,N,0,0,0
2:27.286,53023,),0,0,1
2:27.844,53224,(,0,0,2
2:27.889,53240,t,0,0,0
2:27.989,53276,),0,0,2
2:29.194,53710,(,0,0,0
2:29.236,53725,p,0,0,0
2:29.294,53746,),0,0,0
2:29.353,53767,(,0,0,1
2:29.383,53778,N,0,0,0
2:29.464,53807,),0,0,1
2:29.661,53878,(,0,0,2
2:29.781,53921,t,0,0,0
2:29.964,53987,),0,0,2
2:30.103,54037,(,0,0,0
2:30.153,54055,p,0,0,0
2:30.208,54075,),0,0,0
2:30.256,54092,(,0,0,1
2:30.300,54108,N,0,0,0
2:30.375,54135,),0,0,1
2:30.464,54167,(,0,0,2
2:30.681,54245,t,0,0,0
2:30.781,54281,),0,0,2
2:31.003,54361,(,0,0,0
2:31.058,54381,p,0,0,0
2:31.111,54400,),0,0,0
2:31.175,54423,(,0,0,1
2:31.219,54439,N,0,0,0
2:31.303,54469,),0,0,1
2:31.408,54507,(,0,0,2
2:31.589,54572,t,0,0,0
2:31.694,54610,),0,0,2
2:31.933,54696,(,0,0,0
2:31.983,54714,p,0,0,0
2:32.031,54731,),0,0,0
2:32.094,54754,(,0,0,1
2:32.136,54769,N,0,0,0
2:32.222,54800,),0,0,1
2:32.394,54862,(,0,0,2
2:32.531,54911,t,0,0,0
2:32.636,54949,),0,0,2
2:32.833,55020,(,0,0,0
2:32.875,55035,p,0,0,0
2:32.919,55051,),0,0,0
2:32.983,55074,(,0,0,1
2:33.025,55089,N,0,0,0
2:33.100,55116,),0,0,1
2:33.225,55161,(,0,0,2
2:33.400,55224,t,0,0,0
2:33.494,55258,),0,0,2
2:33.767,55356,(,0,0,0
2:33.806,55370,p,0,0,0
2:33.856,55388,),0,0,0
2:33.914,55409,(,0,0,1
2:33.958,55425,N,0,0,0
2:34.039,55454,),0,0,1
2:34.153,55495,(,0,0,2
2:34.342,55563,t,0,0,0
2:34.442,55599,),0,0,2
2:34.753,55711,(,0,0,0
2:34.808,55731,p,0,0,0
2:34.847,55745,),0,0,0
2:34.922,55772,(,0,0,1
2:34.964,55787,N,0,0,0
2:35.047,55817,),0,0,1
2:35.233,55884,(,0,0,2
2:35.336,55921,t,0,0,5
2:35.658,56037,t,0,0,5
2:35.725,56061,),0,0,2
2:36.683,56406,(,0,0,0
2:36.722,56420,p,0,0,0
2:36.772,56438,),0,0,0
2:36.836,56461,(,0,0,1
2:36.881,56477,N,0,0,0
2:36.961,56506,),0,0,1
2:37.072,56546,(,0,0,2
2:37.253,56611,t,0,0,5
2:37.614,56741,t,0,0,5
2:37.733,56784,),0,0,2
2:38.661,57118,(,0,0,0
2:38.703,57133,p,0,0,0
2:38.753,57151,),0,0,0
2:38.819,57175,(,0,0,1
2:38.864,57191,N,0,0,0
2:38.950,57222,),0,0,1
2:39.103,57277,(,0,0,2
2:39.236,57325,t,0,0,0
2:39.333,57360,),0,0,2
2:39.694,57490,(,0,0,0
2:39.742,57507,p,0,0,0
2:39.786,57523,),0,0,0
2:39.861,57550,(,0,0,1
2:39.906,57566,N,0,0,0
2:39.992,57597,),0,0,1
2:40.172,57662,(,0,0,2
2:40.308,57711,t,0,0,5
2:40.678,57844,t,0,0,5
2:40.758,57873,),0,0,2
2:41.639,58190,(,0,0,0
2:41.681,58205,p,0,0,0
2:41.728,58222,),0,0,0
2:41.792,58245,(,0,0,1
2:41.836,58261,N,0,0,0
2:41.917,58290,),0,0,1
2:42.039,58334,(,0,0,2
2:42.206,58394,t,0,0,0
2:42.311,58432,),0,0,2
2:42.600,58536,(,0,0,0
2:42.639,58550,p,0,0,0
2:42.683,58566,),0,0,0
2:42.756,58592,(,0,0,1
2:42.786,58603,N,0,0,0
2:42.864,58631,),0,0,1
2:43.019,58687,(,0,0,2
2:43.178,58744,t,0,0,5
2:43.447,58841,t,0,0,5
2:43.544,58876,),0,0,2
2:44.425,59193,(,0,0,0
2:44.464,59207,p,0,0,0
2:44.514,59225,),0,0,0
2:44.578,59248,(,0,0,1
2:44.622,59264,N,0,0,0
2:44.697,59291,),0,0,1
2:44.803,59329,(,0,0,2
2:44.975,59391,t,0,0,0
2:45.072,59426,),0,0,2
2:45.361,59530,(,0,0,0
2:45.411,59548,p,0,0,0
2:45.458,59565,),0,0,0
2:45.525,59589,(,0,0,1
2:45.569,59605,N,0,0,0
2:45.653,59635,),0,0,1
2:45.792,59685,(,0,0,2
2:45.958,59745,t,0,0,0
2:46.058,59781,),0,0,2
2:46.356,59888,(,0,0,0
2:46.394,59902,p,0,0,0
2:46.439,59918,),0,0,0
2:46.522,59948,(,0,0,1
2:46.550,59958,N,0,0,0
2:46.636,59989,),0,0,1
2:46.836,60061,(,0,0,2
2:46.922,60092,t,0,0,0
2:47.022,60128,),0,0,2
2:47.286,60223,(,0,0,0
2:47.331,60239,p,0,0,0
2:47.375,60255,),0,0,0
2:47.439,60278,(,0,0,1
2:47.481,60293,N,0,0,0
2:47.558,60321,),0,0,1
2:47.669,60361,(,0,0,2
2:47.853,60427,t,0,0,0
2:47.958,60465,),0,0,2
2:48.286,60583,(,0,0,0
2:48.331,60599,p,0,0,0
2:48.378,60616,),0,0,0
2:48.444,60640,(,0,0,1
2:48.489,60656,N,0,0,0
2:48.569,60685,),0,0,1
2:48.697,60731,(,0,0,2
2:48.867,60792,t,0,0,0
2:48.986,60835,),0,0,2
2:49.311,60952,(,0,0,0
2:49.367,60972,p,0,0,0
2:49.414,60989,),0,0,0
2:49.492,61017,(,0,0,1
2:49.519,61027,N,0,0,0
2:49.600,61056,),0,0,1
2:49.775,61119,(,0,0,2
2:49.881,61157,t,0,0,0
2:49.983,61194,),0,0,2
2:50.272,61298,(,0,0,0
2:50.319,61315,p,0,0,0
2:50.367,61332,),0,0,0
2:50.425,61353,(,0,0,1
2:50.469,61369,N,0,0,0
2:50.544,61396,),0,0,1
2:50.678,61444,(,0,0,2
2:50.836,61501,t,0,0,0
2:50.939,61538,),0,0,2
2:51.308,61671,(,0,0,0
2:51.356,61688,p,0,0,0
2:51.403,61705,),0,0,0
2:51.472,61730,(,0,0,1
2:51.517,61746,N,0,0,0
2:51.600,61776,),0,0,1
2:51.736,61825,(,0,0,2
2:51.894,61882,t,0,0,0
2:52.003,61921,),0,0,2
2:52.367,62052,(,0,0,0
2:52.403,62065,p,0,0,0
2:52.453,62083,),0,0,0
2:52.522,62108,(,0,0,1
2:52.550,62118,N,0,0,0
2:52.628,62146,),0,0,1
2:52.811,62212,(,0,0,2
2:52.914,62249,t,0,0,0
2:53.017,62286,),0,0,2
2:53.339,62402,(,0,0,0
2:53.383,62418,p,0,0,0
2:53.433,62436,),0,0,0
2:53.500,62460,(,0,0,1
2:53.544,62476,N,0,0,0
2:53.628,62506,),0,0,1
2:53.750,62550,(,0,0,2
2:53.900,62604,t,0,0,0
2:54.008,62643,),0,0,2
2:54.383,62778,(,0,0,0
2:54.431,62795,p,0,0,0
2:54.478,62812,),0,0,0
2:54.547,62837,(,0,0,1
2:54.589,62852,N,0,0,0
2:54.672,62882,),0,0,1
2:54.797,62927,(,0,0,2
2:54.981,62993,t,0,0,0
2:55.081,63029,),0,0,2
2:55.447,63161,(,0,0,0
2:55.478,63172,p,0,0,0
2:55.522,63188,),0,0,0
2:55.594,63214,(,0,0,1
2:55.633,63228,N,0,0,0
2:55.719,63259,),0,0,1
2:55.903,63325,(,0,0,2
2:55.997,63359,t,0,0,0
2:56.094,63394,),0,0,2
2:56.381,63497,(,0,0,0
2:56.425,63513,p,0,0,0
2:56.472,63530,),0,0,0
2:56.539,63554,(,0,0,1
2:56.586,63571,N,0,0,0
2:56.669,63601,),0,0,1
2:56.800,63648,(,0,0,2
2:56.967,63708,t,0,0,0
2:57.069,63745,),0,0,2
2:57.408,63867,(,0,0,0
2:57.453,63883,p,0,0,0
2:57.503,63901,),0,0,0
2:57.561,63922,(,0,0,1
2:57.606,63938,N,0,0,0
2:57.686,63967,),0,0,1
2:57.825,64017,(,0,0,2
2:57.972,64070,t,0,0,0
2:58.089,64112,),0,0,2
2:58.367,64212,(,0,0,0
2:58.403,64225,p,0,0,0
2:58.450,64242,),0,0,0
2:58.528,64270,(,0,0,1
2:58.556,64280,N,0,0,0
2:58.636,64309,),0,0,1
2:58.761,64354,(,0,0,2
2:58.919,64411,t,0,0,0
2:59.025,64449,),0,0,2
2:59.306,64550,(,0,0,0
2:59.347,64565,p,0,0,0
2:59.392,64581,),0,0,0
2:59.456,64604,(,0,0,1
2:59.497,64619,N,0,0,0
2:59.578,64648,),0,0,1
2:59.711,64696,(,0,0,2
2:59.875,64755,t,0,0,0
2:59.969,64789,),0,0,2
3:00.358,64929,(,0,0,0
3:00.406,64946,p,0,0,0
3:00.453,64963,),0,0,0
3:00.522,64988,(,0,0,1
3:00.561,65002,N,0,0,0
3:00.639,65030,),0,0,1
3:00.750,65070,(,0,0,2
3:00.922,65132,t,0,0,0
3:01.028,65170,),0,0,2
3:01.336,65281,(,0,0,0
3:01.375,65295,p,0,0,0
3:01.422,65312,),0,0,0
3:01.497,65339,(,0,0,1
3:01.528,65350,N,0,0,0
3:01.608,65379,),0,0,1
3:01.756,65432,(,0,0,2
3:01.892,65481,t,0,0,0
3:01.989,65516,),0,0,2
3:02.286,65623,(,0,0,0
3:02.333,65640,p,0,0,0
3:02.381,65657,),0,0,0
3:02.456,65684,(,0,0,1
3:02.500,65700,N,0,0,0
3:02.586,65731,),0,0,1
3:02.708,65775,(,0,0,2
3:02.869,65833,t,0,0,0
3:02.967,65868,),0,0,2
3:03.286,65983,(,0,0,0
3:03.333,66000,p,0,0,0
3:03.383,66018,),0,0,0
3:03.444,66040,(,0,0,1
3:03.486,66055,N,0,0,0
3:03.561,66082,),0,0,1
3:03.672,66122,(,0,0,2
3:03.839,66182,t,0,0,0
3:03.953,66223,),0,0,2
3:04.233,66324,(,0,0,0
3:04.269,66337,p,0,0,0
3:04.322,66356,),0,0,0
3:04.381,66377,(,0,0,1
3:04.422,66392,N,0,0,0
3:04.506,66422,),0,0,1
3:04.653,66475,(,0,0,2
3:04.792,66525,t,0,0,0
3:04.881,66557,),0,0,2
3:05.156,66656,(,0,0,0
3:05.197,66671,p,0,0,0
3:05.247,66689,),0,0,0
3:05.319,66715,(,0,0,1
3:05.361,66730,N,0,0,0
3:05.439,66758,),0,0,1
3:05.550,66798,(,0,0,2
3:05.722,66860,t,0,0,0
3:05.819,66895,),0,0,2
3:06.183,67026,(,0,0,0
3:06.228,67042,p,0,0,0
3:06.275,67059,),0,0,0
3:06.333,67080,(,0,0,1
3:06.378,67096,N,0,0,0
3:06.456,67124,),0,0,1
3:06.592,67173,(,0,0,2
3:06.750,67230,t,0,0,0
3:06.864,67271,),0,0,2
3:07.175,67383,(,0,0,0
3:07.214,67397,p,0,0,0
3:07.264,67415,),0,0,0
3:07.336,67441,(,0,0,1
3:07.367,67452,N,0,0,0
3:07.447,67481,),0,0,1
3:07.575,67527,(,0,0,2
3:07.742,67587,t,0,0,0
3:07.839,67622,),0,0,2
3:08.194,67750,(,0,0,0
3:08.242,67767,p,0,0,0
3:08.294,67786,),0,0,0
3:08.358,67809,(,0,0,1
3:08.397,67823,N,0,0,0
3:08.472,67850,),0,0,1
3:08.600,67896,(,0,0,2
3:08.756,67952,t,0,0,0
3:08.853,67987,),0,0,2
3:09.244,68128,(,0,0,0
3:09.283,68142,p,0,0,0
3:09.328,68158,),0,0,0
3:09.394,68182,(,0,0,1
3:09.439,68198,N,0,0,0
3:09.519,68227,),0,0,1
3:09.647,68273,(,0,0,2
3:09.794,68326,t,0,0,0
3:09.900,68364,),0,0,2
3:10.214,68477,(,0,0,0
3:10.264,68495,p,0,0,0
3:10.308,68511,),0,0,0
3:10.378,68536,(,0,0,1
3:10.408,68547,N,0,0,0
3:10.489,68576,),0,0,1
3:10.589,68612,(,0,0,2
3:10.778,68680,t,0,0,0
3:10.875,68715,),0,0,2
3:11.161,68818,(,0,0,0
3:11.206,68834,p,0,0,0
3:11.253,68851,),0,0,0
3:11.325,68877,(,0,0,1
3:11.367,68892,N,0,0,0
3:11.447,68921,),0,0,1
3:11.581,68969,(,0,0,2
3:11.731,69023,t,0,0,0
3:11.825,69057,),0,0,2
3:12.144,69172,(,0,0,0
3:12.186,69187,p,0,0,0
3:12.233,69204,),0,0,0
3:12.300,69228,(,0,0,1
3:12.342,69243,N,0,0,0
3:12.417,69270,),0,0,1
3:12.544,69316,(,0,0,2
3:12.689,69368,t,0,0,0
3:12.792,69405,),0,0,2
3:13.075,69507,(,0,0,0
3:13.131,69527,p,0,0,0
3:13.178,69544,),0,0,0
3:13.261,69574,(,0,0,1
3:13.289,69584,N,0,0,0
3:13.375,69615,),0,0,1
3:13.553,69679,(,0,0,2
3:13.667,69720,t,0,0,0
3:13.758,69753,),0,0,2
3:14.064,69863,(,0,0,0
3:14.100,69876,p,0,0,0
3:14.147,69893,),0,0,0
3:14.214,69917,(,0,0,1
3:14.258,69933,N,0,0,0
3:14.339,69962,),0,0,1
3:14.469,70009,(,0,0,2
3:14.617,70062,t,0,0,0
3:14.714,70097,),0,0,2
3:15.036,70213,(,0,0,0
3:15.075,70227,p,0,0,0
3:15.125,70245,),0,0,0
3:15.183,70266,(,0,0,1
3:15.225,70281,N,0,0,0
3:15.306,70310,),0,0,1
3:15.408,70347,(,0,0,2
3:15.586,70411,t,0,0,0
3:15.703,70453,),0,0,2
3:16.011,70564,(,0,0,0
3:16.047,70577,p,0,0,0
3:16.094,70594,),0,0,0
3:16.172,70622,(,0,0,1
3:16.203,70633,N,0,0,0
3:16.292,70665,),0,0,1
3:16.408,70707,(,0,0,2
3:16.572,70766,t,0,0,0
3:16.667,70800,),0,0,2
3:16.975,70911,(,0,0,0
3:17.014,70925,p,0,0,0
3:17.064,70943,),0,0,0
3:17.133,70968,(,0,0,1
3:17.175,70983,N,0,0,0
3:17.253,71011,),0,0,1
3:17.389,71060,(,0,0,2
3:17.528,71110,t,0,0,0
3:17.622,71144,),0,0,2
3:17.953,71263,(,0,0,0
3:17.997,71279,p,0,0,0
3:18.044,71296,),0,0,0
3:18.106,71318,(,0,0,1
3:18.147,71333,N,0,0,0
3:18.222,71360,),0,0,1
3:18.339,71402,(,0,0,2
3:18.506,71462,t,0,0,0
3:18.617,71502,),0,0,2
3:18.944,71620,(,0,0,0
3:18.989,71636,p,0,0,0
3:19.036,71653,),0,0,0
3:19.108,71679,(,0,0,1
3:19.147,71693,N,0,0,0
3:19.236,71725,),0,0,1
3:19.344,71764,(,0,0,2
3:19.511,71824,t,0,0,0
3:19.603,71857,),0,0,2
3:19.892,71961,(,0,0,0
3:19.939,71978,p,0,0,0
3:19.989,71996,),0,0,0
3:20.069,72025,(,0,0,1
3:20.094,72034,N,0,0,0
3:20.172,72062,),0,0,1
3:20.286,72103,(,0,0,2
3:20.433,72156,t,0,0,0
3:20.531,72191,),0,0,2
3:20.861,72310,(,0,0,0
3:20.914,72329,p,0,0,0
3:20.967,72348,),0,0,0
3:21.028,72370,(,0,0,1
3:21.069,72385,N,0,0,0
3:21.150,72414,),0,0,1
3:21.275,72459,(,0,0,2
3:21.433,72516,t,0,0,0
3:21.531,72551,),0,0,2
3:21.856,72668,(,0,0,0
3:21.908,72687,p,0,0,0
3:21.958,72705,),0,0,0
3:22.033,72732,(,0,0,1
3:22.064,72743,N,0,0,0
3:22.144,72772,),0,0,1
3:22.319,72835,(,0,0,2
3:22.436,72877,t,0,0,0
3:22.525,72909,),0,0,2
3:22.811,73012,(,0,0,0
3:22.850,73026,p,0,0,0
3:22.894,73042,),0,0,0
3:22.961,73066,(,0,0,1
3:23.003,73081,N,0,0,0
3:23.083,73110,),0,0,1
3:23.192,73149,(,0,0,2
3:23.356,73208,t,0,0,0
3:23.444,73240,),0,0,2
3:23.783,73362,(,0,0,0
3:23.825,73377,p,0,0,0
3:23.872,73394,),0,0,0
3:23.950,73422,(,0,0,1
3:23.978,73432,N,0,0,0
3:24.061,73462,),0,0,1
3:24.181,73505,(,0,0,2
3:24.342,73563,t,0,0,0
3:24.456,73604,),0,0,2
3:24.786,73723,(,0,0,0
3:24.819,73735,p,0,0,0
3:24.869,73753,),0,0,0
3:24.944,73780,(,0,0,1
3:25.022,73808,N,0,0,0
3:25.067,73824,),0,0,1
3:25.125,73845,(,0,0,2
3:25.333,73920,t,0,0,0
3:25.436,73957,),0,0,2
3:25.708,74055,(,0,0,0
3:25.747,74069,p,0,0,0
3:25.794,74086,),0,0,0
3:25.831,74099,(,0,0,1
3:25.939,74138,N,0,0,0
3:25.978,74152,),0,0,1
3:26.072,74186,(,0,0,2
3:26.244,74248,t,0,0,0
3:26.342,74283,),0,0,2
3:26.700,74412,(,0,0,0
3:26.750,74430,p,0,0,0
3:26.800,74448,),0,0,0
3:26.867,74472,(,0,0,1
3:26.953,74503,N,0,0,0
3:26.989,74516,),0,0,1
3:27.081,74549,(,0,0,2
3:27.253,74611,t,0,0,0
3:27.375,74655,),0,0,2
3:27.672,74762,(,0,0,0
3:27.719,74779,p,0,0,0
3:27.767,74796,),0,0,0
3:27.825,74817,(,0,0,1
3:27.928,74854,N,0,0,0
3:27.972,74870,),0,0,1
3:28.056,74900,(,0,0,2
3:28.250,74970,t,0,0,0
3:28.356,75008,),0,0,2
3:28.622,75104,(,0,0,0
3:28.664,75119,p,0,0,0
3:28.717,75138,),0,0,0
3:28.789,75164,(,0,0,1
3:28.867,75192,N,0,0,0
3:28.908,75207,),0,0,1
3:28.997,75239,(,0,0,2
3:29.172,75302,t,0,0,0
3:29.267,75336,),0,0,2
3:29.600,75456,(,0,0,0
3:29.650,75474,p,0,0,0
3:29.706,75494,),0,0,0
3:29.772,75518,(,0,0,1
3:29.856,75548,N,0,0,0
3:29.894,75562,),0,0,1
3:29.986,75595,(,0,0,2
3:30.178,75664,t,0,0,0
3:30.292,75705,),0,0,2
3:30.622,75824,(,0,0,0
3:30.675,75843,p,0,0,0
3:30.717,75858,),0,0,0
3:30.792,75885,(,0,0,1
3:30.825,75897,N,0,0,0
3:30.908,75927,),0,0,1
3:31.078,75988,(,0,0,2
3:31.192,76029,t,0,0,0
3:31.292,76065,),0,0,2
3:31.553,76159,(,0,0,0
3:31.594,76174,p,0,0,0
3:31.639,76190,),0,0,0
3:31.708,76215,(,0,0,1
3:31.753,76231,N,0,0,0
3:31.836,76261,),0,0,1
3:31.947,76301,(,0,0,2
3:32.094,76354,t,0,0,0
3:32.192,76389,),0,0,2
3:32.558,76521,(,0,0,0
3:32.603,76537,p,0,0,0
3:32.647,76553,),0,0,0
3:32.708,76575,(,0,0,1
3:32.753,76591,N,0,0,0
3:32.828,76618,),0,0,1
3:32.964,76667,(,0,0,2
3:33.114,76721,t,0,0,0
3:33.214,76757,),0,0,2
3:33.553,76879,(,0,0,0
3:33.603,76897,p,0,0,0
3:33.650,76914,),0,0,0
3:33.725,76941,(,0,0,1
3:33.758,76953,N,0,0,0
3:33.842,76983,),0,0,1
3:33.983,77034,(,0,0,2
3:34.111,77080,t,0,0,0
3:34.206,77114,),0,0,2
3:34.503,77221,(,0,0,0
3:34.547,77237,p,0,0,0
3:34.594,77254,),0,0,0
3:34.658,77277,(,0,0,1
3:34.700,77292,N,0,0,0
3:34.781,77321,),0,0,1
3:34.864,77351,(,0,0,2
3:35.042,77415,t,0,0,0
3:35.136,77449,),0,0,2
3:35.489,77576,(,0,0,0
3:35.539,77594,p,0,0,0
3:35.589,77612,),0,0,0
3:35.653,77635,(,0,0,1
3:35.697,77651,N,0,0,0
3:35.781,77681,),0,0,1
3:35.919,77731,(,0,0,2
3:36.075,77787,t,0,0,0
3:36.183,77826,),0,0,2
3:36.492,77937,(,0,0,0
3:36.533,77952,p,0,0,0
3:36.581,77969,),0,0,0
3:36.650,77994,(,0,0,1
3:36.692,78009,N,0,0,0
3:36.778,78040,),0,0,1
3:36.894,78082,(,0,0,2
3:37.036,78133,t,0,0,0
3:37.128,78166,),0,0,2
3:37.406,78266,(,0,0,0
3:37.447,78281,p,0,0,0
3:37.492,78297,),0,0,0
3:37.556,78320,(,0,0,1
3:37.597,78335,N,0,0,0
3:37.675,78363,),0,0,1
3:37.772,78398,(,0,0,2
3:37.953,78463,t,0,0,0
3:38.053,78499,),0,0,2
3:38.356,78608,(,0,0,0
3:38.394,78622,p,0,0,0
3:38.442,78639,),0,0,0
3:38.508,78663,(,0,0,1
3:38.550,78678,N,0,0,0
3:38.636,78709,),0,0,1
3:38.758,78753,(,0,0,2
3:38.917,78810,t,0,0,0
3:39.028,78850,),0,0,2
3:39.322,78956,(,0,0,0
3:39.358,78969,p,0,0,0
3:39.411,78988,),0,0,0
3:39.489,79016,(,0,0,1
3:39.519,79027,N,0,0,0
3:39.600,79056,),0,0,1
3:39.694,79090,(,0,0,2
3:39.869,79153,t,0,0,0
3:39.958,79185,),0,0,2
3:40.203,79273,(,0,0,0
3:40.244,79288,p,0,0,0
3:40.292,79305,),0,0,0
3:40.356,79328,(,0,0,1
3:40.397,79343,N,0,0,0
3:40.478,79372,),0,0,1
3:40.575,79407,(,0,0,2
3:40.739,79466,t,0,0,0
3:40.833,79500,),0,0,2
3:41.139,79610,(,0,0,0
3:41.181,79625,p,0,0,0
3:41.231,79643,),0,0,0
3:41.300,79668,(,0,0,1
3:41.344,79684,N,0,0,0
3:41.428,79714,),0,0,1
3:41.558,79761,(,0,0,2
3:41.711,79816,t,0,0,0
3:41.819,79855,),0,0,2
3:42.106,79958,(,0,0,0
3:42.147,79973,p,0,0,0
3:42.194,79990,),0,0,0
3:42.275,80019,(,0,0,1
3:42.308,80031,N,0,0,0
3:42.389,80060,),0,0,1
3:42.544,80116,(,0,0,2
3:42.647,80153,t,0,0,0
3:42.747,80189,),0,0,2
3:42.981,80273,(,0,0,0
3:43.019,80287,p,0,0,0
3:43.067,80304,),0,0,0
3:43.142,80331,(,0,0,1
3:43.169,80341,N,0,0,0
3:43.247,80369,),0,0,1
3:43.364,80411,(,0,0,2
3:43.517,80466,t,0,0,0
3:43.614,80501,),0,0,2
3:43.878,80596,(,0,0,0
3:43.922,80612,p,0,0,0
3:43.969,80629,),0,0,0
3:44.039,80654,(,0,0,1
3:44.081,80669,N,0,0,0
3:44.161,80698,),0,0,1
3:44.281,80741,(,0,0,2
3:44.436,80797,t,0,0,0
3:44.547,80837,),0,0,2
3:44.861,80950,(,0,0,0
3:44.908,80967,p,0,0,0
3:44.958,80985,),0,0,0
3:45.025,81009,(,0,0,1
3:45.067,81024,N,0,0,0
3:45.147,81053,),0,0,1
3:45.242,81087,(,0,0,2
3:45.408,81147,t,0,0,0
3:45.514,81185,),0,0,2
3:45.756,81272,(,0,0,0
3:45.803,81289,p,0,0,0
3:45.844,81304,),0,0,0
3:45.922,81332,(,0,0,1
3:46.000,81360,N,0,0,0
3:46.036,81373,),0,0,1
3:46.128,81406,(,0,0,2
3:46.292,81465,t,0,0,0
3:46.386,81499,),0,0,2
3:46.667,81600,(,0,0,0
3:46.708,81615,p,0,0,0
3:46.758,81633,),0,0,0
3:46.825,81657,(,0,0,1
3:46.872,81674,N,0,0,0
3:46.956,81704,),0,0,1
3:47.064,81743,(,0,0,2
3:47.239,81806,t,0,0,0
3:47.344,81844,),0,0,2
3:47.675,81963,(,0,0,0
3:47.717,81978,p,0,0,0
3:47.761,81994,),0,0,0
3:47.828,82018,(,0,0,1
3:47.875,82035,N,0,0,0
3:47.956,82064,),0,0,1
3:48.086,82111,(,0,0,2
3:48.222,82160,t,0,0,0
3:48.325,82197,),0,0,2
3:48.622,82304,(,0,0,0
3:48.658,82317,p,0,0,0
3:48.700,82332,),0,0,0
3:48.775,82359,(,0,0,1
3:48.850,82386,N,0,0,0
3:48.886,82399,),0,0,1
3:48.994,82438,(,0,0,2
3:49.169,82501,t,0,0,0
3:49.269,82537,),0,0,2
3:49.492,82617,(,0,0,0
3:49.531,82631,p,0,0,0
3:49.575,82647,),0,0,0
3:49.650,82674,(,0,0,1
3:49.739,82706,N,0,0,0
3:49.772,82718,),0,0,1
3:49.900,82764,(,0,0,2
3:50.044,82816,t,0,0,0
3:50.142,82851,),0,0,2
3:50.472,82970,(,0,0,0
3:50.511,82984,p,0,0,0
3:50.558,83001,),0,0,0
3:50.633,83028,(,0,0,1
3:50.678,83044,N,0,0,0
3:50.758,83073,),0,0,1
3:50.881,83117,(,0,0,2
3:51.025,83169,t,0,0,0
3:51.131,83207,),0,0,2
3:51.414,83309,(,0,0,0
3:51.447,83321,p,0,0,0
3:51.494,83338,),0,0,0
3:51.567,83364,(,0,0,1
3:51.642,83391,N,0,0,0
3:51.678,83404,),0,0,1
3:51.808,83451,(,0,0,2
3:51.942,83499,t,0,0,0
3:52.042,83535,),0,0,2
3:52.278,83620,(,0,0,0
3:52.317,83634,p,0,0,0
3:52.367,83652,),0,0,0
3:52.431,83675,(,0,0,1
3:52.522,83708,N,0,0,0
3:52.558,83721,),0,0,1
3:52.658,83757,(,0,0,2
3:52.842,83823,t,0,0,0
3:52.936,83857,),0,0,2
3:53.242,83967,(,0,0,0
3:53.286,83983,p,0,0,0
3:53.333,84000,),0,0,0
3:53.397,84023,(,0,0,1
3:53.492,84057,N,0,0,0
3:53.525,84069,),0,0,1
3:53.636,84109,(,0,0,2
3:53.789,84164,t,0,0,0
3:53.892,84201,),0,0,2
3:54.175,84303,(,0,0,0
3:54.225,84321,p,0,0,0
3:54.275,84339,),0,0,0
3:54.347,84365,(,0,0,1
3:54.417,84390,N,0,0,0
3:54.453,84403,),0,0,1
3:54.594,84454,(,0,0,2
3:54.733,84504,t,0,0,0
3:54.833,84540,),0,0,2
3:55.039,84614,(,0,0,0
3:55.081,84629,p,0,0,0
3:55.125,84645,),0,0,0
3:55.189,84668,(,0,0,1
3:55.281,84701,N,0,0,0
3:55.319,84715,),0,0,1
3:55.422,84752,(,0,0,2
3:55.589,84812,t,0,0,0
3:55.683,84846,),0,0,2
3:56.006,84962,(,0,0,0
3:56.047,84977,p,0,0,0
3:56.094,84994,),0,0,0
3:56.161,85018,(,0,0,1
3:56.256,85052,N,0,0,0
3:56.292,85065,),0,0,1
3:56.403,85105,(,0,0,2
3:56.547,85157,t,0,0,0
3:56.658,85197,),0,0,2
3:56.939,85298,(,0,0,0
3:56.981,85313,p,0,0,0
3:57.022,85328,),0,0,0
3:57.086,85351,(,0,0,1
3:57.172,85382,N,0,0,0
3:57.206,85394,),0,0,1
3:57.308,85431,(,0,0,2
3:57.467,85488,t,0,0,0
3:57.567,85524,),0,0,2
3:57.786,85603,(,0,0,0
3:57.828,85618,p,0,0,0
3:57.878,85636,),0,0,0
3:57.950,85662,(,0,0,1
3:58.039,85694,N,0,0,0
3:58.075,85707,),0,0,1
3:58.197,85751,(,0,0,2
3:58.353,85807,t,0,0,0
3:58.450,85842,),0,0,2
3:58.711,85936,(,0,0,0
3:58.753,85951,p,0,0,0
3:58.800,85968,),0,0,0
3:58.864,85991,(,0,0,1
3:58.958,86025,N,0,0,0
3:58.992,86037,),0,0,1
3:59.100,86076,(,0,0,2
3:59.250,86130,t,0,0,0
3:59.358,86169,),0,0,2
3:59.628,86266,(,0,0,0
3:59.667,86280,p,0,0,0
3:59.714,86297,),0,0,0
3:59.789,86324,(,0,0,1
3:59.867,86352,N,0,0,0
3:59.900,86364,),0,0,1
4:00.006,86402,(,0,0,2
4:00.158,86457,t,0,0,0
4:00.281,86501,),0,0,2
4:00.494,86578,(,0,0,0
4:00.528,86590,p,0,0,0
4:00.575,86607,),0,0,0
4:00.647,86633,(,0,0,1
4:00.719,86659,N,0,0,0
4:00.756,86672,),0,0,1
4:00.847,86705,(,0,0,2
4:01.025,86769,t,0,0,0
4:01.122,86804,),0,0,2
4:01.400,86904,(,0,0,0
4:01.439,86918,p,0,0,0
4:01.486,86935,),0,0,0
4:01.556,86960,(,0,0,1
4:01.647,86993,N,0,0,0
4:01.683,87006,),0,0,1
4:01.808,87051,(,0,0,2
4:01.947,87101,t,0,0,0
4:02.058,87141,),0,0,2
4:02.367,87252,(,0,0,0
4:02.406,87266,p,0,0,0
4:02.456,87284,),0,0,0
4:02.519,87307,(,0,0,1
4:02.608,87339,N,0,0,0
4:02.642,87351,),0,0,1
4:02.769,87397,(,0,0,2
4:02.900,87444,t,0,0,0
4:03.014,87485,),0,0,2
4:03.269,87577,(,0,0,0
4:03.303,87589,p,0,0,0
4:03.356,87608,),0,0,0
4:03.422,87632,(,0,0,1
4:03.517,87666,N,0,0,0
4:03.556,87680,),0,0,1
4:03.661,87718,(,0,0,2
4:03.831,87779,t,0,0,0
4:03.931,87815,),0,0,2
4:04.219,87919,(,0,0,0
4:04.258,87933,p,0,0,0
4:04.306,87950,),0,0,0
4:04.369,87973,(,0,0,1
4:04.461,88006,N,0,0,0
4:04.494,88018,),0,0,1
4:04.631,88067,(,0,0,2
4:04.761,88114,t,0,0,0
4:04.869,88153,),0,0,2
4:05.258,88293,(,0,0,0
4:05.297,88307,p,0,0,0
4:05.344,88324,),0,0,0
4:05.408,88347,(,0,0,1
4:05.494,88378,N,0,0,0
4:05.528,88390,),0,0,1
4:05.636,88429,(,0,0,2
4:05.797,88487,t,0,0,0
4:05.919,88531,),0,0,2
4:06.231,88643,(,0,0,0
4:06.269,88657,p,0,0,0
4:06.314,88673,),0,0,0
4:06.386,88699,(,0,0,1
4:06.475,88731,N,0,0,0
4:06.517,88746,),0,0,1
4:06.606,88778,(,0,0,2
4:06.789,88844,t,0,0,0
4:06.881,88877,),0,0,2
4:07.156,88976,(,0,0,0
4:07.203,88993,p,0,0,0
4:07.256,89012,),0,0,0
4:07.325,89037,(,0,0,1
4:07.417,89070,N,0,0,0
4:07.450,89082,),0,0,1
4:07.547,89117,(,0,0,2
4:07.706,89174,t,0,0,0
4:07.808,89211,),0,0,2
4:08.169,89341,(,0,0,0
4:08.211,89356,p,0,0,0
4:08.253,89371,),0,0,0
4:08.319,89395,(,0,0,1
4:08.403,89425,N,0,0,0
4:08.433,89436,),0,0,1
4:08.533,89472,(,0,0,2
4:08.700,89532,t,0,0,0
4:08.811,89572,),0,0,2
4:09.106,89678,(,0,0,0
4:09.142,89691,p,0,0,0
4:09.192,89709,),0,0,0
4:09.264,89735,(,0,0,1
4:09.358,89769,N,0,0,0
4:09.397,89783,),0,0,1
4:09.542,89835,(,0,0,2
4:09.669,89881,t,0,0,0
4:09.767,89916,),0,0,2
4:10.028,90010,(,0,0,0
4:10.067,90024,p,0,0,0
4:10.114,90041,),0,0,0
4:10.183,90066,(,0,0,1
4:10.272,90098,N,0,0,0
4:10.306,90110,),0,0,1
4:10.408,90147,(,0,0,2
4:10.553,90199,t,0,0,0
4:10.647,90233,),0,0,2
4:10.981,90353,(,0,0,0
4:11.028,90370,p,0,0,0
4:11.075,90387,),0,0,0
4:11.136,90409,(,0,0,1
4:11.228,90442,N,0,0,0
4:11.261,90454,),0,0,1
4:11.372,90494,(,0,0,2
4:11.533,90552,t,0,0,0
4:11.647,90593,),0,0,2
4:11.900,90684,(,0,0,0
4:11.936,90697,p,0,0,0
4:11.989,90716,),0,0,0
4:12.058,90741,(,0,0,1
4:12.153,90775,N,0,0,0
4:12.192,90789,),0,0,1
4:12.300,90828,(,0,0,2
4:12.458,90885,t,0,0,0
4:12.556,90920,),0,0,2
4:12.806,91010,(,0,0,0
4:12.842,91023,p,0,0,0
4:12.889,91040,),0,0,0
4:12.961,91066,(,0,0,1
4:13.047,91097,N,0,0,0
4:13.081,91109,),0,0,1
4:13.169,91141,(,0,0,2
4:13.333,91200,t,0,0,0
4:13.436,91237,),0,0,2
4:13.767,91356,(,0,0,0
4:13.803,91369,p,0,0,0
4:13.850,91386,),0,0,0
4:13.906,91406,(,0,0,1
4:13.994,91438,N,0,0,0
4:14.028,91450,),0,0,1
4:14.131,91487,(,0,0,2
4:14.292,91545,t,0,0,0
4:14.400,91584,),0,0,2
4:14.744,91708,(,0,0,0
4:14.792,91725,p,0,0,0
4:14.844,91744,),0,0,0
4:14.914,91769,(,0,0,1
4:15.008,91803,N,0,0,0
4:15.044,91816,),0,0,1
4:15.172,91862,(,0,0,2
4:15.314,91913,t,0,0,0
4:15.411,91948,),0,0,2
4:15.669,92041,(,0,0,0
4:15.708,92055,p,0,0,0
4:15.753,92071,),0,0,0
4:15.825,92097,(,0,0,1
4:15.911,92128,N,0,0,0
4:15.944,92140,),0,0,1
4:16.047,92177,(,0,0,2
4:16.186,92227,t,0,0,0
4:16.286,92263,),0,0,2
4:16.622,92384,(,0,0,0
4:16.667,92400,p,0,0,0
4:16.714,92417,),0,0,0
4:16.772,92438,(,0,0,1
4:16.869,92473,N,0,0,0
4:16.903,92485,),0,0,1
4:17.017,92526,(,0,0,2
4:17.175,92583,t,0,0,0
4:17.278,92620,),0,0,2
4:17.608,92739,(,0,0,0
4:17.661,92758,p,0,0,0
4:17.714,92777,),0,0,0
4:17.786,92803,(,0,0,1
4:17.867,92832,N,0,0,0
4:17.903,92845,),0,0,1
4:18.028,92890,(,0,0,2
4:18.164,92939,t,0,0,0
4:18.267,92976,),0,0,2
4:18.603,93097,(,0,0,0
4:18.642,93111,p,0,0,0
4:18.689,93128,),0,0,0
4:18.764,93155,(,0,0,1
4:18.842,93183,N,0,0,0
4:18.872,93194,),0,0,1
4:18.975,93231,(,0,0,2
4:19.142,93291,t,0,0,0
4:19.236,93325,),0,0,2
4:19.542,93435,(,0,0,0
4:19.586,93451,p,0,0,0
4:19.633,93468,),0,0,0
4:19.694,93490,(,0,0,1
4:19.786,93523,N,0,0,0
4:19.822,93536,),0,0,1
4:19.944,93580,(,0,0,2
4:20.092,93633,t,0,0,0
4:20.208,93675,),0,0,2
4:20.544,93796,(,0,0,0
4:20.583,93810,p,0,0,0
4:20.631,93827,),0,0,0
4:20.697,93851,(,0,0,1
4:20.786,93883,N,0,0,0
4:20.817,93894,),0,0,1
4:20.950,93942,(,0,0,2
4:21.072,93986,t,0,0,0
4:21.181,94025,),0,0,2
4:21.444,94120,(,0,0,0
4:21.500,94140,p,0,0,0
4:21.542,94155,),0,0,0
4:21.611,94180,(,0,0,1
4:21.686,94207,N,0,0,0
4:21.722,94220,),0,0,1
4:21.814,94253,(,0,0,2
4:21.986,94315,t,0,0,5
4:22.103,94357,t,0,0,5
4:22.125,94365,),0,0,2
4:22.358,94449,(,0,0,0
4:22.394,94462,p,0,0,0
4:22.444,94480,),0,0,0
4:22.511,94504,(,0,0,1
4:22.606,94538,N,0,0,0
4:22.636,94549,),0,0,1
4:22.750,94590,(,0,0,2
4:22.883,94638,t,0,0,0
4:22.994,94678,),0,0,2
4:23.322,94796,(,0,0,0
4:23.361,94810,p,0,0,0
4:23.411,94828,),0,0,0
4:23.472,94850,(,0,0,1
4:23.564,94883,N,0,0,0
4:23.597,94895,),0,0,1
4:23.706,94934,(,0,0,2
4:23.869,94993,t,0,0,0
4:23.986,95035,),0,0,2
4:24.267,95136,(,0,0,0
4:24.306,95150,p,0,0,0
4:24.353,95167,),0,0,0
4:24.431,95195,(,0,0,1
4:24.511,95224,N,0,0,0
4:24.544,95236,),0,0,1
4:24.636,95269,(,0,0,2
4:24.806,95330,t,0,0,0
4:24.900,95364,),0,0,2
4:25.153,95455,(,0,0,0
4:25.192,95469,p,0,0,0
4:25.242,95487,),0,0,0
4:25.306,95510,(,0,0,1
4:25.397,95543,N,0,0,0
4:25.431,95555,),0,0,1
4:25.542,95595,(,0,0,2
4:25.692,95649,t,0,0,0
4:25.808,95691,),0,0,2
4:26.144,95812,(,0,0,0
4:26.189,95828,p,0,0,0
4:26.242,95847,),0,0,0
4:26.303,95869,(,0,0,1
4:26.392,95901,N,0,0,0
4:26.425,95913,),0,0,1
4:26.569,95965,(,0,0,2
4:26.697,96011,t,0,0,0
4:26.803,96049,),0,0,2
4:27.053,96139,(,0,0,0
4:27.094,96154,p,0,0,0
4:27.139,96170,),0,0,0
4:27.200,96192,(,0,0,1
4:27.286,96223,N,0,0,0
4:27.328,96238,),0,0,1
4:27.447,96281,(,0,0,2
4:27.589,96332,t,0,0,0
4:27.678,96364,),0,0,2
4:27.958,96465,(,0,0,0
4:28.003,96481,p,0,0,0
4:28.053,96499,),0,0,0
4:28.122,96524,(,0,0,1
4:28.208,96555,N,0,0,0
4:28.239,96566,),0,0,1
4:28.353,96607,(,0,0,2
4:28.494,96658,t,0,0,0
4:28.594,96694,),0,0,2
4:28.917,96810,(,0,0,0
4:28.964,96827,p,0,0,0
4:29.011,96844,),0,0,0
4:29.075,96867,(,0,0,1
4:29.172,96902,N,0,0,0
4:29.206,96914,),0,0,1
4:29.350,96966,(,0,0,2
4:29.486,97015,t,0,0,0
4:29.594,97054,),0,0,2
4:29.900,97164,(,0,0,0
4:29.933,97176,p,0,0,0
4:29.975,97191,),0,0,0
4:30.044,97216,(,0,0,1
4:30.136,97249,N,0,0,0
4:30.172,97262,),0,0,1
4:30.306,97310,(,0,0,2
4:30.431,97355,t,0,0,0
4:30.525,97389,),0,0,2
4:30.783,97482,(,0,0,0
4:30.831,97499,p,0,0,0
4:30.878,97516,),0,0,0
4:30.942,97539,(,0,0,1
4:31.036,97573,N,0,0,0
4:31.069,97585,),0,0,1
4:31.178,97624,(,0,0,2
4:31.342,97683,t,0,0,0
4:31.444,97720,),0,0,2
4:31.789,97844,(,0,0,0
4:31.833,97860,p,0,0,0
4:31.881,97877,),0,0,0
4:31.944,97900,(,0,0,1
4:32.033,97932,N,0,0,0
4:32.067,97944,),0,0,1
4:32.175,97983,(,0,0,2
4:32.339,98042,t,0,0,0
4:32.453,98083,),0,0,2
4:32.750,98190,(,0,0,0
4:32.789,98204,p,0,0,0
4:32.833,98220,),0,0,0
4:32.900,98244,(,0,0,1
4:32.992,98277,N,0,0,0
4:33.028,98290,),0,0,1
4:33.119,98323,(,0,0,2
4:33.281,98381,t,0,0,0
4:33.383,98418,),0,0,2
4:33.636,98509,(,0,0,0
4:33.675,98523,p,0,0,0
4:33.725,98541,),0,0,0
4:33.797,98567,(,0,0,1
4:33.869,98593,N,0,0,0
4:33.903,98605,),0,0,1
4:33.989,98636,(,0,0,2
4:34.164,98699,t,0,0,0
4:34.261,98734,),0,0,2
4:34.578,98848,(,0,0,0
4:34.619,98863,p,0,0,0
4:34.672,98882,),0,0,0
4:34.736,98905,(,0,0,1
4:34.828,98938,N,0,0,0
4:34.864,98951,),0,0,1
4:34.978,98992,(,0,0,2
4:35.133,99048,t,0,0,0
4:35.233,99084,),0,0,2
4:36.458,99525,(,0,0,0
4:36.500,99540,p,0,0,0
4:36.550,99558,),0,0,0
4:36.614,99581,(,0,0,1
4:36.656,99596,N,0,0,0
4:36.683,99606,),0,0,1
4:36.703,99613,(,0,0,2
4:37.017,99726,t,0,0,0
4:37.114,99761,),0,0,2
4:37.394,99862,(,0,0,0
4:37.433,99876,p,0,0,0
4:37.481,99893,),0,0,0
4:37.539,99914,(,0,0,1
4:37.581,99929,N,0,0,0
4:37.611,99940,),0,0,1
4:37.781,100001,(,0,0,2
4:37.928,100054,t,0,0,0
4:38.031,100091,),0,0,2
4:38.378,100216,(,0,0,0
4:38.411,100228,p,0,0,0
4:38.456,100244,),0,0,0
4:38.525,100269,(,0,0,1
4:38.567,100284,N,0,0,0
4:38.597,100295,),0,0,1
4:38.783,100362,(,0,0,2
4:38.911,100408,t,0,0,0
4:39.025,100449,),0,0,2
4:39.261,100534,(,0,0,0
4:39.303,100549,p,0,0,0
4:39.353,100567,),0,0,0
4:39.414,100589,(,0,0,1
4:39.450,100602,N,0,0,0
4:39.478,100612,),0,0,1
4:39.639,100670,(,0,0,2
4:39.806,100730,t,0,0,0
4:39.900,100764,),0,0,2
4:40.192,100869,(,0,0,0
4:40.236,100885,p,0,0,0
4:40.283,100902,),0,0,0
4:40.353,100927,(,0,0,1
4:40.397,100943,N,0,0,0
4:40.428,100954,),0,0,1
4:40.617,101022,(,0,0,2
4:40.742,101067,t,0,0,0
4:40.842,101103,),0,0,2
4:40.936,101137,(,0,0,0
4:40.956,101144,p,0,0,0
4:40.989,101156,),0,0,0
4:41.122,101204,(,0,0,1
4:41.256,101252,N,0,0,0
4:41.311,101272,),0,0,1
4:41.339,101282,(,0,0,2
4:41.383,101298,t,0,0,1
4:41.439,101318,),0,0,2
4:42.008,101523,(,0,0,0
4:42.047,101537,p,0,0,0
4:42.097,101555,),0,0,0
4:42.164,101579,(,0,0,1
4:42.208,101595,N,0,0,0
4:42.236,101605,),0,0,1
4:42.408,101667,(,0,0,2
4:42.558,101721,t,0,0,0
4:42.667,101760,),0,0,2
4:43.014,101885,(,0,0,0
4:43.056,101900,p,0,0,0
4:43.103,101917,),0,0,0
4:43.167,101940,(,0,0,1
4:43.208,101955,N,0,0,0
4:43.236,101965,),0,0,1
4:43.419,102031,(,0,0,2
4:43.564,102083,t,0,0,0
4:43.661,102118,),0,0,2
4:43.989,102236,(,0,0,0
4:44.028,102250,p,0,0,0
4:44.075,102267,),0,0,0
4:44.142,102291,(,0,0,1
4:44.183,102306,N,0,0,0
4:44.222,102320,),0,0,1
4:44.386,102379,(,0,0,2
4:44.528,102430,t,0,0,0
4:44.631,102467,),0,0,2
4:44.889,102560,(,0,0,0
4:44.931,102575,p,0,0,0
4:44.975,102591,),0,0,0
4:45.039,102614,(,0,0,1
4:45.081,102629,N,0,0,0
4:45.117,102642,),0,0,1
4:45.292,102705,(,0,0,2
4:45.431,102755,t,0,0,0
4:45.531,102791,),0,0,2
4:45.858,102909,(,0,0,0
4:45.903,102925,p,0,0,0
4:45.956,102944,),0,0,0
4:46.022,102968,(,0,0,1
4:46.064,102983,N,0,0,0
4:46.094,102994,),0,0,1
4:46.256,103052,(,0,0,2
4:46.403,103105,t,0,0,0
4:46.514,103145,),0,0,2
4:46.822,103256,(,0,0,0
4:46.867,103272,p,0,0,0
4:46.911,103288,),0,0,0
4:46.975,103311,(,0,0,1
4:47.017,103326,N,0,0,0
4:47.047,103337,),0,0,1
4:47.189,103388,(,0,0,2
4:47.344,103444,t,0,0,0
4:47.447,103481,),0,0,2
4:47.708,103575,(,0,0,0
4:47.747,103589,p,0,0,0
4:47.794,103606,),0,0,0
4:47.867,103632,(,0,0,1
4:47.911,103648,N,0,0,0
4:47.939,103658,),0,0,1
4:48.117,103722,(,0,0,2
4:48.272,103778,t,0,0,0
4:48.369,103813,),0,0,2
4:48.681,103925,(,0,0,0
4:48.719,103939,p,0,0,0
4:48.767,103956,),0,0,0
4:48.836,103981,(,0,0,1
4:48.878,103996,N,0,0,0
4:48.906,104006,),0,0,1
4:49.072,104066,(,0,0,2
4:49.228,104122,t,0,0,0
4:49.331,104159,),0,0,2
4:49.608,104259,(,0,0,0
4:49.650,104274,p,0,0,0
4:49.697,104291,),0,0,0
4:49.764,104315,(,0,0,1
4:49.803,104329,N,0,0,0
4:49.831,104339,),0,0,1
4:49.992,104397,(,0,0,2
4:50.139,104450,t,0,0,0
4:50.247,104489,),0,0,2
4:50.494,104578,(,0,0,0
4:50.539,104594,p,0,0,0
4:50.586,104611,),0,0,0
4:50.650,104634,(,0,0,1
4:50.692,104649,N,0,0,0
4:50.722,104660,),0,0,1
4:50.892,104721,(,0,0,2
4:51.047,104777,t,0,0,0
4:51.147,104813,),0,0,2
4:51.489,104936,(,0,0,0
4:51.531,104951,p,0,0,0
4:51.581,104969,),0,0,0
4:51.650,104994,(,0,0,1
4:51.697,105011,N,0,0,0
4:51.731,105023,),0,0,1
4:51.897,105083,(,0,0,2
4:52.042,105135,t,0,0,0
4:52.147,105173,),0,0,2
4:52.447,105281,(,0,0,0
4:52.494,105298,p,0,0,0
4:52.536,105313,),0,0,0
4:52.606,105338,(,0,0,1
4:52.647,105353,N,0,0,0
4:52.675,105363,),0,0,1
4:52.831,105419,(,0,0,2
4:52.981,105473,t,0,0,0
4:53.092,105513,),0,0,2
4:53.353,105607,(,0,0,0
4:53.394,105622,p,0,0,0
4:53.444,105640,),0,0,0
4:53.514,105665,(,0,0,1
4:53.558,105681,N,0,0,0
4:53.589,105692,),0,0,1
4:53.761,105754,(,0,0,2
4:53.922,105812,t,0,0,0
4:54.025,105849,),0,0,2
4:54.353,105967,(,0,0,0
4:54.397,105983,p,0,0,0
4:54.450,106002,),0,0,0
4:54.517,106026,(,0,0,1
4:54.561,106042,N,0,0,0
4:54.589,106052,),0,0,1
4:54.756,106112,(,0,0,2
4:54.903,106165,t,0,0,0
4:55.008,106203,),0,0,2
4:55.331,106319,(,0,0,0
4:55.378,106336,p,0,0,0
4:55.419,106351,),0,0,0
4:55.483,106374,(,0,0,1
4:55.522,106388,N,0,0,0
4:55.550,106398,),0,0,1
4:55.722,106460,(,0,0,2
4:55.881,106517,t,0,0,0
4:55.981,106553,),0,0,2
4:56.239,106646,(,0,0,0
4:56.283,106662,p,0,0,0
4:56.328,106678,),0,0,0
4:56.397,106703,(,0,0,1
4:56.442,106719,N,0,0,0
4:56.469,106729,),0,0,1
4:56.642,106791,(,0,0,2
4:56.783,106842,t,0,0,0
4:56.886,106879,),0,0,2
4:57.258,107013,(,0,0,0
4:57.303,107029,p,0,0,0
4:57.350,107046,),0,0,0
4:57.414,107069,(,0,0,1
4:57.456,107084,N,0,0,0
4:57.492,107097,),0,0,1
4:57.656,107156,(,0,0,2
4:57.792,107205,t,0,0,0
4:57.906,107246,),0,0,2
4:58.222,107360,(,0,0,0
4:58.256,107372,p,0,0,0
4:58.306,107390,),0,0,0
4:58.369,107413,(,0,0,1
4:58.408,107427,N,0,0,0
4:58.433,107436,),0,0,1
4:58.592,107493,(,0,0,2
4:58.756,107552,t,0,0,0
4:58.856,107588,),0,0,2
4:59.128,107686,(,0,0,0
4:59.172,107702,p,0,0,0
4:59.222,107720,),0,0,0
4:59.292,107745,(,0,0,1
4:59.342,107763,N,0,0,0
4:59.369,107773,),0,0,1
4:59.539,107834,(,0,0,2
4:59.689,107888,t,0,0,0
4:59.786,107923,),0,0,2
5:00.125,108045,(,0,0,0
5:00.175,108063,p,0,0,0
5:00.225,108081,),0,0,0
5:00.286,108103,(,0,0,1
5:00.328,108118,N,0,0,0
5:00.367,108132,),0,0,1
5:00.525,108189,(,0,0,2
5:00.656,108236,t,0,0,0
5:00.758,108273,),0,0,2
5:01.081,108389,(,0,0,0
5:01.125,108405,p,0,0,0
5:01.169,108421,),0,0,0
5:01.239,108446,(,0,0,1
5:01.278,108460,N,0,0,0
5:01.306,108470,),0,0,1
5:01.328,108478,(,0,0,2
5:01.633,108588,t,0,0,0
5:01.731,108623,),0,0,2
5:01.994,108718,(,0,0,0
5:02.031,108731,p,0,0,0
5:02.083,108750,),0,0,0
5:02.147,108773,(,0,0,1
5:02.192,108789,N,0,0,0
5:02.231,108803,),0,0,1
5:02.367,108852,(,0,0,2
5:02.536,108913,t,0,0,0
5:02.642,108951,),0,0,2
5:02.983,109074,(,0,0,0
5:03.019,109087,p,0,0,0
5:03.067,109104,),0,0,0
5:03.122,109124,(,0,0,1
5:03.164,109139,N,0,0,0
5:03.203,109153,),0,0,1
5:03.369,109213,(,0,0,2
5:03.503,109261,t,0,0,0
5:03.622,109304,),0,0,2
5:03.900,109404,(,0,0,0
5:03.942,109419,p,0,0,0
5:03.992,109437,),0,0,0
5:04.053,109459,(,0,0,1
5:04.094,109474,N,0,0,0
5:04.128,109486,),0,0,1
5:04.297,109547,(,0,0,2
5:04.442,109599,t,0,0,0
5:04.550,109638,),0,0,2
5:04.606,109658,(,0,0,0
5:04.631,109667,p,0,0,0
5:04.669,109681,),0,0,0
5:04.794,109726,(,0,0,1
5:04.931,109775,N,0,0,0
5:05.047,109817,),0,0,1
5:05.069,109825,(,0,0,2
5:05.367,109932,t,0,0,0
5:05.467,109968,),0,0,2
5:05.772,110078,(,0,0,0
5:05.819,110095,p,0,0,0
5:05.864,110111,),0,0,0
5:05.933,110136,(,0,0,1
5:05.975,110151,N,0,0,0
5:06.014,110165,),0,0,1
5:06.164,110219,(,0,0,2
5:06.292,110265,t,0,0,0
5:06.406,110306,),0,0,2
5:06.719,110419,(,0,0,0
5:06.756,110432,p,0,0,0
5:06.803,110449,),0,0,0
5:06.872,110474,(,0,0,1
5:06.914,110489,N,0,0,0
5:06.942,110499,),0,0,1
5:07.125,110565,(,0,0,2
5:07.261,110614,t,0,0,0
5:07.364,110651,),0,0,2
5:07.633,110748,(,0,0,0
5:07.672,110762,p,0,0,0
5:07.722,110780,),0,0,0
5:07.797,110807,(,0,0,1
5:07.836,110821,N,0,0,0
5:07.864,110831,),0,0,1
5:08.031,110891,(,0,0,2
5:08.186,110947,t,0,0,0
5:08.286,110983,),0,0,2
5:08.619,111103,(,0,0,0
5:08.658,111117,p,0,0,0
5:08.706,111134,),0,0,0
5:08.769,111157,(,0,0,1
5:08.806,111170,N,0,0,0
5:08.842,111183,),0,0,1
5:09.000,111240,(,0,0,2
5:09.139,111290,t,0,0,0
5:09.253,111331,),0,0,2
5:09.606,111458,(,0,0,0
5:09.653,111475,p,0,0,0
5:09.697,111491,),0,0,0
5:09.764,111515,(,0,0,1
5:09.806,111530,N,0,0,0
5:09.844,111544,),0,0,1
5:10.000,111600,(,0,0,2
5:10.150,111654,t,0,0,0
5:10.269,111697,),0,0,2
5:10.500,111780,(,0,0,0
5:10.542,111795,p,0,0,0
5:10.567,111804,),0,0,0
5:10.603,111817,(,0,0,1
5:10.758,111873,N,0,0,0
5:10.842,111903,),0,0,1
5:10.864,111911,(,0,0,2
5:11.156,112016,t,0,0,0
5:11.256,112052,),0,0,2
5:11.528,112150,(,0,0,0
5:11.569,112165,p,0,0,0
5:11.614,112181,),0,0,0
5:11.678,112204,(,0,0,1
5:11.719,112219,N,0,0,0
5:11.756,112232,),0,0,1
5:11.900,112284,(,0,0,2
5:12.044,112336,t,0,0,0
5:12.153,112375,),0,0,2
5:12.472,112490,(,0,0,0
5:12.519,112507,p,0,0,0
5:12.569,112525,),0,0,0
5:12.639,112550,(,0,0,1
5:12.683,112566,N,0,0,0
5:12.714,112577,),0,0,1
5:12.894,112642,(,0,0,2
5:13.014,112685,t,0,0,0
5:13.128,112726,),0,0,2
5:13.461,112846,(,0,0,0
5:13.511,112864,p,0,0,0
5:13.556,112880,),0,0,0
5:13.619,112903,(,0,0,1
5:13.661,112918,N,0,0,0
5:13.689,112928,),0,0,1
5:13.850,112986,(,0,0,2
5:14.019,113047,t,0,0,0
5:14.122,113084,),0,0,2
5:14.378,113176,(,0,0,0
5:14.417,113190,p,0,0,0
5:14.464,113207,),0,0,0
5:14.531,113231,(,0,0,1
5:14.575,113247,N,0,0,0
5:14.606,113258,),0,0,1
5:14.789,113324,(,0,0,2
5:14.922,113372,t,0,0,0
5:15.031,113411,),0,0,2
5:15.333,113520,(,0,0,0
5:15.378,113536,p,0,0,0
5:15.428,113554,),0,0,0
5:15.492,113577,(,0,0,1
5:15.536,113593,N,0,0,0
5:15.567,113604,),0,0,1
5:15.736,113665,(,0,0,2
5:15.889,113720,t,0,0,0
5:16.006,113762,),0,0,2
5:16.322,113876,(,0,0,0
5:16.364,113891,p,0,0,0
5:16.408,113907,),0,0,0
5:16.481,113933,(,0,0,1
5:16.517,113946,N,0,0,0
5:16.542,113955,),0,0,1
5:16.700,114012,(,0,0,2
5:16.864,114071,t,0,0,0
5:16.967,114108,),0,0,2
5:17.214,114197,(,0,0,0
5:17.253,114211,p,0,0,0
5:17.300,114228,),0,0,0
5:17.358,114249,(,0,0,1
5:17.400,114264,N,0,0,0
5:17.439,114278,),0,0,1
5:17.600,114336,(,0,0,2
5:17.742,114387,t,0,0,0
5:17.839,114422,),0,0,2
5:18.169,114541,(,0,0,0
5:18.214,114557,p,0,0,0
5:18.267,114576,),0,0,0
5:18.333,114600,(,0,0,1
5:18.378,114616,N,0,0,0
5:18.417,114630,),0,0,1
5:18.564,114683,(,0,0,2
5:18.706,114734,t,0,0,0
5:18.819,114775,),0,0,2
5:19.131,114887,(,0,0,0
5:19.183,114906,p,0,0,0
5:19.233,114924,),0,0,0
5:19.300,114948,(,0,0,1
5:19.342,114963,N,0,0,0
5:19.369,114973,),0,0,1
5:19.536,115033,(,0,0,2
5:19.703,115093,t,0,0,0
5:19.803,115129,),0,0,2
5:20.042,115215,(,0,0,0
5:20.081,115229,p,0,0,0
5:20.128,115246,),0,0,0
5:20.192,115269,(,0,0,1
5:20.236,115285,N,0,0,0
5:20.264,115295,),0,0,1
5:20.431,115355,(,0,0,2
5:20.569,115405,t,0,0,0
5:20.661,115438,),0,0,2
5:20.967,115548,(,0,0,0
5:21.006,115562,p,0,0,0
5:21.050,115578,),0,0,0
5:21.117,115602,(,0,0,1
5:21.158,115617,N,0,0,0
5:21.189,115628,),0,0,1
5:21.367,115692,(,0,0,2
5:21.508,115743,t,0,0,0
5:21.611,115780,),0,0,2
5:21.922,115892,(,0,0,0
5:21.964,115907,p,0,0,0
5:22.008,115923,),0,0,0
5:22.075,115947,(,0,0,1
5:22.114,115961,N,0,0,0
5:22.142,115971,),0,0,1
5:22.333,116040,(,0,0,2
5:22.461,116086,t,0,0,0
5:22.567,116124,),0,0,2
5:22.775,116199,(,0,0,0
5:22.811,116212,p,0,0,0
5:22.858,116229,),0,0,0
5:22.922,116252,(,0,0,1
5:22.961,116266,N,0,0,0
5:23.000,116280,),0,0,1
5:23.136,116329,(,0,0,2
5:23.294,116386,t,0,0,0
5:23.389,116420,),0,0,2
5:23.700,116532,(,0,0,0
5:23.739,116546,p,0,0,0
5:23.786,116563,),0,0,0
5:23.853,116587,(,0,0,1
5:23.894,116602,N,0,0,0
5:23.936,116617,),0,0,1
5:24.092,116673,(,0,0,2
5:24.225,116721,t,0,0,0
5:24.339,116762,),0,0,2
5:24.619,116863,(,0,0,0
5:24.658,116877,p,0,0,0
5:24.708,116895,),0,0,0
5:24.775,116919,(,0,0,1
5:24.814,116933,N,0,0,0
5:24.853,116947,),0,0,1
5:25.014,117005,(,0,0,2
5:25.175,117063,t,0,0,0
5:25.272,117098,),0,0,2
5:25.503,117181,(,0,0,0
5:25.544,117196,p,0,0,0
5:25.592,117213,),0,0,0
5:25.656,117236,(,0,0,1
5:25.700,117252,N,0,0,0
5:25.742,117267,),0,0,1
5:25.894,117322,(,0,0,2
5:26.042,117375,t,0,0,0
5:26.133,117408,),0,0,2
5:26.461,117526,(,0,0,0
5:26.503,117541,p,0,0,0
5:26.550,117558,),0,0,0
5:26.614,117581,(,0,0,1
5:26.656,117596,N,0,0,0
5:26.686,117607,),0,0,1
5:26.847,117665,(,0,0,2
5:27.017,117726,t,0,0,0
5:27.133,117768,),0,0,2
5:27.492,117897,(,0,0,0
5:27.528,117910,p,0,0,0
5:27.578,117928,),0,0,0
5:27.642,117951,(,0,0,1
5:27.681,117965,N,0,0,0
5:27.711,117976,),0,0,1
5:27.869,118033,(,0,0,2
5:28.042,118095,t,0,0,0
5:28.147,118133,),0,0,2
5:28.361,118210,(,0,0,0
5:28.397,118223,p,0,0,0
5:28.442,118239,),0,0,0
5:28.503,118261,(,0,0,1
5:28.544,118276,N,0,0,0
5:28.583,118290,),0,0,1
5:28.731,118343,(,0,0,2
5:28.881,118397,t,0,0,0
5:28.978,118432,),0,0,2
5:29.308,118551,(,0,0,0
5:29.356,118568,p,0,0,0
5:29.403,118585,),0,0,0
5:29.467,118608,(,0,0,1
5:29.508,118623,N,0,0,0
5:29.547,118637,),0,0,1
5:29.708,118695,(,0,0,2
5:29.844,118744,t,0,0,0
5:29.942,118779,),0,0,2
5:30.239,118886,(,0,0,0
5:30.275,118899,p,0,0,0
5:30.322,118916,),0,0,0
5:30.386,118939,(,0,0,1
5:30.431,118955,N,0,0,0
5:30.458,118965,),0,0,1
5:30.478,118972,(,0,0,2
5:30.506,118982,t,0,0,0
5:30.536,118993,),0,0,2
5:30.564,119003,(,0,0,1
5:30.797,119087,N,0,0,0
5:30.850,119106,),0,0,1
5:31.106,119198,(,0,0,2
5:31.153,119215,t,0,0,0
5:31.208,119235,),0,0,2
5:31.989,119516,(,0,0,0
5:32.028,119530,p,0,0,0
5:32.078,119548,),0,0,0
5:32.136,119569,(,0,0,1
5:32.181,119585,N,0,0,0
5:32.206,119594,),0,0,1
5:32.478,119692,(,0,0,2
5:32.575,119727,t,0,0,0
5:32.672,119762,),0,0,2
5:32.922,119852,(,0,0,0
5:32.953,119863,p,0,0,0
5:32.997,119879,),0,0,0
5:33.067,119904,(,0,0,1
5:33.108,119919,N,0,0,0
5:33.133,119928,),0,0,1
5:33.292,119985,(,0,0,2
5:33.436,120037,t,0,0,5
5:33.733,120144,t,0,0,5
5:33.789,120164,),0,0,2
5:34.606,120458,(,0,0,0
5:34.644,120472,p,0,0,0
5:34.694,120490,),0,0,0
5:34.756,120512,(,0,0,1
5:34.797,120527,N,0,0,0
5:34.822,120536,),0,0,1
5:34.942,120579,t,0,0,2
5:35.017,120606,),0,0,2
5:35.072,120626,(,0,0,1
5:35.178,120664,N,0,0,0
5:35.367,120732,),0,0,1
5:35.464,120767,(,0,0,2
5:35.522,120788,t,0,0,0
5:35.578,120808,),0,0,2
5:36.369,121093,(,0,0,0
5:36.406,121106,p,0,0,0
5:36.453,121123,),0,0,0
5:36.506,121142,(,0,0,1
5:36.547,121157,N,0,0,0
5:36.569,121165,),0,0,1
5:36.833,121260,(,0,0,2
5:37.094,121354,t,0,0,0
5:37.331,121439,),0,0,2
6:11.228,133642,(,0,0,0
6:11.264,133655,p,0,0,0
6:11.311,133672,),0,0,0
6:11.369,133693,(,0,0,1
6:11.414,133709,N,0,0,0
6:11.439,133718,),0,0,1
6:11.678,133804,(,0,0,2
6:11.831,133859,t,0,0,5
6:12.053,133939,t,0,0,5
6:12.111,133960,),0,0,2
6:27.933,139656,(,0,0,0
6:27.972,139670,p,0,0,0
6:28.008,139683,),0,0,0
6:28.081,139709,(,0,0,1
6:28.122,139724,N,0,0,0
6:28.153,139735,),0,0,1
6:28.417,139830,(,0,0,2
6:28.542,139875,t,0,0,5
6:28.764,139955,t,0,0,5
6:28.822,139976,),0,0,2
6:29.606,140258,(,0,0,0
6:29.647,140273,p,0,0,0
6:29.694,140290,),0,0,0
6:29.744,140308,(,0,0,1
6:29.786,140323,N,0,0,0
6:29.825,140337,),0,0,1
6:30.050,140418,(,0,0,2
6:30.175,140463,t,0,0,5
6:30.367,140532,t,0,0,5
6:30.428,140554,),0,0,2
6:31.228,140842,(,0,0,0
6:31.267,140856,p,0,0,0
6:31.314,140873,),0,0,0
6:31.375,140895,(,0,0,1
6:31.414,140909,N,0,0,0
6:31.456,140924,),0,0,1
6:31.694,141010,(,0,0,2
6:31.819,141055,t,0,0,5
6:32.053,141139,t,0,0,5
6:32.103,141157,),0,0,2
6:32.861,141430,(,0,0,0
6:32.900,141444,p,0,0,0
6:32.942,141459,),0,0,0
6:33.006,141482,(,0,0,1
6:33.044,141496,N,0,0,0
6:33.081,141509,),0,0,1
6:33.322,141596,(,0,0,2
6:33.447,141641,t,0,0,5
6:33.611,141700,t,0,0,5
6:33.686,141727,),0,0,2
6:34.461,142006,(,0,0,0
6:34.500,142020,p,0,0,0
6:34.547,142037,),0,0,0
6:34.606,142058,(,0,0,1
6:34.650,142074,N,0,0,0
6:34.681,142085,),0,0,1
6:34.933,142176,(,0,0,2
6:35.044,142216,t,0,0,5
6:35.214,142277,t,0,0,5
6:35.281,142301,),0,0,2
6:36.053,142579,(,0,0,0
6:36.100,142596,p,0,0,0
6:36.147,142613,),0,0,0
6:36.208,142635,(,0,0,1
6:36.244,142648,N,0,0,0
6:36.275,142659,),0,0,1
6:36.525,142749,(,0,0,2
6:36.639,142790,t,0,0,5
6:36.806,142850,t,0,0,5
6:36.872,142874,),0,0,2
6:37.628,143146,(,0,0,0
6:37.664,143159,p,0,0,0
6:37.714,143177,),0,0,0
6:37.767,143196,(,0,0,1
6:37.806,143210,N,0,0,0
6:37.842,143223,),0,0,1
6:38.075,143307,(,0,0,2
6:38.203,143353,t,0,0,5
6:38.378,143416,t,0,0,5
6:38.439,143438,),0,0,2
6:39.206,143714,(,0,0,0
6:39.247,143729,p,0,0,0
6:39.294,143746,),0,0,0
6:39.356,143768,(,0,0,1
6:39.397,143783,N,0,0,0
6:39.439,143798,),0,0,1
6:39.700,143892,(,0,0,2
6:39.817,143934,t,0,0,5
6:40.014,144005,t,0,0,5
6:40.075,144027,),0,0,2
6:40.853,144307,(,0,0,0
6:40.892,144321,p,0,0,0
6:40.939,144338,),0,0,0
6:41.003,144361,(,0,0,1
6:41.044,144376,N,0,0,0
6:41.083,144390,),0,0,1
6:41.314,144473,(,0,0,2
6:41.447,144521,t,0,0,5
6:41.617,144582,t,0,0,5
6:41.703,144613,),0,0,2
6:42.483,144894,(,0,0,0
6:42.522,144908,p,0,0,0
6:42.569,144925,),0,0,0
6:42.622,144944,(,0,0,1
6:42.667,144960,N,0,0,0
6:42.703,144973,),0,0,1
6:42.967,145068,(,0,0,2
6:43.092,145113,t,0,0,5
6:43.306,145190,t,0,0,5
6:43.358,145209,),0,0,2
6:44.131,145487,(,0,0,0
6:44.167,145500,p,0,0,0
6:44.214,145517,),0,0,0
6:44.269,145537,(,0,0,1
6:44.308,145551,N,0,0,0
6:44.344,145564,),0,0,1
6:44.589,145652,(,0,0,2
6:44.711,145696,t,0,0,5
6:44.911,145768,t,0,0,5
6:44.975,145791,),0,0,2
6:45.792,146085,(,0,0,0
6:45.831,146099,p,0,0,0
6:45.878,146116,),0,0,0
6:45.931,146135,(,0,0,1
6:45.978,146152,N,0,0,0
6:46.003,146161,),0,0,1
6:46.258,146253,(,0,0,2
6:46.361,146290,t,0,0,5
6:46.567,146364,t,0,0,5
6:46.628,146386,),0,0,2
6:47.431,146675,(,0,0,0
6:47.464,146687,p,0,0,0
6:47.506,146702,),0,0,0
6:47.561,146722,(,0,0,1
6:47.606,146738,N,0,0,0
6:47.628,146746,),0,0,1
6:47.933,146856,(,0,0,2
6:48.028,146890,t,0,0,5
6:48.194,146950,t,0,0,5
6:48.261,146974,),0,0,2
6:49.056,147260,(,0,0,0
6:49.092,147273,p,0,0,0
6:49.142,147291,),0,0,0
6:49.194,147310,(,0,0,1
6:49.239,147326,N,0,0,0
6:49.264,147335,),0,0,1
6:49.536,147433,(,0,0,2
6:49.778,147520,t,0,0,0
6:49.978,147592,),0,0,2
6:50.778,147880,(,0,0,0
6:50.817,147894,p,0,0,0
6:50.864,147911,),0,0,0
6:50.919,147931,(,0,0,1
6:50.961,147946,N,0,0,0
6:50.986,147955,),0,0,1
6:51.258,148053,(,0,0,2
6:51.369,148093,t,0,0,5
6:51.572,148166,t,0,0,5
6:51.633,148188,),0,0,2
6:52.414,148469,(,0,0,0
6:52.456,148484,p,0,0,0
6:52.503,148501,),0,0,0
6:52.564,148523,(,0,0,1
6:52.611,148540,N,0,0,0
6:52.636,148549,),0,0,1
6:52.903,148645,(,0,0,2
6:53.161,148738,t,0,0,0
6:53.372,148814,),0,0,2
6:54.142,149091,(,0,0,0
6:54.178,149104,p,0,0,0
6:54.225,149121,),0,0,0
6:54.278,149140,(,0,0,1
6:54.319,149155,N,0,0,0
6:54.344,149164,),0,0,1
6:54.608,149259,(,0,0,2
6:54.728,149302,t,0,0,5
6:54.928,149374,t,0,0,5
6:54.986,149395,),0,0,2
6:55.778,149680,(,0,0,0
6:55.817,149694,p,0,0,0
6:55.864,149711,),0,0,0
6:55.925,149733,(,0,0,1
6:55.969,149749,N,0,0,0
6:55.994,149758,),0,0,1
6:56.292,149865,(,0,0,2
6:56.400,149904,t,0,0,5
6:56.558,149961,t,0,0,5
6:56.619,149983,),0,0,2
6:57.383,150258,(,0,0,0
6:57.422,150272,p,0,0,0
6:57.472,150290,),0,0,0
6:57.528,150310,(,0,0,1
6:57.575,150327,N,0,0,0
6:57.600,150336,),0,0,1
6:57.867,150432,(,0,0,2
6:58.108,150519,t,0,0,0
6:58.303,150589,),0,0,2
6:59.039,150854,(,0,0,0
6:59.078,150868,p,0,0,0
6:59.125,150885,),0,0,0
6:59.181,150905,(,0,0,1
6:59.225,150921,N,0,0,0
6:59.247,150929,),0,0,1
6:59.503,151021,(,0,0,2
6:59.644,151072,t,0,0,5
6:59.803,151129,t,0,0,5
6:59.878,151156,),0,0,2
7:00.672,151442,(,0,0,0
7:00.711,151456,p,0,0,0
7:00.753,151471,),0,0,0
7:00.811,151492,(,0,0,1
7:00.853,151507,N,0,0,0
7:00.878,151516,),0,0,1
7:01.147,151613,(,0,0,2
7:01.417,151710,t,0,0,0
7:01.625,151785,),0,0,2
7:02.386,152059,(,0,0,0
7:02.425,152073,p,0,0,0
7:02.472,152090,),0,0,0
7:02.536,152113,(,0,0,1
7:02.575,152127,N,0,0,0
7:02.600,152136,),0,0,1
7:02.867,152232,(,0,0,2
7:02.975,152271,t,0,0,5
7:03.192,152349,t,0,0,5
7:03.247,152369,),0,0,2
7:04.036,152653,(,0,0,0
7:04.075,152667,p,0,0,0
7:04.125,152685,),0,0,0
7:04.183,152706,(,0,0,1
7:04.225,152721,N,0,0,0
7:04.247,152729,),0,0,1
7:04.544,152836,(,0,0,2
7:04.789,152924,t,0,0,0
7:04.992,152997,),0,0,2
7:05.742,153267,(,0,0,0
7:05.783,153282,p,0,0,0
7:05.831,153299,),0,0,0
7:05.886,153319,(,0,0,1
7:05.928,153334,N,0,0,0
7:05.953,153343,),0,0,1
7:06.214,153437,(,0,0,2
7:06.464,153527,t,0,0,0
7:06.664,153599,),0,0,2
7:07.447,153881,(,0,0,0
7:07.486,153895,p,0,0,0
7:07.531,153911,),0,0,0
7:07.586,153931,(,0,0,1
7:07.628,153946,N,0,0,0
7:07.653,153955,),0,0,1
7:07.933,154056,(,0,0,2
7:08.050,154098,t,0,0,5
7:08.214,154157,t,0,0,5
7:08.275,154179,),0,0,2
7:09.069,154465,(,0,0,0
7:09.106,154478,p,0,0,0
7:09.153,154495,),0,0,0
7:09.217,154518,(,0,0,1
7:09.261,154534,N,0,0,0
7:09.286,154543,),0,0,1
7:09.564,154643,(,0,0,2
7:09.808,154731,t,0,0,0
7:10.014,154805,),0,0,2
7:10.761,155074,(,0,0,0
7:10.794,155086,p,0,0,0
7:10.844,155104,),0,0,0
7:10.897,155123,(,0,0,1
7:10.939,155138,N,0,0,0
7:10.964,155147,),0,0,1
7:11.225,155241,(,0,0,2
7:11.350,155286,t,0,0,5
7:11.511,155344,t,0,0,5
7:11.567,155364,),0,0,2
7:12.342,155643,(,0,0,0
7:12.383,155658,p,0,0,0
7:12.433,155676,),0,0,0
7:12.494,155698,(,0,0,1
7:12.539,155714,N,0,0,0
7:12.561,155722,),0,0,1
7:12.850,155826,(,0,0,2
7:13.081,155909,t,0,0,0
7:13.250,155970,),0,0,2
7:13.942,156219,(,0,0,0
7:13.986,156235,p,0,0,0
7:14.036,156253,),0,0,0
7:14.097,156275,(,0,0,1
7:14.136,156289,N,0,0,0
7:14.158,156297,),0,0,1
7:14.433,156396,(,0,0,2
7:14.542,156435,t,0,0,5
7:14.728,156502,t,0,0,5
7:14.786,156523,),0,0,2
7:15.553,156799,(,0,0,0
7:15.594,156814,p,0,0,0
7:15.644,156832,),0,0,0
7:15.700,156852,(,0,0,1
7:15.744,156868,N,0,0,0
7:15.769,156877,),0,0,1
7:16.067,156984,(,0,0,2
7:16.297,157067,t,0,0,0
7:16.475,157131,),0,0,2
7:17.186,157387,(,0,0,0
7:17.228,157402,p,0,0,0
7:17.275,157419,),0,0,0
7:17.331,157439,(,0,0,1
7:17.372,157454,N,0,0,0
7:17.397,157463,),0,0,1
7:17.675,157563,(,0,0,2
7:17.919,157651,t,0,0,0
7:18.114,157721,),0,0,2
7:18.844,157984,(,0,0,0
7:18.881,157997,p,0,0,0
7:18.931,158015,),0,0,0
7:18.994,158038,(,0,0,1
7:19.039,158054,N,0,0,0
7:19.064,158063,),0,0,1
7:19.339,158162,(,0,0,2
7:19.558,158241,t,0,0,0
7:19.750,158310,),0,0,2
7:20.456,158564,(,0,0,0
7:20.500,158580,p,0,0,0
7:20.544,158596,),0,0,0
7:20.600,158616,(,0,0,1
7:20.636,158629,N,0,0,0
7:20.661,158638,),0,0,1
7:20.942,158739,(,0,0,2
7:21.056,158780,t,0,0,5
7:21.225,158841,t,0,0,5
7:21.289,158864,),0,0,2
7:22.078,159148,(,0,0,0
7:22.111,159160,p,0,0,0
7:22.150,159174,),0,0,0
7:22.211,159196,(,0,0,1
7:22.253,159211,N,0,0,0
7:22.278,159220,),0,0,1
7:22.556,159320,(,0,0,2
7:22.667,159360,t,0,0,5
7:22.817,159414,t,0,0,5
7:22.869,159433,),0,0,2
7:23.619,159703,(,0,0,0
7:23.669,159721,p,0,0,0
7:23.719,159739,),0,0,0
7:23.783,159762,(,0,0,1
7:23.828,159778,N,0,0,0
7:23.853,159787,),0,0,1
7:24.142,159891,(,0,0,2
7:24.381,159977,t,0,0,0
7:24.567,160044,),0,0,2
7:25.281,160301,(,0,0,0
7:25.311,160312,p,0,0,0
7:25.353,160327,),0,0,0
7:25.417,160350,(,0,0,1
7:25.456,160364,N,0,0,0
7:25.481,160373,),0,0,1
7:25.753,160471,(,0,0,2
7:26.000,160560,t,0,0,0
7:26.186,160627,),0,0,2
7:26.911,160888,(,0,0,0
7:26.950,160902,p,0,0,0
7:26.997,160919,),0,0,0
7:27.061,160942,(,0,0,1
7:27.106,160958,N,0,0,0
7:27.131,160967,),0,0,1
7:27.408,161067,(,0,0,2
7:27.644,161152,t,0,0,0
7:27.814,161213,),0,0,2
7:28.517,161466,(,0,0,0
7:28.556,161480,p,0,0,0
7:28.600,161496,),0,0,0
7:28.658,161517,(,0,0,1
7:28.703,161533,N,0,0,0
7:28.728,161542,),0,0,1
7:29.014,161645,(,0,0,2
7:29.261,161734,t,0,0,0
7:29.458,161805,),0,0,2
7:30.172,162062,(,0,0,0
7:30.214,162077,p,0,0,0
7:30.264,162095,),0,0,0
7:30.322,162116,(,0,0,1
7:30.364,162131,N,0,0,0
7:30.389,162140,),0,0,1
7:30.639,162230,(,0,0,2
7:30.883,162318,t,0,0,0
7:31.050,162378,),0,0,2
7:31.772,162638,(,0,0,0
7:31.811,162652,p,0,0,0
7:31.853,162667,),0,0,0
7:31.908,162687,(,0,0,1
7:31.953,162703,N,0,0,0
7:31.978,162712,),0,0,1
7:32.272,162818,(,0,0,2
7:32.383,162858,t,0,0,5
7:32.569,162925,t,0,0,5
7:32.625,162945,),0,0,2
7:33.428,163234,(,0,0,0
7:33.461,163246,p,0,0,0
7:33.506,163262,),0,0,0
7:33.569,163285,(,0,0,1
7:33.611,163300,N,0,0,0
7:33.636,163309,),0,0,1
7:33.900,163404,(,0,0,2
7:34.014,163445,t,0,0,5
7:34.183,163506,t,0,0,5
7:34.239,163526,),0,0,2
7:36.736,164425,(,0,0,0
7:36.767,164436,p,0,0,0
7:36.817,164454,),0,0,0
7:36.869,164473,(,0,0,1
7:36.914,164489,N,0,0,0
7:36.936,164497,),0,0,1
7:37.225,164601,(,0,0,2
7:37.336,164641,t,0,0,0
7:37.450,164682,),0,0,2
7:38.442,165039,(,0,0,0
7:38.481,165053,p,0,0,0
7:38.525,165069,),0,0,0
7:38.594,165094,(,0,0,1
7:38.636,165109,N,0,0,0
7:38.661,165118,),0,0,1
7:38.933,165216,(,0,0,2
7:39.056,165260,t,0,0,5
7:39.261,165334,t,0,0,5
7:39.325,165357,),0,0,2
7:40.144,165652,(,0,0,0
7:40.189,165668,p,0,0,0
7:40.231,165683,),0,0,0
7:40.300,165708,(,0,0,1
7:40.339,165722,N,0,0,0
7:40.364,165731,),0,0,1
7:40.667,165840,(,0,0,2
7:40.781,165881,t,0,0,5
7:40.961,165946,t,0,0,5
7:41.017,165966,),0,0,2
7:41.817,166254,(,0,0,0
7:41.856,166268,p,0,0,0
7:41.900,166284,),0,0,0
7:41.958,166305,(,0,0,1
7:42.000,166320,N,0,0,0
7:42.025,166329,),0,0,1
7:42.314,166433,(,0,0,2
7:42.417,166470,t,0,0,0
7:42.528,166510,),0,0,2
7:45.242,167487,(,0,0,0
7:45.275,167499,p,0,0,0
7:45.322,167516,),0,0,0
7:45.381,167537,(,0,0,1
7:45.422,167552,N,0,0,0
7:45.447,167561,),0,0,1
7:45.747,167669,(,0,0,2
7:45.847,167705,t,0,0,5
7:46.033,167772,t,0,0,5
7:46.097,167795,),0,0,2
7:46.950,168102,(,0,0,0
7:46.983,168114,p,0,0,0
7:47.028,168130,),0,0,0
7:47.089,168152,(,0,0,1
7:47.133,168168,N,0,0,0
7:47.156,168176,),0,0,1
7:47.419,168271,(,0,0,2
7:47.678,168364,t,0,0,0
7:47.892,168441,),0,0,2
7:48.647,168713,(,0,0,0
7:48.683,168726,p,0,0,0
7:48.728,168742,),0,0,0
7:48.794,168766,(,0,0,1
7:48.836,168781,N,0,0,0
7:48.861,168790,),0,0,1
7:49.147,168893,(,0,0,2
7:49.264,168935,t,0,0,0
7:49.375,168975,),0,0,2
7:50.433,169356,(,0,0,0
7:50.478,169372,p,0,0,0
7:50.522,169388,),0,0,0
7:50.578,169408,(,0,0,1
7:50.619,169423,N,0,0,0
7:50.642,169431,),0,0,1
7:50.928,169534,(,0,0,2
7:51.036,169573,t,0,0,5
7:51.236,169645,t,0,0,5
7:51.294,169666,),0,0,2
7:52.181,169985,(,0,0,0
7:52.217,169998,p,0,0,0
7:52.267,170016,),0,0,0
7:52.325,170037,(,0,0,1
7:52.369,170053,N,0,0,0
7:52.394,170062,),0,0,1
7:52.689,170168,(,0,0,2
7:52.794,170206,t,0,0,5
7:53.000,170280,t,0,0,5
7:53.069,170305,),0,0,2
7:55.697,171251,(,0,0,0
7:55.742,171267,p,0,0,0
7:55.792,171285,),0,0,0
7:55.847,171305,(,0,0,1
7:55.892,171321,N,0,0,0
7:55.917,171330,),0,0,1
7:56.183,171426,(,0,0,2
7:56.311,171472,t,0,0,5
7:56.500,171540,t,0,0,5
7:56.558,171561,),0,0,2
7:57.411,171868,(,0,0,0
7:57.450,171882,p,0,0,0
7:57.497,171899,),0,0,0
7:57.553,171919,(,0,0,1
7:57.597,171935,N,0,0,0
7:57.622,171944,),0,0,1
7:57.892,172041,(,0,0,2
7:58.144,172132,t,0,0,0
7:58.336,172201,),0,0,2
7:59.061,172462,(,0,0,0
7:59.097,172475,p,0,0,0
7:59.142,172491,),0,0,0
7:59.206,172514,(,0,0,1
7:59.247,172529,N,0,0,0
7:59.269,172537,),0,0,1
7:59.547,172637,(,0,0,2
7:59.669,172681,t,0,0,5
7:59.808,172731,t,0,0,5
7:59.883,172758,),0,0,2
8:00.722,173060,(,0,0,0
8:00.761,173074,p,0,0,0
8:00.808,173091,),0,0,0
8:00.869,173113,(,0,0,1
8:00.911,173128,N,0,0,0
8:00.936,173137,),0,0,1
8:01.200,173232,(,0,0,2
8:01.456,173324,t,0,0,0
8:01.642,173391,),0,0,2
8:02.361,173650,(,0,0,0
8:02.406,173666,p,0,0,0
8:02.447,173681,),0,0,0
8:02.517,173706,(,0,0,1
8:02.558,173721,N,0,0,0
8:02.583,173730,),0,0,1
8:02.897,173843,(,0,0,2
8:03.133,173928,t,0,0,0
8:03.328,173998,),0,0,2
8:04.058,174261,(,0,0,0
8:04.094,174274,p,0,0,0
8:04.139,174290,),0,0,0
8:04.206,174314,(,0,0,1
8:04.244,174328,N,0,0,0
8:04.269,174337,),0,0,1
8:04.550,174438,(,0,0,2
8:04.803,174529,t,0,0,0
8:04.992,174597,),0,0,2
8:10.753,176671,(,0,0,0
8:10.789,176684,p,0,0,0
8:10.833,176700,),0,0,0
8:10.889,176720,(,0,0,1
8:10.933,176736,N,0,0,0
8:10.956,176744,),0,0,1
8:11.250,176850,(,0,0,2
8:11.364,176891,t,0,0,0
8:11.489,176936,),0,0,2
8:15.661,178438,(,0,0,0
8:15.697,178451,p,0,0,0
8:15.744,178468,),0,0,0
8:15.803,178489,(,0,0,1
8:15.847,178505,N,0,0,0
8:15.872,178514,),0,0,1
8:16.169,178621,(,0,0,2
8:16.403,178705,t,0,0,0
8:16.589,178772,),0,0,2
8:18.992,179637,(,0,0,0
8:19.031,179651,p,0,0,0
8:19.083,179670,),0,0,0
8:19.142,179691,(,0,0,1
8:19.183,179706,N,0,0,0
8:19.208,179715,),0,0,1
8:19.497,179819,(,0,0,2
8:19.736,179905,t,0,0,0
8:19.897,179963,),0,0,2
8:29.111,183280,(,0,0,0
8:29.144,183292,p,0,0,0
8:29.189,183308,),0,0,0
8:29.250,183330,(,0,0,1
8:29.286,183343,N,0,0,0
8:29.311,183352,),0,0,1
8:29.583,183450,(,0,0,2
8:29.700,183492,t,0,0,5
8:29.867,183552,t,0,0,5
8:29.925,183573,),0,0,2
8:30.775,183879,(,0,0,0
8:30.811,183892,p,0,0,0
8:30.856,183908,),0,0,0
8:30.914,183929,(,0,0,1
8:30.956,183944,N,0,0,0
8:30.981,183953,),0,0,1
8:31.272,184058,(,0,0,2
8:31.392,184101,t,0,0,5
8:31.589,184172,t,0,0,5
8:31.647,184193,),0,0,2
8:32.469,184489,(,0,0,0
8:32.508,184503,p,0,0,0
8:32.553,184519,),0,0,0
8:32.617,184542,(,0,0,1
8:32.656,184556,N,0,0,0
8:32.681,184565,),0,0,1
8:32.944,184660,(,0,0,2
8:33.078,184708,t,0,0,5
8:33.272,184778,t,0,0,5
8:33.331,184799,),0,0,2
8:34.167,185100,(,0,0,0
8:34.203,185113,p,0,0,0
8:34.247,185129,),0,0,0
8:34.300,185148,(,0,0,1
8:34.347,185165,N,0,0,0
8:34.372,185174,),0,0,1
8:34.661,185278,(,0,0,2
8:34.783,185322,t,0,0,5
8:34.975,185391,t,0,0,5
8:35.036,185413,),0,0,2
8:35.889,185720,(,0,0,0
8:35.925,185733,p,0,0,0
8:35.981,185753,),0,0,0
8:36.044,185776,(,0,0,1
8:36.083,185790,N,0,0,0
8:36.108,185799,),0,0,1
8:36.397,185903,(,0,0,2
8:36.508,185943,t,0,0,5
8:36.675,186003,t,0,0,5
8:36.736,186025,),0,0,2
8:37.544,186316,(,0,0,0
8:37.592,186333,p,0,0,0
8:37.636,186349,),0,0,0
8:37.692,186369,(,0,0,1
8:37.733,186384,N,0,0,0
8:37.758,186393,),0,0,1
8:38.064,186503,(,0,0,2
8:38.303,186589,t,0,0,0
8:38.494,186658,),0,0,2
8:40.997,187559,(,0,0,0
8:41.036,187573,p,0,0,0
8:41.089,187592,),0,0,0
8:41.147,187613,(,0,0,1
8:41.192,187629,N,0,0,0
8:41.214,187637,),0,0,1
8:41.511,187744,(,0,0,2
8:41.644,187792,t,0,0,5
8:41.836,187861,t,0,0,5
8:41.892,187881,),0,0,2
8:49.372,190574,(,0,0,0
8:49.408,190587,p,0,0,0
8:49.453,190603,),0,0,0
8:49.503,190621,(,0,0,1
8:49.544,190636,N,0,0,0
8:49.569,190645,),0,0,1
8:49.867,190752,(,0,0,2
8:49.992,190797,t,0,0,5
8:50.147,190853,t,0,0,5
8:50.211,190876,),0,0,2
8:51.042,191175,(,0,0,0
8:51.081,191189,p,0,0,0
8:51.125,191205,),0,0,0
8:51.186,191227,(,0,0,1
8:51.228,191242,N,0,0,0
8:51.250,191250,),0,0,1
8:51.539,191354,(,0,0,2
8:51.647,191393,t,0,0,0
8:51.758,191433,),0,0,2
8:52.747,191789,(,0,0,0
8:52.783,191802,p,0,0,0
8:52.842,191823,),0,0,0
8:52.897,191843,(,0,0,1
8:52.939,191858,N,0,0,0
8:52.964,191867,),0,0,1
8:53.256,191972,(,0,0,2
8:53.481,192053,t,0,0,0
8:53.656,192116,),0,0,2
8:56.036,192973,(,0,0,0
8:56.072,192986,p,0,0,0
8:56.125,193005,),0,0,0
8:56.183,193026,(,0,0,1
8:56.228,193042,N,0,0,0
8:56.250,193050,),0,0,1
8:56.536,193153,(,0,0,2
8:56.650,193194,t,0,0,0
8:56.778,193240,),0,0,2
8:57.644,193552,(,0,0,0
8:57.681,193565,p,0,0,0
8:57.728,193582,),0,0,0
8:57.786,193603,(,0,0,1
8:57.828,193618,N,0,0,0
8:57.853,193627,),0,0,1
8:58.150,193734,(,0,0,2
8:58.400,193824,t,0,0,0
8:58.592,193893,),0,0,2
8:59.333,194160,(,0,0,0
8:59.375,194175,p,0,0,0
8:59.422,194192,),0,0,0
8:59.478,194212,(,0,0,1
8:59.517,194226,N,0,0,0
8:59.539,194234,),0,0,1
8:59.825,194337,(,0,0,2
8:59.950,194382,t,0,0,5
9:00.086,194431,t,0,0,5
9:00.142,194451,),0,0,2
9:00.911,194728,(,0,0,0
9:00.950,194742,p,0,0,0
9:01.003,194761,),0,0,0
9:01.064,194783,(,0,0,1
9:01.108,194799,N,0,0,0
9:01.131,194807,),0,0,1
9:01.414,194909,(,0,0,2
9:01.661,194998,t,0,0,0
9:01.836,195061,),0,0,2
9:02.536,195313,(,0,0,0
9:02.586,195331,p,0,0,0
9:02.639,195350,),0,0,0
9:02.694,195370,(,0,0,1
9:02.733,195384,N,0,0,0
9:02.756,195392,),0,0,1
9:03.033,195492,(,0,0,2
9:03.244,195568,t,0,0,0
9:03.408,195627,),0,0,2
9:04.144,195892,(,0,0,0
9:04.181,195905,p,0,0,0
9:04.228,195922,),0,0,0
9:04.289,195944,(,0,0,1
9:04.328,195958,N,0,0,0
9:04.353,195967,),0,0,1
9:04.653,196075,(,0,0,2
9:04.875,196155,t,0,0,0
9:05.044,196216,),0,0,2
9:05.761,196474,(,0,0,0
9:05.800,196488,p,0,0,0
9:05.850,196506,),0,0,0
9:05.908,196527,(,0,0,1
9:05.947,196541,N,0,0,0
9:05.969,196549,),0,0,1
9:06.253,196651,(,0,0,2
9:06.489,196736,t,0,0,0
9:06.683,196806,),0,0,2
9:07.425,197073,(,0,0,0
9:07.467,197088,p,0,0,0
9:07.514,197105,),0,0,0
9:07.569,197125,(,0,0,1
9:07.611,197140,N,0,0,0
9:07.636,197149,),0,0,1
9:07.942,197259,(,0,0,2
9:08.169,197341,t,0,0,0
9:08.356,197408,),0,0,2
9:09.106,197678,(,0,0,0
9:09.142,197691,p,0,0,0
9:09.189,197708,),0,0,0
9:09.253,197731,(,0,0,1
9:09.297,197747,N,0,0,0
9:09.322,197756,),0,0,1
9:09.617,197862,(,0,0,2
9:09.861,197950,t,0,0,0
9:10.047,198017,),0,0,2
9:12.417,198870,(,0,0,0
9:12.458,198885,p,0,0,0
9:12.503,198901,),0,0,0
9:12.586,198931,(,0,0,1
9:12.603,198937,N,0,0,0
9:12.625,198945,),0,0,1
9:12.925,199053,(,0,0,2
9:13.050,199098,t,0,0,0
9:13.169,199141,),0,0,2
9:14.061,199462,(,0,0,0
9:14.100,199476,p,0,0,0
9:14.142,199491,),0,0,0
9:14.228,199522,(,0,0,1
9:14.244,199528,N,0,0,0
9:14.264,199535,),0,0,1
9:14.558,199641,(,0,0,2
9:14.681,199685,t,0,0,0
9:14.806,199730,),0,0,2
9:15.686,200047,(,0,0,0
9:15.722,200060,p,0,0,0
9:15.772,200078,),0,0,0
9:15.833,200100,(,0,0,1
9:15.878,200116,N,0,0,0
9:15.897,200123,),0,0,1
9:16.183,200226,(,0,0,2
9:16.303,200269,t,0,0,0
9:16.422,200312,),0,0,2
9:17.289,200624,(,0,0,0
9:17.322,200636,p,0,0,0
9:17.364,200651,),0,0,0
9:17.447,200681,(,0,0,1
9:17.464,200687,N,0,0,0
9:17.486,200695,),0,0,1
9:17.778,200800,(,0,0,2
9:17.903,200845,t,0,0,0
9:18.017,200886,),0,0,2
9:18.867,201192,(,0,0,0
9:18.908,201207,p,0,0,0
9:18.953,201223,),0,0,0
9:19.014,201245,(,0,0,1
9:19.061,201262,N,0,0,0
9:19.086,201271,),0,0,1
9:19.383,201378,(,0,0,2
9:19.494,201418,t,0,0,0
9:19.617,201462,),0,0,2
9:20.572,201806,(,0,0,0
9:20.611,201820,p,0,0,0
9:20.667,201840,),0,0,0
9:20.747,201869,(,0,0,1
9:20.767,201876,N,0,0,0
9:20.786,201883,),0,0,1
9:21.072,201986,(,0,0,2
9:21.194,202030,t,0,0,0
9:21.319,202075,),0,0,2
9:22.217,202398,(,0,0,0
9:22.253,202411,p,0,0,0
9:22.297,202427,),0,0,0
9:22.358,202449,(,0,0,1
9:22.400,202464,N,0,0,0
9:22.425,202473,),0,0,1
9:22.733,202584,(,0,0,2
9:22.844,202624,t,0,0,0
9:22.992,202677,),0,0,2
9:23.064,202703,(,0,0,0
9:23.108,202719,p,0,0,0
9:23.156,202736,),0,0,0
9:23.225,202761,(,0,0,1
9:23.269,202777,N,0,0,0
9:23.317,202794,),0,0,1
9:23.547,202877,(,0,0,2
9:23.669,202921,t,0,0,0
9:23.786,202963,),0,0,2
9:23.917,203010,(,0,0,0
9:23.947,203021,p,0,0,0
9:24.000,203040,),0,0,0
9:24.072,203066,(,0,0,1
9:24.108,203079,N,0,0,0
9:24.161,203098,),0,0,1
9:24.389,203180,(,0,0,2
9:24.503,203221,t,0,0,0
9:24.658,203277,),0,0,2
9:24.817,203334,(,0,0,0
9:24.853,203347,p,0,0,0
9:24.900,203364,),0,0,0
9:24.956,203384,(,0,0,1
9:25.000,203400,N,0,0,0
9:25.039,203414,),0,0,1
9:25.292,203505,(,0,0,2
9:25.419,203551,t,0,0,0
9:25.572,203606,),0,0,2
9:25.786,203683,(,0,0,0
9:25.828,203698,p,0,0,0
9:25.883,203718,),0,0,0
9:25.947,203741,(,0,0,1
9:25.992,203757,N,0,0,0
9:26.039,203774,),0,0,1
9:26.042,203775,t,0,0,2
9:26.100,203796,),0,0,2
9:26.247,203849,(,0,0,1
9:26.417,203910,N,0,0,0
9:26.483,203934,),0,0,1
9:26.903,204085,(,0,0,2
9:26.931,204095,t,0,0,5
9:26.978,204112,t,0,0,5
9:27.031,204131,),0,0,2
9:27.186,204187,(,0,0,1
9:27.314,204233,N,0,0,0
9:27.353,204247,),0,0,1
9:27.356,204248,t,0,0,3
9:27.550,204318,),0,0,2
9:27.722,204380,(,0,0,0
9:27.758,204393,p,0,0,0
9:27.806,204410,),0,0,0
9:27.872,204434,(,0,0,1
9:27.914,204449,N,0,0,0
9:28.006,204482,),0,0,1
9:28.050,204498,t,0,0,2
9:28.142,204531,),0,0,2
9:28.144,204532,(,0,0,1
9:28.347,204605,N,0,0,0
9:28.386,204619,),0,0,1
9:28.389,204620,t,0,0,3
9:28.556,204680,),0,0,2
9:28.742,204747,(,0,0,0
9:28.792,204765,p,0,0,0
9:28.842,204783,),0,0,0
9:28.908,204807,(,0,0,1
9:28.950,204822,N,0,0,0
9:28.992,204837,),0,0,1
9:29.261,204934,(,0,0,2
9:29.383,204978,t,0,0,0
9:29.628,205066,),0,0,2
9:29.753,205111,(,0,0,0
9:29.789,205124,p,0,0,0
9:29.836,205141,),0,0,0
9:29.922,205172,(,0,0,1
9:29.939,205178,N,0,0,0
9:29.986,205195,),0,0,1
9:30.144,205252,t,0,0,2
9:30.231,205283,),0,0,2
9:30.367,205332,(,0,0,1
9:30.369,205333,N,0,0,0
9:30.400,205344,),0,0,1
9:30.428,205354,(,0,0,2
9:30.639,205430,t,0,0,1
9:30.708,205455,),0,0,2
9:30.828,205498,(,0,0,1
9:30.872,205514,N,0,0,0
9:30.911,205528,),0,0,1
9:31.031,205571,t,0,0,2
9:31.100,205596,),0,0,2
9:31.128,205606,(,0,0,1
9:31.286,205663,N,0,0,0
9:31.294,205666,),0,0,1
9:31.356,205688,t,0,0,3
9:31.522,205748,),0,0,2
9:31.700,205812,(,0,0,0
9:31.744,205828,p,0,0,0
9:31.794,205846,),0,0,0
9:31.856,205868,(,0,0,1
9:31.903,205885,N,0,0,0
9:31.983,205914,),0,0,1
9:32.086,205951,t,0,0,2
9:32.167,205980,),0,0,2
9:32.189,205988,(,0,0,1
9:32.353,206047,N,0,0,0
9:32.386,206059,),0,0,1
9:32.419,206071,t,0,0,3
9:32.558,206121,),0,0,2
9:32.658,206157,(,0,0,0
9:32.694,206170,p,0,0,0
9:32.739,206186,),0,0,0
9:32.825,206217,(,0,0,1
9:32.842,206223,N,0,0,0
9:32.889,206240,),0,0,1
9:32.969,206269,t,0,0,2
9:33.047,206297,),0,0,2
9:33.094,206314,(,0,0,1
9:33.264,206375,N,0,0,0
9:33.328,206398,),0,0,1
9:33.333,206400,(,0,0,2
9:33.383,206418,t,0,0,1
9:33.500,206460,),0,0,2
9:33.531,206471,(,0,0,0
9:33.575,206487,p,0,0,0
9:33.625,206505,),0,0,0
9:33.692,206529,(,0,0,1
9:33.733,206544,N,0,0,0
9:33.772,206558,),0,0,1
9:33.989,206636,(,0,0,1
9:34.119,206683,N,0,0,0
9:34.128,206686,),0,0,1
9:34.189,206708,t,0,0,3
9:34.325,206757,),0,0,2
9:34.464,206807,(,0,0,0
9:34.500,206820,p,0,0,0
9:34.547,206837,),0,0,0
9:34.606,206858,(,0,0,1
9:34.650,206874,N,0,0,0
9:34.694,206890,),0,0,1
9:34.833,206940,t,0,0,2
9:34.908,206967,),0,0,2
9:34.961,206986,(,0,0,1
9:35.083,207030,N,0,0,0
9:35.100,207036,),0,0,1
9:35.103,207037,t,0,0,3
9:35.297,207107,),0,0,2
9:35.369,207133,(,0,0,0
9:35.408,207147,p,0,0,0
9:35.450,207162,),0,0,0
9:35.542,207195,(,0,0,1
9:35.558,207201,N,0,0,0
9:35.603,207217,),0,0,1
9:35.714,207257,t,0,0,2
9:35.786,207283,),0,0,2
9:35.856,207308,(,0,0,1
9:35.978,207352,N,0,0,0
9:36.014,207365,),0,0,1
9:36.017,207366,t,0,0,3
9:36.158,207417,),0,0,2
9:36.219,207439,(,0,0,0
9:36.258,207453,p,0,0,0
9:36.306,207470,),0,0,0
9:36.372,207494,(,0,0,1
9:36.414,207509,N,0,0,0
9:36.461,207526,),0,0,1
9:36.683,207606,(,0,0,2
9:36.825,207657,t,0,0,0
9:37.053,207739,),0,0,2
9:37.153,207775,(,0,0,0
9:37.194,207790,p,0,0,0
9:37.244,207808,),0,0,0
9:37.311,207832,(,0,0,1
9:37.344,207844,N,0,0,0
9:37.400,207864,),0,0,1
9:38.069,208105,(,0,0,0
9:38.111,208120,p,0,0,0
9:38.156,208136,),0,0,0
9:38.236,208165,(,0,0,1
9:38.250,208170,N,0,0,0
9:38.272,208178,),0,0,1
9:38.517,208266,t,0,0,2
9:38.656,208316,),0,0,2
9:38.892,208401,(,0,0,0
9:38.925,208413,p,0,0,0
9:38.975,208431,),0,0,0
9:39.044,208456,(,0,0,1
9:39.089,208472,N,0,0,0
9:39.133,208488,),0,0,1
9:39.358,208569,(,0,0,2
9:39.478,208612,t,0,0,0
9:39.758,208713,),0,0,2
9:39.797,208727,(,0,0,0
9:39.844,208744,p,0,0,0
9:39.894,208762,),0,0,0
9:39.956,208784,(,0,0,1
9:40.003,208801,N,0,0,0
9:40.086,208831,),0,0,1
9:40.289,208904,t,0,0,2
9:40.425,208953,),0,0,2
9:40.775,209079,(,0,0,0
9:40.817,209094,p,0,0,0
9:40.864,209111,),0,0,0
9:40.925,209133,(,0,0,1
9:40.967,209148,N,0,0,0
9:41.011,209164,),0,0,1
9:41.150,209214,t,0,0,2
9:41.211,209236,),0,0,2
9:41.389,209300,(,0,0,1
9:41.422,209312,N,0,0,0
9:41.439,209318,),0,0,1
9:41.519,209347,(,0,0,2
9:41.617,209382,t,0,0,1
9:41.681,209405,),0,0,2
9:41.819,209455,(,0,0,1
9:41.836,209461,N,0,0,0
9:41.881,209477,),0,0,1
9:42.228,209602,(,0,0,1
9:42.247,209609,N,0,0,0
9:42.267,209616,),0,0,1
9:42.322,209636,t,0,0,3
9:42.492,209697,),0,0,2
9:42.575,209727,(,0,0,0
9:42.617,209742,p,0,0,0
9:42.667,209760,),0,0,0
9:42.739,209786,(,0,0,1
9:42.781,209801,N,0,0,0
9:42.808,209811,),0,0,1
9:43.189,209948,(,0,0,1
9:43.256,209972,N,0,0,0
9:43.286,209983,),0,0,1
9:43.406,210026,(,0,0,2
9:43.478,210052,t,0,0,1
9:43.583,210090,),0,0,2
9:43.719,210139,(,0,0,1
9:43.733,210144,N,0,0,0
9:43.764,210155,),0,0,1
9:44.125,210285,(,0,0,1
9:44.150,210294,N,0,0,0
9:44.169,210301,),0,0,1
9:44.175,210303,(,0,0,2
9:44.372,210374,t,0,0,1
9:44.442,210399,),0,0,2
9:44.561,210442,(,0,0,1
9:44.606,210458,N,0,0,0
9:44.653,210475,),0,0,1
9:44.769,210517,t,0,0,2
9:44.847,210545,),0,0,2
9:45.014,210605,(,0,0,1
9:45.056,210620,N,0,0,0
9:45.072,210626,),0,0,1
9:45.356,210728,(,0,0,0
9:45.392,210741,p,0,0,0
9:45.442,210759,),0,0,0
9:45.508,210783,(,0,0,1
9:45.547,210797,N,0,0,0
9:45.586,210811,),0,0,1
9:45.719,210859,t,0,0,2
9:45.789,210884,),0,0,2
9:45.853,210907,(,0,0,1
9:45.953,210943,N,0,0,0
9:45.972,210950,),0,0,1
9:45.975,210951,t,0,0,3
9:46.161,211018,),0,0,2
9:46.317,211074,(,0,0,0
9:46.358,211089,p,0,0,0
9:46.406,211106,),0,0,0
9:46.467,211128,(,0,0,1
9:46.508,211143,N,0,0,0
9:46.547,211157,),0,0,1
9:46.689,211208,t,0,0,2
9:46.781,211241,),0,0,2
9:46.797,211247,(,0,0,1
9:46.914,211289,N,0,0,0
9:46.933,211296,),0,0,1
9:46.981,211313,t,0,0,3
9:47.128,211366,),0,0,2
9:47.200,211392,(,0,0,0
9:47.244,211408,p,0,0,0
9:47.286,211423,),0,0,0
9:47.353,211447,(,0,0,1
9:47.392,211461,N,0,0,0
9:47.414,211469,),0,0,1
9:47.628,211546,(,0,0,2
9:47.811,211612,t,0,0,0
9:48.056,211700,),0,0,2
9:48.114,211721,(,0,0,0
9:48.153,211735,p,0,0,0
9:48.203,211753,),0,0,0
9:48.275,211779,(,0,0,1
9:48.317,211794,N,0,0,0
9:48.347,211805,),0,0,1
9:48.600,211896,(,0,0,2
9:48.700,211932,t,0,0,0
9:48.906,212006,),0,0,2
9:49.103,212077,(,0,0,0
9:49.144,212092,p,0,0,0
9:49.189,212108,),0,0,0
9:49.250,212130,(,0,0,1
9:49.289,212144,N,0,0,0
9:49.325,212157,),0,0,1
9:49.658,212277,(,0,0,1
9:49.736,212305,N,0,0,0
9:49.764,212315,),0,0,1
9:49.869,212353,(,0,0,2
9:49.933,212376,t,0,0,1
9:50.000,212400,),0,0,2
9:50.031,212411,(,0,0,0
9:50.086,212431,p,0,0,0
9:50.128,212446,),0,0,0
9:50.228,212482,(,0,0,1
9:50.244,212488,N,0,0,0
9:50.292,212505,),0,0,1
9:50.597,212615,(,0,0,1
9:50.625,212625,N,0,0,0
9:50.639,212630,),0,0,1
9:50.678,212644,t,0,0,3
9:50.842,212703,),0,0,2
9:50.961,212746,(,0,0,0
9:51.003,212761,p,0,0,0
9:51.053,212779,),0,0,0
9:51.119,212803,(,0,0,1
9:51.161,212818,N,0,0,0
9:51.203,212833,),0,0,1
9:51.294,212866,t,0,0,2
9:51.378,212896,),0,0,2
9:51.461,212926,(,0,0,1
9:51.556,212960,N,0,0,0
9:51.592,212973,),0,0,1
9:51.661,212998,t,0,0,3
9:51.772,213038,),0,0,2
9:52.033,213132,(,0,0,0
9:52.072,213146,p,0,0,0
9:52.122,213164,),0,0,0
9:52.192,213189,(,0,0,1
9:52.236,213205,N,0,0,0
9:52.319,213235,),0,0,1
9:52.650,213354,(,0,0,1
9:52.700,213372,N,0,0,0
9:52.728,213382,),0,0,1
9:53.028,213490,(,0,0,0
9:53.081,213509,p,0,0,0
9:53.131,213527,),0,0,0
9:53.225,213561,(,0,0,1
9:53.242,213567,N,0,0,0
9:53.289,213584,),0,0,1
9:53.631,213707,(,0,0,1
9:53.650,213714,N,0,0,0
9:53.669,213721,),0,0,1
9:53.711,213736,t,0,0,3
9:53.914,213809,),0,0,2
9:54.031,213851,(,0,0,0
9:54.069,213865,p,0,0,0
9:54.117,213882,),0,0,0
9:54.181,213905,(,0,0,1
9:54.222,213920,N,0,0,0
9:54.264,213935,),0,0,1
9:54.417,213990,t,0,0,2
9:54.486,214015,),0,0,2
9:54.597,214055,(,0,0,1
9:54.619,214063,N,0,0,0
9:54.661,214078,),0,0,1
9:54.717,214098,(,0,0,2
9:54.944,214180,t,0,0,1
9:54.989,214196,),0,0,2
9:55.039,214214,(,0,0,0
9:55.089,214232,p,0,0,0
9:55.136,214249,),0,0,0
9:55.208,214275,(,0,0,1
9:55.247,214289,N,0,0,0
9:55.283,214302,),0,0,1
9:55.389,214340,t,0,0,2
9:55.483,214374,),0,0,2
9:55.525,214389,(,0,0,1
9:55.625,214425,N,0,0,0
9:55.683,214446,),0,0,1
9:56.067,214584,(,0,0,0
9:56.097,214595,p,0,0,0
9:56.144,214612,),0,0,0
9:56.236,214645,(,0,0,1
9:56.253,214651,N,0,0,0
9:56.275,214659,),0,0,1
9:56.528,214750,(,0,0,1
9:56.656,214796,N,0,0,0
9:56.675,214803,),0,0,1
9:56.739,214826,t,0,0,3
9:56.903,214885,),0,0,2
9:57.281,215021,(,0,0,0
9:57.319,215035,p,0,0,0
9:57.356,215048,),0,0,0
9:57.494,215098,(,0,0,1
9:57.656,215156,N,0,0,0
9:57.697,215171,),0,0,1
9:57.700,215172,t,0,0,3
9:57.861,215230,),0,0,2
9:58.131,215327,(,0,0,0
9:58.172,215342,p,0,0,0
9:58.217,215358,),0,0,0
9:58.283,215382,(,0,0,1
9:58.322,215396,N,0,0,0
9:58.367,215412,),0,0,1
9:58.436,215437,t,0,0,2
9:58.553,215479,),0,0,2
9:58.561,215482,(,0,0,1
9:58.717,215538,N,0,0,0
9:58.750,215550,),0,0,1
9:58.794,215566,t,0,0,3
9:58.936,215617,),0,0,2
9:59.122,215684,(,0,0,0
9:59.172,215702,p,0,0,0
9:59.222,215720,),0,0,0
9:59.319,215755,(,0,0,1
9:59.336,215761,N,0,0,0
9:59.358,215769,),0,0,1
9:59.675,215883,(,0,0,1
9:59.719,215899,N,0,0,0
9:59.742,215907,),0,0,1
9:59.783,215922,t,0,0,3
9:59.967,215988,),0,0,2
10:00.103,216037,(,0,0,0
10:00.142,216051,p,0,0,0
10:00.189,216068,),0,0,0
10:00.250,216090,(,0,0,1
10:00.267,216096,(,0,0,0
10:00.289,216104,p,0,0,0
10:00.292,216105,N,0,0,0
10:00.319,216115,),0,0,0
10:00.328,216118,),0,0,1
10:00.428,216154,(,0,0,1
10:00.656,216236,N,0,0,0
10:00.717,216258,),0,0,1
10:00.719,216259,t,0,0,3
10:00.942,216339,),0,0,2
10:01.031,216371,(,0,0,0
10:01.078,216388,p,0,0,0
10:01.125,216405,),0,0,0
10:01.192,216429,(,0,0,1
10:01.233,216444,N,0,0,0
10:01.281,216461,),0,0,1
10:01.389,216500,t,0,0,2
10:01.472,216530,),0,0,2
10:01.497,216539,(,0,0,1
10:01.619,216583,N,0,0,0
10:01.658,216597,),0,0,1
10:01.661,216598,t,0,0,3
10:01.836,216661,),0,0,2
10:02.003,216721,(,0,0,0
10:02.044,216736,p,0,0,0
10:02.100,216756,),0,0,0
10:02.183,216786,(,0,0,1
10:02.200,216792,N,0,0,0
10:02.242,216807,),0,0,1
10:02.478,216892,(,0,0,1
10:02.589,216932,N,0,0,0
10:02.631,216947,),0,0,1
10:02.633,216948,t,0,0,3
10:02.842,217023,),0,0,2
10:02.944,217060,(,0,0,0
10:02.983,217074,p,0,0,0
10:03.031,217091,),0,0,0
10:03.092,217113,(,0,0,1
10:03.108,217119,(,0,0,0
10:03.133,217128,p,0,0,0
10:03.164,217139,),0,0,0
10:03.172,217142,),0,0,1
10:03.292,217185,(,0,0,1
10:03.514,217265,N,0,0,0
10:03.544,217276,),0,0,1
10:03.553,217279,t,0,0,3
10:03.764,217355,),0,0,2
10:03.931,217415,(,0,0,0
10:03.972,217430,p,0,0,0
10:04.019,217447,),0,0,0
10:04.089,217472,(,0,0,1
10:04.133,217488,N,0,0,0
10:04.181,217505,),0,0,1
10:04.264,217535,t,0,0,2
10:04.372,217574,),0,0,2
10:04.375,217575,(,0,0,1
10:04.542,217635,N,0,0,0
10:04.575,217647,),0,0,1
10:04.672,217682,t,0,0,3
10:04.797,217727,),0,0,2
10:04.964,217787,(,0,0,0
10:05.003,217801,p,0,0,0
10:05.053,217819,),0,0,0
10:05.144,217852,(,0,0,1
10:05.158,217857,N,0,0,0
10:05.181,217865,),0,0,1
10:05.431,217955,(,0,0,1
10:05.531,217991,N,0,0,0
10:05.539,217994,),0,0,1
10:05.650,218034,t,0,0,3
10:05.778,218080,),0,0,2
10:05.922,218132,(,0,0,0
10:05.964,218147,p,0,0,0
10:06.008,218163,),0,0,0
10:06.072,218186,(,0,0,1
10:06.089,218192,(,0,0,0
10:06.114,218201,p,0,0,0
10:06.144,218212,),0,0,0
10:06.161,218218,),0,0,1
10:06.272,218258,(,0,0,1
10:06.489,218336,N,0,0,0
10:06.533,218352,),0,0,1
10:06.944,218500,(,0,0,0
10:06.992,218517,p,0,0,0
10:07.039,218534,),0,0,0
10:07.103,218557,(,0,0,1
10:07.144,218572,N,0,0,0
10:07.181,218585,),0,0,1
10:07.283,218622,t,0,0,2
10:07.356,218648,),0,0,2
10:07.358,218649,(,0,0,1
10:07.525,218709,N,0,0,0
10:07.567,218724,),0,0,1
10:07.642,218751,(,0,0,2
10:07.800,218808,t,0,0,1
10:07.814,218813,),0,0,2
10:07.978,218872,(,0,0,0
10:08.017,218886,p,0,0,0
10:08.067,218904,),0,0,0
10:08.164,218939,(,0,0,1
10:08.181,218945,N,0,0,0
10:08.203,218953,),0,0,1
10:08.464,219047,(,0,0,1
10:08.561,219082,N,0,0,0
10:08.617,219102,),0,0,1
10:08.619,219103,t,0,0,3
10:08.822,219176,),0,0,2
10:08.978,219232,(,0,0,0
10:09.028,219250,p,0,0,0
10:09.078,219268,),0,0,0
10:09.139,219290,(,0,0,1
10:09.181,219305,N,0,0,0
10:09.219,219319,),0,0,1
10:09.547,219437,(,0,0,1
10:09.556,219440,N,0,0,0
10:09.672,219482,),0,0,1
10:09.689,219488,(,0,0,2
10:09.897,219563,t,0,0,1
10:09.922,219572,),0,0,2
10:09.978,219592,(,0,0,0
10:10.028,219610,p,0,0,0
10:10.081,219629,),0,0,0
10:10.150,219654,(,0,0,1
10:10.192,219669,N,0,0,0
10:10.214,219677,),0,0,1
10:10.353,219727,t,0,0,2
10:10.425,219753,),0,0,2
10:10.428,219754,(,0,0,1
10:10.597,219815,N,0,0,0
10:10.631,219827,),0,0,1
10:10.719,219859,t,0,0,3
10:10.803,219889,),0,0,2
10:10.997,219959,(,0,0,0
10:11.033,219972,p,0,0,0
10:11.081,219989,),0,0,0
10:11.178,220024,(,0,0,1
10:11.186,220027,N,0,0,0
10:11.192,220029,(,0,0,0
10:11.239,220046,p,0,0,0
10:11.239,220046,),0,0,1
10:11.278,220060,),0,0,0
10:11.436,220117,(,0,0,1
10:11.561,220162,N,0,0,0
10:11.600,220176,),0,0,1
10:11.656,220196,t,0,0,3
10:11.811,220252,),0,0,2
10:11.922,220292,(,0,0,0
10:11.969,220309,p,0,0,0
10:12.014,220325,),0,0,0
10:12.075,220347,(,0,0,1
10:12.122,220364,N,0,0,0
10:12.161,220378,),0,0,1
10:12.267,220416,t,0,0,2
10:12.358,220449,),0,0,2
10:12.361,220450,(,0,0,1
10:12.497,220499,N,0,0,0
10:12.539,220514,),0,0,1
10:12.644,220552,t,0,0,3
10:12.753,220591,),0,0,2
10:12.897,220643,(,0,0,0
10:12.942,220659,p,0,0,0
10:12.989,220676,),0,0,0
10:13.058,220701,(,0,0,1
10:13.106,220718,N,0,0,0
10:13.153,220735,),0,0,1
10:13.269,220777,t,0,0,2
10:13.361,220810,),0,0,2
10:13.469,220849,(,0,0,1
10:13.492,220857,N,0,0,0
10:13.519,220867,),0,0,1
10:13.606,220898,t,0,0,3
10:13.697,220931,),0,0,2
10:13.897,221003,(,0,0,0
10:13.936,221017,p,0,0,0
10:13.978,221032,),0,0,0
10:14.072,221066,(,0,0,1
10:14.089,221072,N,0,0,0
10:14.133,221088,),0,0,1
10:14.375,221175,(,0,0,1
10:14.458,221205,N,0,0,0
10:14.500,221220,),0,0,1
10:14.575,221247,t,0,0,3
10:14.711,221296,),0,0,2
10:14.803,221329,(,0,0,0
10:14.847,221345,p,0,0,0
10:14.892,221361,),0,0,0
10:14.958,221385,(,0,0,1
10:14.994,221398,(,0,0,0
10:14.997,221399,N,0,0,0
10:15.033,221412,),0,0,1
10:15.042,221415,p,0,0,0
10:15.075,221427,),0,0,0
10:15.239,221486,(,0,0,1
10:15.364,221531,N,0,0,0
10:15.406,221546,),0,0,1
10:15.489,221576,t,0,0,3
10:15.636,221629,),0,0,2
10:15.767,221676,(,0,0,0
10:15.814,221693,p,0,0,0
10:15.864,221711,),0,0,0
10:15.936,221737,(,0,0,1
10:15.983,221754,N,0,0,0
10:16.069,221785,),0,0,1
10:16.161,221818,t,0,0,2
10:16.253,221851,),0,0,2
10:16.272,221858,(,0,0,1
10:16.364,221891,N,0,0,0
10:16.406,221906,),0,0,1
10:16.761,222034,(,0,0,0
10:16.797,222047,p,0,0,0
10:16.844,222064,),0,0,0
10:16.928,222094,(,0,0,0
10:16.936,222097,(,0,0,1
10:16.950,222102,p,0,0,0
10:16.953,222103,N,0,0,0
10:16.981,222113,),0,0,0
10:16.997,222119,),0,0,1
10:17.106,222158,(,0,0,1
10:17.319,222235,N,0,0,0
10:17.356,222248,),0,0,1
10:17.642,222351,(,0,0,0
10:17.694,222370,p,0,0,0
10:17.744,222388,),0,0,0
10:17.831,222419,(,0,0,1
10:17.847,222425,N,0,0,0
10:17.853,222427,(,0,0,0
10:17.867,222432,),0,0,1
10:17.892,222441,p,0,0,0
10:17.931,222455,),0,0,0
10:18.067,222504,(,0,0,1
10:18.225,222561,N,0,0,0
10:18.311,222592,),0,0,1
10:18.375,222615,t,0,0,3
10:18.461,222646,),0,0,2
10:18.622,222704,(,0,0,0
10:18.667,222720,p,0,0,0
10:18.714,222737,),0,0,0
10:18.786,222763,(,0,0,1
10:18.831,222779,N,0,0,0
10:18.869,222793,),0,0,1
10:18.892,222801,t,0,0,2
10:19.028,222850,),0,0,2
10:19.031,222851,(,0,0,1
10:19.214,222917,N,0,0,0
10:19.381,222977,),0,0,1
10:19.486,223015,(,0,0,2
10:19.556,223040,t,0,0,1
10:19.603,223057,),0,0,2
10:19.642,223071,(,0,0,0
10:19.678,223084,p,0,0,0
10:19.725,223101,),0,0,0
10:19.811,223132,(,0,0,1
10:19.825,223137,N,0,0,0
10:19.872,223154,),0,0,1
10:20.078,223228,(,0,0,1
10:20.203,223273,N,0,0,0
10:20.256,223292,),0,0,1
10:20.333,223320,t,0,0,3
10:20.450,223362,),0,0,2
10:20.536,223393,(,0,0,0
10:20.575,223407,p,0,0,0
10:20.619,223423,),0,0,0
10:20.683,223446,(,0,0,1
10:20.700,223452,(,0,0,0
10:20.722,223460,p,0,0,0
10:20.725,223461,N,0,0,0
10:20.756,223472,),0,0,0
10:20.764,223475,),0,0,1
10:20.875,223515,(,0,0,1
10:21.094,223594,N,0,0,0
10:21.136,223609,),0,0,1
10:21.214,223637,(,0,0,2
10:21.236,223645,t,0,0,0
10:21.375,223695,),0,0,2
10:21.514,223745,(,0,0,0
10:21.558,223761,p,0,0,0
10:21.606,223778,),0,0,0
10:21.672,223802,(,0,0,1
10:21.692,223809,(,0,0,0
10:21.717,223818,p,0,0,0
10:21.750,223830,),0,0,0
10:21.758,223833,),0,0,1
10:21.881,223877,(,0,0,1
10:22.089,223952,N,0,0,0
10:22.139,223970,),0,0,1
10:22.219,223999,(,0,0,2
10:22.233,224004,t,0,0,0
10:22.306,224030,),0,0,2
10:22.475,224091,(,0,0,0
10:22.511,224104,p,0,0,0
10:22.561,224122,),0,0,0
10:22.644,224152,(,0,0,1
10:22.658,224157,N,0,0,0
10:22.703,224173,),0,0,1
10:22.906,224246,(,0,0,1
10:23.028,224290,N,0,0,0
10:23.183,224346,),0,0,1
10:23.211,224356,(,0,0,2
10:23.258,224373,t,0,0,1
10:23.306,224390,),0,0,2
10:23.339,224402,(,0,0,0
10:23.381,224417,p,0,0,0
10:23.431,224435,),0,0,0
10:23.500,224460,(,0,0,1
10:23.517,224466,(,0,0,0
10:23.542,224475,p,0,0,0
10:23.572,224486,),0,0,0
10:23.589,224492,),0,0,1
10:23.711,224536,(,0,0,1
10:23.900,224604,N,0,0,0
10:23.986,224635,),0,0,1
10:24.306,224750,(,0,0,0
10:24.344,224764,p,0,0,0
10:24.394,224782,),0,0,0
10:24.461,224806,(,0,0,1
10:24.500,224820,N,0,0,0
10:24.542,224835,),0,0,1
10:24.636,224869,t,0,0,2
10:24.728,224902,),0,0,2
10:24.731,224903,(,0,0,1
10:24.869,224953,N,0,0,0
10:24.908,224967,),0,0,1
10:25.022,225008,t,0,0,3
10:25.108,225039,),0,0,2
10:25.244,225088,(,0,0,0
10:25.278,225100,p,0,0,0
10:25.325,225117,),0,0,0
10:25.392,225141,(,0,0,1
10:25.433,225156,N,0,0,0
10:25.478,225172,),0,0,1
10:25.569,225205,t,0,0,2
10:25.633,225228,),0,0,2
10:25.644,225232,(,0,0,1
10:25.819,225295,N,0,0,0
10:25.853,225307,),0,0,1
10:25.939,225338,(,0,0,2
10:26.006,225362,t,0,0,1
10:26.078,225388,),0,0,2
10:26.111,225400,(,0,0,0
10:26.153,225415,p,0,0,0
10:26.197,225431,),0,0,0
10:26.261,225454,(,0,0,1
10:26.278,225460,(,0,0,0
10:26.303,225469,p,0,0,0
10:26.333,225480,),0,0,0
10:26.350,225486,),0,0,1
10:26.478,225532,(,0,0,1
10:26.672,225602,N,0,0,0
10:26.725,225621,),0,0,1
10:26.783,225642,(,0,0,2
10:26.828,225658,t,0,0,0
10:26.950,225702,),0,0,2
10:27.081,225749,(,0,0,0
10:27.128,225766,p,0,0,0
10:27.178,225784,),0,0,0
10:27.264,225815,(,0,0,0
10:27.272,225818,(,0,0,1
10:27.286,225823,p,0,0,0
10:27.289,225824,N,0,0,0
10:27.317,225834,),0,0,0
10:27.325,225837,),0,0,1
10:27.442,225879,(,0,0,1
10:27.661,225958,N,0,0,0
10:27.706,225974,),0,0,1
10:27.808,226011,t,0,0,3
10:27.922,226052,),0,0,2
10:28.064,226103,(,0,0,0
10:28.106,226118,p,0,0,0
10:28.150,226134,),0,0,0
10:28.242,226167,(,0,0,1
10:28.256,226172,N,0,0,0
10:28.286,226183,),0,0,1
10:28.508,226263,(,0,0,1
10:28.633,226308,N,0,0,0
10:28.661,226318,),0,0,1
10:28.850,226386,(,0,0,2
10:28.883,226398,t,0,0,1
10:28.917,226410,),0,0,2
10:28.967,226428,(,0,0,0
10:29.006,226442,p,0,0,0
10:29.053,226459,),0,0,0
10:29.128,226486,(,0,0,1
10:29.169,226501,N,0,0,0
10:29.175,226503,(,0,0,0
10:29.192,226509,),0,0,1
10:29.217,226518,p,0,0,0
10:29.258,226533,),0,0,0
10:29.378,226576,(,0,0,1
10:29.531,226631,N,0,0,0
10:29.575,226647,),0,0,1
10:29.656,226676,t,0,0,3
10:29.775,226719,),0,0,2
10:29.897,226763,(,0,0,0
10:29.936,226777,p,0,0,0
10:29.986,226795,),0,0,0
10:30.053,226819,(,0,0,1
10:30.069,226825,(,0,0,0
10:30.094,226834,p,0,0,0
10:30.125,226845,),0,0,0
10:30.175,226863,),0,0,1
10:30.242,226887,(,0,0,1
10:30.472,226970,N,0,0,0
10:30.531,226991,),0,0,1
10:30.869,227113,(,0,0,0
10:30.908,227127,p,0,0,0
10:30.956,227144,),0,0,0
10:31.019,227167,(,0,0,1
10:31.061,227182,N,0,0,0
10:31.103,227197,),0,0,1
10:31.217,227238,t,0,0,2
10:31.294,227266,),0,0,2
10:31.378,227296,(,0,0,1
10:31.433,227316,N,0,0,0
10:31.478,227332,),0,0,1
10:31.486,227335,t,0,0,3
10:31.683,227406,),0,0,2
10:31.794,227446,(,0,0,0
10:31.842,227463,p,0,0,0
10:31.894,227482,),0,0,0
10:31.978,227512,(,0,0,1
10:31.994,227518,N,0,0,0
10:32.044,227536,),0,0,1
10:32.275,227619,(,0,0,1
10:32.378,227656,N,0,0,0
10:32.439,227678,),0,0,1
10:32.506,227702,t,0,0,3
10:32.650,227754,),0,0,2
10:32.706,227774,(,0,0,0
10:32.742,227787,p,0,0,0
10:32.792,227805,),0,0,0
10:32.861,227830,(,0,0,1
10:32.900,227844,N,0,0,0
10:32.939,227858,),0,0,1
10:33.083,227910,(,0,0,2
10:33.258,227973,t,0,0,0
10:33.358,228009,),0,0,2
10:33.642,228111,(,0,0,0
10:33.683,228126,p,0,0,0
10:33.728,228142,),0,0,0
10:33.789,228164,(,0,0,1
10:33.828,228178,N,0,0,0
10:33.864,228191,),0,0,1
10:34.011,228244,(,0,0,2
10:34.189,228308,t,0,0,0
10:34.294,228346,),0,0,2
10:34.500,228420,(,0,0,0
10:34.550,228438,p,0,0,0
10:34.594,228454,),0,0,0
10:34.669,228481,(,0,0,1
10:34.711,228496,N,0,0,0
10:34.733,228504,),0,0,1
10:34.975,228591,(,0,0,1
10:35.069,228625,N,0,0,0
10:35.256,228692,),0,0,1
10:35.297,228707,(,0,0,2
10:35.347,228725,t,0,0,1
10:35.400,228744,),0,0,2
10:35.544,228796,(,0,0,1
10:35.561,228802,N,0,0,0
10:35.597,228815,),0,0,1
10:35.744,228868,(,0,0,2
10:35.922,228932,t,0,0,0
10:36.028,228970,),0,0,2
10:36.281,229061,(,0,0,0
10:36.319,229075,p,0,0,0
10:36.364,229091,),0,0,0
10:36.428,229114,(,0,0,1
10:36.442,229119,(,0,0,0
10:36.467,229128,p,0,0,0
10:36.497,229139,),0,0,0
10:36.506,229142,),0,0,1
10:36.614,229181,(,0,0,1
10:36.831,229259,N,0,0,0
10:36.925,229293,),0,0,1
10:37.192,229389,(,0,0,0
10:37.233,229404,p,0,0,0
10:37.281,229421,),0,0,0
10:37.344,229444,(,0,0,1
10:37.361,229450,(,0,0,0
10:37.386,229459,p,0,0,0
10:37.417,229470,),0,0,0
10:37.475,229491,),0,0,1
10:37.511,229504,(,0,0,1
10:37.761,229594,N,0,0,0
10:37.808,229611,),0,0,1
10:38.114,229721,(,0,0,0
10:38.150,229734,p,0,0,0
10:38.194,229750,),0,0,0
10:38.267,229776,(,0,0,1
10:38.311,229792,N,0,0,0
10:38.317,229794,(,0,0,0
10:38.356,229808,p,0,0,0
10:38.356,229808,),0,0,1
10:38.394,229822,),0,0,0
10:38.511,229864,(,0,0,1
10:38.672,229922,N,0,0,0
10:38.717,229938,),0,0,1
10:38.794,229966,t,0,0,3
10:38.969,230029,),0,0,2
10:39.011,230044,(,0,0,0
10:39.047,230057,p,0,0,0
10:39.097,230075,),0,0,0
10:39.164,230099,(,0,0,1
10:39.178,230104,(,0,0,0
10:39.203,230113,p,0,0,0
10:39.233,230124,),0,0,0
10:39.242,230127,),0,0,1
10:39.353,230167,(,0,0,1
10:39.544,230236,N,0,0,0
10:39.594,230254,),0,0,1
10:39.672,230282,(,0,0,2
10:39.706,230294,t,0,0,0
10:39.831,230339,),0,0,2
10:40.017,230406,(,0,0,0
10:40.061,230422,p,0,0,0
10:40.111,230440,),0,0,0
10:40.181,230465,(,0,0,1
10:40.197,230471,(,0,0,0
10:40.222,230480,p,0,0,0
10:40.225,230481,N,0,0,0
10:40.256,230492,),0,0,0
10:40.258,230493,),0,0,1
10:40.414,230549,(,0,0,1
10:40.581,230609,N,0,0,0
10:40.642,230631,),0,0,1
10:40.992,230757,(,0,0,0
10:41.044,230776,p,0,0,0
10:41.092,230793,),0,0,0
10:41.183,230826,(,0,0,1
10:41.200,230832,N,0,0,0
10:41.219,230839,),0,0,1
10:41.481,230933,(,0,0,1
10:41.581,230969,N,0,0,0
10:41.631,230987,),0,0,1
10:41.708,231015,(,0,0,2
10:41.733,231024,t,0,0,0
10:41.822,231056,),0,0,2
10:41.922,231092,(,0,0,0
10:41.964,231107,p,0,0,0
10:42.008,231123,),0,0,0
10:42.075,231147,(,0,0,1
10:42.094,231154,(,0,0,0
10:42.117,231162,p,0,0,0
10:42.119,231163,N,0,0,0
10:42.150,231174,),0,0,0
10:42.156,231176,),0,0,1
10:42.286,231223,(,0,0,1
10:42.472,231290,N,0,0,0
10:42.561,231322,),0,0,1
10:42.594,231334,(,0,0,2
10:42.636,231349,t,0,0,0
10:42.717,231378,),0,0,2
10:42.969,231469,(,0,0,0
10:43.011,231484,p,0,0,0
10:43.058,231501,),0,0,0
10:43.128,231526,(,0,0,1
10:43.169,231541,N,0,0,0
10:43.200,231552,),0,0,1
10:43.233,231564,t,0,0,2
10:43.342,231603,),0,0,2
10:43.353,231607,(,0,0,1
10:43.544,231676,N,0,0,0
10:43.603,231697,),0,0,1
10:44.047,231857,(,0,0,0
10:44.086,231871,p,0,0,0
10:44.128,231886,),0,0,0
10:44.200,231912,(,0,0,1
10:44.239,231926,N,0,0,0
10:44.261,231934,),0,0,1
10:44.392,231981,t,0,0,2
10:44.467,232008,),0,0,2
10:44.528,232030,(,0,0,1
10:44.611,232060,N,0,0,0
10:44.650,232074,),0,0,1
10:44.956,232184,(,0,0,0
10:45.003,232201,p,0,0,0
10:45.053,232219,),0,0,0
10:45.119,232243,(,0,0,1
10:45.142,232251,(,0,0,0
10:45.164,232259,p,0,0,0
10:45.167,232260,N,0,0,0
10:45.197,232271,),0,0,0
10:45.206,232274,),0,0,1
10:45.317,232314,(,0,0,1
10:45.511,232384,N,0,0,0
10:45.567,232404,),0,0,1
10:45.628,232426,(,0,0,2
10:45.678,232444,t,0,0,0
10:45.819,232495,),0,0,2
10:45.953,232543,(,0,0,0
10:45.994,232558,p,0,0,0
10:46.044,232576,),0,0,0
10:46.106,232598,(,0,0,1
10:46.119,232603,(,0,0,0
10:46.142,232611,p,0,0,0
10:46.144,232612,N,0,0,0
10:46.175,232623,),0,0,0
10:46.183,232626,),0,0,1
10:46.317,232674,(,0,0,1
10:46.511,232744,N,0,0,0
10:46.569,232765,),0,0,1
10:46.942,232899,(,0,0,0
10:46.978,232912,p,0,0,0
10:47.019,232927,),0,0,0
10:47.100,232956,(,0,0,1
10:47.117,232962,(,0,0,0
10:47.139,232970,p,0,0,0
10:47.161,232978,),0,0,1
10:47.172,232982,),0,0,0
10:47.192,232989,(,0,0,1
10:47.500,233100,N,0,0,0
10:47.547,233117,),0,0,1
10:47.853,233227,(,0,0,0
10:47.897,233243,p,0,0,0
10:47.944,233260,),0,0,0
10:48.006,233282,(,0,0,1
10:48.022,233288,(,0,0,0
10:48.044,233296,p,0,0,0
10:48.047,233297,N,0,0,0
10:48.078,233308,),0,0,0
10:48.086,233311,),0,0,1
10:48.222,233360,(,0,0,1
10:48.403,233425,N,0,0,0
10:48.447,233441,),0,0,1
10:48.519,233467,(,0,0,2
10:48.561,233482,t,0,0,0
10:48.653,233515,),0,0,2
10:48.819,233575,(,0,0,0
10:48.864,233591,p,0,0,0
10:48.914,233609,),0,0,0
10:48.978,233632,(,0,0,1
10:49.022,233648,N,0,0,0
10:49.069,233665,),0,0,1
10:49.089,233672,t,0,0,2
10:49.169,233701,),0,0,2
10:49.219,233719,(,0,0,1
10:49.411,233788,N,0,0,0
10:49.472,233810,),0,0,1
10:49.836,233941,(,0,0,0
10:49.869,233953,p,0,0,0
10:49.911,233968,),0,0,0
10:49.978,233992,(,0,0,1
10:50.000,234000,(,0,0,0
10:50.025,234009,p,0,0,0
10:50.056,234020,),0,0,0
10:50.072,234026,),0,0,1
10:50.178,234064,(,0,0,1
10:50.372,234134,N,0,0,0
10:50.417,234150,),0,0,1
10:50.483,234174,(,0,0,2
10:50.514,234185,t,0,0,0
10:50.617,234222,),0,0,2
10:50.722,234260,(,0,0,0
10:50.761,234274,p,0,0,0
10:50.806,234290,),0,0,0
10:50.872,234314,(,0,0,1
10:50.889,234320,(,0,0,0
10:50.911,234328,p,0,0,0
10:50.914,234329,N,0,0,0
10:50.944,234340,),0,0,0
10:50.958,234345,),0,0,1
10:51.089,234392,(,0,0,1
10:51.275,234459,N,0,0,0
10:51.317,234474,),0,0,1
10:51.397,234503,(,0,0,2
10:51.439,234518,t,0,0,0
10:51.581,234569,),0,0,2
10:51.672,234602,(,0,0,0
10:51.711,234616,p,0,0,0
10:51.761,234634,),0,0,0
10:51.831,234659,(,0,0,1
10:51.847,234665,(,0,0,0
10:51.872,234674,p,0,0,0
10:51.875,234675,N,0,0,0
10:51.906,234686,),0,0,0
10:51.922,234692,),0,0,1
10:52.017,234726,(,0,0,1
10:52.247,234809,N,0,0,0
10:52.286,234823,),0,0,1
10:52.444,234880,(,0,0,2
10:52.528,234910,t,0,0,1
10:52.544,234916,),0,0,2
10:52.653,234955,(,0,0,0
10:52.700,234972,p,0,0,0
10:52.747,234989,),0,0,0
10:52.817,235014,(,0,0,1
10:52.856,235028,N,0,0,0
10:52.861,235030,(,0,0,0
10:52.897,235043,p,0,0,0
10:52.900,235044,),0,0,1
10:52.933,235056,),0,0,0
10:53.061,235102,(,0,0,1
10:53.208,235155,N,0,0,0
10:53.250,235170,),0,0,1
10:53.542,235275,(,0,0,0
10:53.581,235289,p,0,0,0
10:53.625,235305,),0,0,0
10:53.686,235327,(,0,0,1
10:53.706,235334,(,0,0,0
10:53.731,235343,p,0,0,0
10:53.733,235344,N,0,0,0
10:53.764,235355,),0,0,0
10:53.778,235360,),0,0,1
10:53.919,235411,(,0,0,1
10:54.078,235468,N,0,0,0
10:54.136,235489,),0,0,1
10:54.489,235616,(,0,0,0
10:54.528,235630,p,0,0,0
10:54.575,235647,),0,0,0
10:54.647,235673,(,0,0,1
10:54.692,235689,N,0,0,0
10:54.778,235720,),0,0,1
10:54.781,235721,t,0,0,2
10:54.831,235739,),0,0,2
10:54.850,235746,(,0,0,1
10:55.069,235825,N,0,0,0
10:55.261,235894,),0,0,1
10:55.322,235916,),0,0,2
10:55.328,235918,t,0,0,1
10:55.333,235920,(,0,0,2
10:55.458,235965,(,0,0,0
10:55.497,235979,p,0,0,0
10:55.544,235996,),0,0,0
10:55.611,236020,(,0,0,1
10:55.650,236034,(,0,0,0
10:55.672,236042,),0,0,1
10:55.694,236050,p,0,0,0
10:55.731,236063,),0,0,0
10:55.889,236120,(,0,0,1
10:55.994,236158,N,0,0,0
10:56.189,236228,),0,0,1
10:56.200,236232,(,0,0,2
10:56.206,236234,t,0,0,1
10:56.250,236250,),0,0,2
10:56.314,236273,(,0,0,0
10:56.353,236287,p,0,0,0
10:56.397,236303,),0,0,0
10:56.481,236333,(,0,0,0
10:56.489,236336,(,0,0,1
10:56.503,236341,p,0,0,0
10:56.506,236342,N,0,0,0
10:56.533,236352,),0,0,0
10:56.550,236358,),0,0,1
10:56.689,236408,(,0,0,1
10:56.864,236471,N,0,0,0
10:56.903,236485,),0,0,1
10:56.983,236514,(,0,0,2
10:57.017,236526,t,0,0,0
10:57.103,236557,),0,0,2
10:57.228,236602,(,0,0,0
10:57.269,236617,p,0,0,0
10:57.319,236635,),0,0,0
10:57.386,236659,(,0,0,1
10:57.408,236667,(,0,0,0
10:57.433,236676,p,0,0,0
10:57.436,236677,N,0,0,0
10:57.467,236688,),0,0,0
10:57.483,236694,),0,0,1
10:57.592,236733,(,0,0,1
10:57.786,236803,N,0,0,0
10:57.836,236821,),0,0,1
10:58.211,236956,(,0,0,0
10:58.253,236971,p,0,0,0
10:58.300,236988,),0,0,0
10:58.386,237019,(,0,0,1
10:58.403,237025,N,0,0,0
10:58.408,237027,(,0,0,0
10:58.442,237039,),0,0,1
10:58.447,237041,p,0,0,0
10:58.481,237053,),0,0,0
10:58.628,237106,(,0,0,1
10:58.753,237151,N,0,0,0
10:58.811,237172,),0,0,1
10:59.100,237276,(,0,0,0
10:59.153,237295,p,0,0,0
10:59.197,237311,),0,0,0
10:59.258,237333,(,0,0,1
10:59.300,237348,N,0,0,0
10:59.303,237349,(,0,0,0
10:59.344,237364,p,0,0,0
10:59.344,237364,),0,0,1
10:59.381,237377,),0,0,0
10:59.522,237428,(,0,0,1
10:59.653,237475,N,0,0,0
10:59.711,237496,),0,0,1
10:59.786,237523,(,0,0,2
10:59.811,237532,t,0,0,0
10:59.922,237572,),0,0,2
10:59.983,237594,(,0,0,0
11:00.022,237608,p,0,0,0
11:00.072,237626,),0,0,0
11:00.142,237651,(,0,0,1
11:00.161,237658,(,0,0,0
11:00.181,237665,N,0,0,0
11:00.183,237666,p,0,0,0
11:00.208,237675,),0,0,1
11:00.217,237678,),0,0,0
11:00.353,237727,(,0,0,1
11:00.550,237798,N,0,0,0
11:00.608,237819,),0,0,1
11:00.667,237840,(,0,0,2
11:00.703,237853,t,0,0,0
11:00.794,237886,),0,0,2
11:00.897,237923,(,0,0,0
11:00.939,237938,p,0,0,0
11:00.989,237956,),0,0,0
11:01.056,237980,(,0,0,1
11:01.072,237986,(,0,0,0
11:01.097,237995,p,0,0,0
11:01.131,238007,),0,0,0
11:01.181,238025,),0,0,1
11:01.222,238040,(,0,0,1
11:01.439,238118,N,0,0,0
11:01.489,238136,),0,0,1
11:01.806,238250,(,0,0,0
11:01.842,238263,p,0,0,0
11:01.881,238277,),0,0,0
11:01.961,238306,(,0,0,0
11:01.969,238309,(,0,0,1
11:01.983,238314,p,0,0,0
11:01.986,238315,N,0,0,0
11:02.014,238325,),0,0,0
11:02.031,238331,),0,0,1
11:02.089,238352,(,0,0,1
11:02.344,238444,N,0,0,0
11:02.392,238461,),0,0,1
11:02.467,238488,(,0,0,2
11:02.497,238499,t,0,0,0
11:02.597,238535,),0,0,2
11:02.647,238553,(,0,0,0
11:02.697,238571,p,0,0,0
11:02.739,238586,),0,0,0
11:02.811,238612,(,0,0,1
11:02.853,238627,N,0,0,0
11:02.875,238635,),0,0,1
11:03.033,238692,(,0,0,2
11:03.211,238756,t,0,0,0
11:03.306,238790,),0,0,2
11:03.586,238891,(,0,0,0
11:03.625,238905,p,0,0,0
11:03.675,238923,),0,0,0
11:03.744,238948,(,0,0,1
11:03.786,238963,N,0,0,0
11:03.831,238979,),0,0,1
11:03.922,239012,t,0,0,2
11:04.117,239082,),0,0,2
11:04.528,239230,(,0,0,0
11:04.564,239243,p,0,0,0
11:04.608,239259,),0,0,0
11:04.669,239281,(,0,0,1
11:04.711,239296,N,0,0,0
11:04.750,239310,),0,0,1
11:04.892,239361,(,0,0,2
11:05.053,239419,t,0,0,0
11:05.197,239471,),0,0,2
11:05.433,239556,(,0,0,0
11:05.478,239572,p,0,0,0
11:05.528,239590,),0,0,0
11:05.622,239624,(,0,0,1
11:05.639,239630,N,0,0,0
11:05.661,239638,),0,0,1
11:05.853,239707,(,0,0,2
11:06.006,239762,t,0,0,0
11:06.114,239801,),0,0,2
11:06.339,239882,(,0,0,0
11:06.378,239896,p,0,0,0
11:06.425,239913,),0,0,0
11:06.494,239938,(,0,0,1
11:06.539,239954,N,0,0,0
11:06.569,239965,),0,0,1
11:06.739,240026,(,0,0,2
11:06.875,240075,t,0,0,0
11:06.989,240116,),0,0,2
11:07.367,240252,(,0,0,0
11:07.406,240266,p,0,0,0
11:07.453,240283,),0,0,0
11:07.514,240305,(,0,0,1
11:07.558,240321,N,0,0,0
11:07.606,240338,),0,0,1
11:07.761,240394,(,0,0,2
11:07.922,240452,t,0,0,0
11:08.036,240493,),0,0,2
11:08.344,240604,(,0,0,0
11:08.381,240617,p,0,0,0
11:08.428,240634,),0,0,0
11:08.522,240668,(,0,0,1
11:08.539,240674,N,0,0,0
11:08.561,240682,),0,0,1
11:08.733,240744,(,0,0,2
11:08.892,240801,t,0,0,0
11:08.994,240838,),0,0,2
11:09.264,240935,(,0,0,0
11:09.306,240950,p,0,0,0
11:09.353,240967,),0,0,0
11:09.414,240989,(,0,0,1
