Elapsedtime,sample,Type,Sub,Chan,Num
0:01.125,405,(,0,0,0
0:01.186,427,p,0,0,0
0:01.250,450,),0,0,0
0:01.283,462,(,0,0,1
0:01.361,490,N,0,0,0
0:01.472,530,),0,0,1
0:01.578,568,(,0,0,2
0:01.675,603,t,0,0,0
0:01.789,644,),0,0,2
0:02.000,720,(,0,0,1
0:02.044,736,N,0,0,0
0:02.158,777,),0,0,1
0:02.244,808,(,0,0,2
0:02.342,843,t,0,0,0
0:02.447,881,),0,0,2
0:02.569,925,(,0,0,0
0:02.592,933,p,0,0,0
0:02.619,943,),0,0,0
0:02.725,981,(,0,0,1
0:02.778,1000,N,0,0,0
0:02.817,1014,),0,0,1
0:02.822,1016,(,0,0,2
0:02.906,1046,t,0,0,0
0:02.925,1053,),0,0,2
0:03.058,1101,(,0,0,1
0:03.139,1130,N,0,0,0
0:03.178,1144,(,0,0,0
0:03.203,1153,p,0,0,0
0:03.247,1169,),0,0,0
0:03.247,1169,),0,0,1
0:03.378,1216,(,0,0,1
0:03.478,1252,N,0,0,0
0:03.553,1279,),0,0,1
0:03.681,1325,(,0,0,2
0:03.728,1342,t,0,0,0
0:03.758,1353,),0,0,2
0:04.381,1577,(,0,0,0
0:04.439,1598,p,0,0,0
0:04.483,1614,),0,0,0
0:04.556,1640,(,0,0,1
0:04.606,1658,N,0,0,0
0:04.714,1697,),0,0,1
0:04.839,1742,(,0,0,2
0:04.919,1771,t,0,0,0
0:05.036,1813,),0,0,2
0:05.050,1818,(,0,0,0
0:05.117,1842,p,0,0,0
0:05.183,1866,),0,0,0
0:05.231,1883,(,0,0,1
0:05.283,1902,N,0,0,0
0:05.389,1940,),0,0,1
0:05.492,1977,(,0,0,2
0:05.572,2006,t,0,0,0
0:05.650,2034,),0,0,2
0:05.703,2053,(,0,0,0
0:05.769,2077,p,0,0,0
0:05.836,2101,),0,0,0
0:05.908,2127,(,0,0,1
0:05.989,2156,N,0,0,0
0:06.061,2182,(,0,0,0
0:06.094,2194,),0,0,1
0:06.122,2204,p,0,0,0
0:06.142,2211,),0,0,0
0:06.261,2254,(,0,0,1
0:06.344,2284,N,0,0,0
0:06.433,2316,),0,0,1
0:06.522,2348,(,0,0,2
0:06.539,2354,t,0,0,5
0:06.658,2397,t,0,0,5
0:06.683,2406,),0,0,2
0:06.853,2467,(,0,0,0
0:06.878,2476,p,0,0,0
0:06.903,2485,),0,0,0
0:06.978,2512,(,0,0,1
0:07.125,2565,N,0,0,0
0:07.197,2591,),0,0,1
0:07.292,2625,(,0,0,2
0:07.317,2634,t,0,0,0
0:07.342,2643,),0,0,2
0:07.625,2745,(,0,0,0
0:07.650,2754,p,0,0,0
0:07.747,2789,),0,0,0
0:07.822,2816,(,0,0,1
0:07.856,2828,N,0,0,0
0:07.967,2868,),0,0,1
0:08.067,2904,(,0,0,2
0:08.169,2941,t,0,0,0
0:08.267,2976,),0,0,2
0:08.289,2984,(,0,0,0
0:08.325,2997,p,0,0,0
0:08.353,3007,),0,0,0
0:08.461,3046,(,0,0,1
0:08.514,3065,N,0,0,0
0:08.633,3108,),0,0,1
0:08.728,3142,(,0,0,0
0:08.800,3168,p,0,0,0
0:08.847,3185,),0,0,0
0:08.867,3192,(,0,0,1
0:08.914,3209,N,0,0,0
0:09.008,3243,),0,0,1
0:09.150,3294,(,0,0,2
0:09.169,3301,t,0,0,0
0:09.189,3308,),0,0,2
0:09.639,3470,(,0,0,0
0:09.686,3487,p,0,0,0
0:09.731,3503,),0,0,0
0:09.831,3539,(,0,0,1
0:09.950,3582,(,0,0,0
0:09.978,3592,N,0,0,0
0:09.994,3598,p,0,0,0
0:10.067,3624,),0,0,1
0:10.069,3625,),0,0,0
0:10.139,3650,(,0,0,1
0:10.183,3666,N,0,0,0
0:10.308,3711,),0,0,1
0:10.450,3762,(,0,0,2
0:10.497,3779,t,0,0,0
0:10.614,3821,),0,0,2
0:10.631,3827,(,0,0,0
0:10.703,3853,p,0,0,0
0:10.750,3870,),0,0,0
0:10.811,3892,(,0,0,1
0:10.858,3909,N,0,0,0
0:10.975,3951,),0,0,1
0:11.103,3997,(,0,0,2
0:11.139,4010,t,0,0,0
0:11.219,4039,),0,0,2
0:11.267,4056,(,0,0,0
0:11.314,4073,p,0,0,0
0:11.350,4086,),0,0,0
0:11.464,4127,(,0,0,1
0:11.522,4148,N,0,0,0
0:11.608,4179,),0,0,1
0:11.664,4199,(,0,0,2
0:11.706,4214,t,0,0,1
0:11.756,4232,),0,0,2
0:12.294,4426,(,0,0,0
0:12.333,4440,p,0,0,0
0:12.364,4451,),0,0,0
0:12.481,4493,(,0,0,1
0:12.531,4511,N,0,0,0
0:12.639,4550,),0,0,1
0:12.750,4590,(,0,0,2
0:12.847,4625,t,0,0,0
0:12.953,4663,),0,0,2
0:12.972,4670,(,0,0,0
0:13.025,4689,p,0,0,0
0:13.064,4703,),0,0,0
0:13.156,4736,(,0,0,1
0:13.194,4750,N,0,0,0
0:13.300,4788,),0,0,1
0:13.389,4820,(,0,0,2
0:13.492,4857,t,0,0,0
0:13.581,4889,),0,0,2
0:13.753,4951,(,0,0,0
0:13.775,4959,p,0,0,0
0:13.806,4970,),0,0,0
0:13.956,5024,(,0,0,1
0:13.994,5038,N,0,0,0
0:14.022,5048,),0,0,1
0:14.167,5100,(,0,0,2
0:14.217,5118,t,0,0,1
0:14.264,5135,),0,0,2
0:14.600,5256,(,0,0,0
0:14.639,5270,p,0,0,0
0:14.700,5292,),0,0,0
0:14.764,5315,(,0,0,1
0:14.836,5341,N,0,0,0
0:14.950,5382,),0,0,1
0:15.053,5419,(,0,0,2
0:15.158,5457,t,0,0,5
0:15.253,5491,t,0,0,5
0:15.289,5504,),0,0,2
0:15.297,5507,(,0,0,0
0:15.308,5511,p,0,0,0
0:15.364,5531,),0,0,0
0:15.428,5554,(,0,0,1
0:15.511,5584,N,0,0,0
0:15.619,5623,),0,0,1
0:15.728,5662,(,0,0,2
0:15.811,5692,t,0,0,5
0:15.931,5735,t,0,0,5
0:15.958,5745,),0,0,2
0:16.033,5772,(,0,0,0
0:16.117,5802,p,0,0,0
0:16.183,5826,),0,0,0
0:16.217,5838,(,0,0,1
0:16.236,5845,(,0,0,0
0:16.258,5853,p,0,0,0
0:16.264,5855,N,0,0,0
0:16.286,5863,),0,0,0
0:16.372,5894,),0,0,1
0:16.428,5914,(,0,0,1
0:16.569,5965,N,0,0,0
0:16.631,5987,),0,0,1
0:17.783,6402,(,0,0,0
0:17.814,6413,p,0,0,0
0:17.850,6426,),0,0,0
0:17.972,6470,(,0,0,1
0:18.003,6481,N,0,0,0
0:18.114,6521,),0,0,1
0:18.233,6564,(,0,0,2
0:18.328,6598,t,0,0,5
0:18.417,6630,t,0,0,5
0:18.461,6646,),0,0,2
0:18.569,6685,(,0,0,0
0:18.594,6694,p,0,0,0
0:18.617,6702,),0,0,0
0:18.650,6714,(,0,0,1
0:18.728,6742,N,0,0,0
0:18.792,6765,),0,0,1
0:18.903,6805,(,0,0,2
0:18.947,6821,t,0,0,0
0:19.031,6851,),0,0,2
0:19.119,6883,(,0,0,0
0:19.150,6894,p,0,0,0
0:19.192,6909,),0,0,0
0:19.325,6957,(,0,0,1
0:19.392,6981,N,0,0,0
0:19.503,7021,),0,0,1
0:19.611,7060,(,0,0,2
0:19.678,7084,t,0,0,0
0:19.756,7112,),0,0,2
0:19.867,7152,(,0,0,0
0:19.894,7162,p,0,0,0
0:19.928,7174,),0,0,0
0:20.025,7209,(,0,0,1
0:20.089,7232,N,0,0,0
0:20.206,7274,),0,0,1
0:20.314,7313,(,0,0,2
0:20.389,7340,t,0,0,0
0:20.514,7385,),0,0,2
0:20.544,7396,(,0,0,0
0:20.561,7402,p,0,0,0
0:20.600,7416,),0,0,0
0:20.731,7463,(,0,0,1
0:20.811,7492,N,0,0,0
0:20.922,7532,),0,0,1
0:21.000,7560,(,0,0,2
0:21.108,7599,t,0,0,0
0:21.250,7650,),0,0,2
0:21.381,7697,(,0,0,0
0:21.400,7704,p,0,0,0
0:21.419,7711,),0,0,0
0:21.475,7731,(,0,0,1
0:21.536,7753,N,0,0,0
0:21.647,7793,),0,0,1
0:21.753,7831,(,0,0,2
0:21.814,7853,t,0,0,0
0:21.911,7888,),0,0,2
0:22.017,7926,(,0,0,0
0:22.067,7944,p,0,0,0
0:22.108,7959,),0,0,0
0:22.172,7982,(,0,0,1
0:22.228,8002,N,0,0,0
0:22.339,8042,),0,0,1
0:22.425,8073,(,0,0,2
0:22.506,8102,t,0,0,0
0:22.647,8153,),0,0,2
0:22.669,8161,(,0,0,0
0:22.681,8165,p,0,0,0
0:22.722,8180,),0,0,0
0:22.867,8232,(,0,0,1
0:22.928,8254,N,0,0,0
0:23.039,8294,),0,0,1
0:23.122,8324,(,0,0,2
0:23.214,8357,t,0,0,0
0:23.292,8385,),0,0,2
0:23.372,8414,(,0,0,0
0:23.431,8435,p,0,0,0
0:23.489,8456,),0,0,0
0:23.553,8479,(,0,0,1
0:23.653,8515,N,0,0,0
0:23.761,8554,),0,0,1
0:24.603,8857,(,0,0,0
0:24.636,8869,p,0,0,0
0:24.717,8898,),0,0,0
0:24.769,8917,(,0,0,1
0:24.833,8940,N,0,0,0
0:24.944,8980,),0,0,1
0:25.078,9028,(,0,0,2
0:25.147,9053,t,0,0,0
0:25.236,9085,),0,0,2
0:25.689,9248,(,0,0,0
0:25.708,9255,p,0,0,0
0:25.728,9262,),0,0,0
0:25.750,9270,(,0,0,1
0:25.792,9285,N,0,0,0
0:25.825,9297,),0,0,1
0:25.947,9341,(,0,0,2
0:25.972,9350,t,0,0,1
0:25.997,9359,),0,0,2
0:27.244,9808,(,0,0,0
0:27.286,9823,p,0,0,0
0:27.361,9850,),0,0,0
0:27.394,9862,(,0,0,1
0:27.472,9890,N,0,0,0
0:27.572,9926,),0,0,1
0:27.647,9953,(,0,0,2
0:27.667,9960,t,0,0,4
0:27.783,10002,t,0,0,4
0:27.908,10047,),0,0,2
0:28.347,10205,(,0,0,0
0:28.403,10225,p,0,0,0
0:28.478,10252,),0,0,0
0:28.544,10276,(,0,0,1
0:28.594,10294,N,0,0,0
0:28.711,10336,),0,0,1
0:28.814,10373,(,0,0,2
0:28.908,10407,t,0,0,0
0:29.022,10448,),0,0,2
0:29.044,10456,(,0,0,0
0:29.069,10465,p,0,0,0
0:29.083,10470,),0,0,0
0:29.222,10520,(,0,0,1
0:29.278,10540,N,0,0,0
0:29.381,10577,),0,0,1
0:29.486,10615,(,0,0,2
0:29.569,10645,t,0,0,5
0:29.711,10696,t,0,0,5
0:29.733,10704,),0,0,2
0:29.764,10715,(,0,0,0
0:29.808,10731,p,0,0,0
0:29.831,10739,),0,0,0
0:29.925,10773,(,0,0,1
0:29.986,10795,N,0,0,0
0:30.067,10824,(,0,0,0
0:30.092,10833,),0,0,1
0:30.156,10856,p,0,0,0
0:30.164,10859,),0,0,0
0:30.247,10889,(,0,0,1
0:30.339,10922,N,0,0,0
0:30.447,10961,),0,0,1
0:30.511,10984,(,0,0,2
0:30.522,10988,t,0,0,5
0:30.683,11046,t,0,0,5
0:30.708,11055,),0,0,2
0:31.614,11381,(,0,0,0
0:31.661,11398,p,0,0,0
0:31.697,11411,),0,0,0
0:31.775,11439,(,0,0,1
0:31.836,11461,N,0,0,0
0:31.947,11501,),0,0,1
0:32.050,11538,(,0,0,2
0:32.147,11573,t,0,0,0
0:32.250,11610,),0,0,2
0:32.283,11622,(,0,0,0
0:32.342,11643,p,0,0,0
0:32.369,11653,),0,0,0
0:32.458,11685,(,0,0,1
0:32.508,11703,N,0,0,0
0:32.619,11743,),0,0,1
0:32.717,11778,(,0,0,2
0:32.811,11812,t,0,0,0
0:32.917,11850,),0,0,2
0:33.022,11888,(,0,0,0
0:33.058,11901,p,0,0,0
0:33.086,11911,),0,0,0
0:33.192,11949,(,0,0,1
0:33.258,11973,N,0,0,0
0:33.375,12015,),0,0,1
0:33.478,12052,(,0,0,2
0:33.556,12080,t,0,0,5
0:33.725,12141,t,0,0,5
0:33.778,12160,),0,0,2
0:33.814,12173,(,0,0,0
0:33.858,12189,p,0,0,0
0:33.881,12197,),0,0,0
0:33.925,12213,(,0,0,1
0:33.989,12236,N,0,0,0
0:34.100,12276,),0,0,1
0:34.222,12320,(,0,0,2
0:34.286,12343,t,0,0,0
0:34.383,12378,),0,0,2
0:34.464,12407,(,0,0,0
0:34.511,12424,p,0,0,0
0:34.550,12438,),0,0,0
0:34.628,12466,(,0,0,1
0:34.697,12491,N,0,0,0
0:34.806,12530,),0,0,1
0:34.925,12573,(,0,0,2
0:34.997,12599,t,0,0,0
0:35.106,12638,),0,0,2
0:35.136,12649,(,0,0,0
0:35.158,12657,p,0,0,0
0:35.203,12673,),0,0,0
0:35.306,12710,(,0,0,1
0:35.408,12747,N,0,0,0
0:35.506,12782,),0,0,1
0:35.628,12826,(,0,0,2
0:35.694,12850,t,0,0,5
0:35.817,12894,t,0,0,5
0:35.836,12901,),0,0,2
0:35.872,12914,(,0,0,0
0:35.939,12938,p,0,0,0
0:35.961,12946,),0,0,0
0:36.064,12983,(,0,0,1
0:36.117,13002,N,0,0,0
0:36.228,13042,),0,0,1
0:36.325,13077,(,0,0,2
0:36.403,13105,t,0,0,0
0:36.511,13144,),0,0,2
0:36.589,13172,(,0,0,0
0:36.642,13191,p,0,0,0
0:36.669,13201,),0,0,0
0:36.761,13234,(,0,0,1
0:36.842,13263,N,0,0,0
0:36.942,13299,),0,0,1
0:37.069,13345,(,0,0,2
0:37.125,13365,t,0,0,0
0:37.236,13405,),0,0,2
0:37.336,13441,(,0,0,0
0:37.389,13460,p,0,0,0
0:37.436,13477,),0,0,0
0:37.494,13498,(,0,0,1
0:37.569,13525,N,0,0,0
0:37.681,13565,),0,0,1
0:37.797,13607,(,0,0,2
0:37.861,13630,t,0,0,0
0:37.964,13667,),0,0,2
0:38.111,13720,(,0,0,0
0:38.139,13730,p,0,0,0
0:38.169,13741,),0,0,0
0:38.242,13767,(,0,0,1
0:38.308,13791,N,0,0,0
0:38.417,13830,),0,0,1
0:38.511,13864,(,0,0,2
0:38.603,13897,t,0,0,0
0:38.711,13936,),0,0,2
0:38.825,13977,(,0,0,0
0:38.875,13995,p,0,0,0
0:38.919,14011,),0,0,0
0:38.967,14028,(,0,0,1
0:39.047,14057,N,0,0,0
0:39.156,14096,),0,0,1
0:39.289,14144,(,0,0,2
0:39.344,14164,t,0,0,5
0:39.508,14223,t,0,0,5
0:39.542,14235,),0,0,2
0:39.617,14262,(,0,0,0
0:39.656,14276,p,0,0,0
0:39.689,14288,),0,0,0
0:39.714,14297,(,0,0,1
0:39.772,14318,N,0,0,0
0:39.881,14357,),0,0,1
0:39.983,14394,(,0,0,2
0:40.067,14424,t,0,0,5
0:40.203,14473,t,0,0,5
0:40.233,14484,),0,0,2
0:40.578,14608,(,0,0,0
0:40.594,14614,p,0,0,0
0:40.614,14621,),0,0,0
0:40.647,14633,(,0,0,1
0:40.753,14671,N,0,0,0
0:40.872,14714,),0,0,1
0:40.906,14726,(,0,0,0
0:40.931,14735,p,0,0,0
0:40.950,14742,),0,0,0
0:41.111,14800,(,0,0,1
0:41.208,14835,N,0,0,0
0:41.314,14873,),0,0,1
0:42.061,15142,(,0,0,0
0:42.081,15149,p,0,0,0
0:42.100,15156,),0,0,0
0:42.225,15201,(,0,0,1
0:42.303,15229,(,0,0,0
0:42.361,15250,p,0,0,0
0:42.369,15253,N,0,0,0
0:42.389,15260,),0,0,0
0:42.494,15298,(,0,0,1
0:42.547,15317,N,0,0,0
0:42.547,15317,),0,0,1
0:42.550,15318,(,0,0,0
0:42.589,15332,p,0,0,0
0:42.653,15355,),0,0,0
0:42.653,15355,),0,0,1
0:42.753,15391,(,0,0,1
0:42.872,15434,N,0,0,0
0:42.975,15471,),0,0,1
0:43.450,15642,(,0,0,0
0:43.483,15654,p,0,0,0
0:43.556,15680,),0,0,0
0:43.614,15701,(,0,0,1
0:43.683,15726,N,0,0,0
0:43.803,15769,),0,0,1
0:43.917,15810,(,0,0,2
0:43.986,15835,t,0,0,0
0:44.092,15873,),0,0,2
0:44.136,15889,(,0,0,0
0:44.164,15899,p,0,0,0
0:44.183,15906,),0,0,0
0:44.294,15946,(,0,0,1
0:44.347,15965,N,0,0,0
0:44.447,16001,),0,0,1
0:44.581,16049,(,0,0,2
0:44.647,16073,t,0,0,0
0:44.742,16107,),0,0,2
0:44.811,16132,(,0,0,0
0:44.831,16139,p,0,0,0
0:44.869,16153,),0,0,0
0:44.983,16194,(,0,0,1
0:45.069,16225,N,0,0,0
0:45.178,16264,),0,0,1
0:45.294,16306,(,0,0,2
0:45.358,16329,t,0,0,0
0:45.450,16362,),0,0,2
0:45.511,16384,(,0,0,1
0:45.653,16435,N,0,0,0
0:45.744,16468,),0,0,1
0:46.172,16622,(,0,0,0
0:46.197,16631,p,0,0,0
0:46.222,16640,),0,0,0
0:46.250,16650,(,0,0,1
0:46.331,16679,N,0,0,0
0:46.442,16719,),0,0,1
0:46.536,16753,(,0,0,2
0:46.594,16774,t,0,0,0
0:46.619,16783,),0,0,2
0:46.758,16833,(,0,0,0
0:46.803,16849,p,0,0,0
0:46.864,16871,),0,0,0
0:46.933,16896,(,0,0,1
0:46.992,16917,N,0,0,0
0:47.094,16954,),0,0,1
0:47.239,17006,(,0,0,2
0:47.297,17027,t,0,0,0
0:47.408,17067,),0,0,2
0:47.600,17136,(,0,0,1
0:47.669,17161,N,0,0,0
0:47.781,17201,),0,0,1
0:47.903,17245,(,0,0,2
0:47.978,17272,t,0,0,0
0:48.061,17302,),0,0,2
0:48.175,17343,(,0,0,0
0:48.200,17352,p,0,0,0
0:48.225,17361,),0,0,0
0:48.317,17394,(,0,0,1
0:48.392,17421,N,0,0,0
0:48.506,17462,),0,0,1
0:48.550,17478,(,0,0,2
0:48.575,17487,t,0,0,4
0:48.683,17526,t,0,0,4
0:48.786,17563,),0,0,2
0:48.847,17585,(,0,0,0
0:48.919,17611,p,0,0,0
0:48.981,17633,),0,0,0
0:49.061,17662,(,0,0,1
0:49.119,17683,N,0,0,0
0:49.242,17727,),0,0,1
0:49.358,17769,(,0,0,2
0:49.403,17785,t,0,0,0
0:49.500,17820,),0,0,2
0:50.886,18319,(,0,0,0
0:50.931,18335,p,0,0,0
0:50.994,18358,),0,0,0
0:51.039,18374,(,0,0,1
0:51.117,18402,N,0,0,0
0:51.231,18443,),0,0,1
0:51.361,18490,(,0,0,2
0:51.442,18519,t,0,0,0
0:51.544,18556,),0,0,2
0:52.236,18805,(,0,0,0
0:52.289,18824,p,0,0,0
0:52.331,18839,),0,0,0
0:52.397,18863,(,0,0,1
0:52.478,18892,N,0,0,0
0:52.583,18930,),0,0,1
0:52.683,18966,(,0,0,2
0:52.775,18999,t,0,0,0
0:52.889,19040,),0,0,2
0:53.061,19102,(,0,0,1
0:53.139,19130,N,0,0,0
0:53.253,19171,),0,0,1
0:53.375,19215,(,0,0,2
0:53.433,19236,t,0,0,5
0:53.539,19274,t,0,0,5
0:53.556,19280,),0,0,2
0:53.678,19324,(,0,0,0
0:53.747,19349,p,0,0,0
0:53.822,19376,),0,0,0
0:53.839,19382,(,0,0,1
0:53.864,19391,N,0,0,0
0:53.972,19430,),0,0,1
0:54.061,19462,(,0,0,2
0:54.161,19498,t,0,0,5
0:54.294,19546,t,0,0,5
0:54.322,19556,),0,0,2
0:54.356,19568,(,0,0,0
0:54.381,19577,p,0,0,0
0:54.400,19584,),0,0,0
0:54.528,19630,(,0,0,1
0:54.583,19650,N,0,0,0
0:54.697,19691,),0,0,1
0:54.781,19721,(,0,0,2
0:54.861,19750,t,0,0,5
0:55.031,19811,t,0,0,5
0:55.061,19822,),0,0,2
0:55.100,19836,(,0,0,0
0:55.119,19843,p,0,0,0
0:55.139,19850,),0,0,0
0:55.250,19890,(,0,0,1
0:55.292,19905,N,0,0,0
0:55.406,19946,),0,0,1
0:55.444,19960,(,0,0,2
0:55.464,19967,t,0,0,4
0:55.592,20013,t,0,0,4
0:55.681,20045,),0,0,2
0:55.878,20116,(,0,0,0
0:55.894,20122,p,0,0,0
0:55.914,20129,),0,0,0
0:55.944,20140,(,0,0,1
0:56.019,20167,N,0,0,0
0:56.128,20206,),0,0,1
0:56.244,20248,(,0,0,2
0:56.317,20274,t,0,0,0
0:56.408,20307,),0,0,2
0:57.572,20726,(,0,0,0
0:57.628,20746,p,0,0,0
0:57.667,20760,),0,0,0
0:57.775,20799,(,0,0,1
0:57.889,20840,N,0,0,0
0:57.925,20853,),0,0,1
0:58.083,20910,(,0,0,2
0:58.108,20919,t,0,0,1
0:58.133,20928,),0,0,2
0:58.436,21037,(,0,0,0
0:58.483,21054,p,0,0,0
0:58.589,21092,),0,0,0
0:58.636,21109,(,0,0,1
0:58.686,21127,N,0,0,0
0:58.789,21164,),0,0,1
0:58.925,21213,(,0,0,2
0:58.997,21239,t,0,0,0
0:59.089,21272,),0,0,2
0:59.647,21473,(,0,0,0
0:59.686,21487,p,0,0,0
0:59.758,21513,),0,0,0
0:59.794,21526,(,0,0,1
0:59.886,21559,N,0,0,0
1:00.006,21602,),0,0,1
1:00.142,21651,(,0,0,2
1:00.211,21676,t,0,0,0
1:00.303,21709,),0,0,2
1:00.317,21714,(,0,0,0
1:00.397,21743,p,0,0,0
1:00.425,21753,),0,0,0
1:00.519,21787,(,0,0,1
1:00.567,21804,N,0,0,0
1:00.678,21844,),0,0,1
1:00.772,21878,(,0,0,2
1:00.864,21911,t,0,0,5
1:00.967,21948,t,0,0,5
1:00.986,21955,),0,0,2
1:01.086,21991,(,0,0,0
1:01.114,22001,p,0,0,0
1:01.139,22010,),0,0,0
1:01.247,22049,(,0,0,1
1:01.292,22065,N,0,0,0
1:01.397,22103,),0,0,1
1:01.481,22133,(,0,0,2
1:01.497,22139,t,0,0,1
1:01.556,22160,),0,0,2
1:01.578,22168,(,0,0,0
1:01.594,22174,p,0,0,0
1:01.661,22198,),0,0,0
1:01.789,22244,(,0,0,1
1:01.814,22253,N,0,0,0
1:01.861,22270,),0,0,1
1:02.047,22337,(,0,0,2
1:02.072,22346,t,0,0,0
1:02.094,22354,),0,0,2
1:02.306,22430,(,0,0,0
1:02.333,22440,p,0,0,0
1:02.375,22455,),0,0,0
1:02.428,22474,(,0,0,1
1:02.550,22518,N,0,0,0
1:02.622,22544,),0,0,1
1:02.861,22630,(,0,0,2
1:02.906,22646,t,0,0,0
1:02.928,22654,),0,0,2
1:03.106,22718,(,0,0,1
1:03.203,22753,N,0,0,0
1:03.386,22819,),0,0,1
1:03.422,22832,(,0,0,2
1:03.461,22846,t,0,0,5
1:03.553,22879,t,0,0,5
1:03.589,22892,),0,0,2
1:03.597,22895,(,0,0,0
1:03.622,22904,p,0,0,0
1:03.650,22914,),0,0,0
1:03.736,22945,(,0,0,1
1:03.792,22965,N,0,0,0
1:03.900,23004,),0,0,1
1:04.011,23044,(,0,0,2
1:04.089,23072,t,0,0,0
1:04.203,23113,),0,0,2
1:04.261,23134,(,0,0,0
1:04.286,23143,p,0,0,0
1:04.325,23157,),0,0,0
1:04.464,23207,(,0,0,1
1:04.525,23229,N,0,0,0
1:04.642,23271,),0,0,1
1:04.758,23313,(,0,0,2
1:04.806,23330,t,0,0,0
1:04.931,23375,),0,0,2
1:06.103,23797,(,0,0,0
1:06.150,23814,p,0,0,0
1:06.253,23851,),0,0,0
1:06.264,23855,(,0,0,1
1:06.350,23886,N,0,0,0
1:06.458,23925,),0,0,1
1:06.594,23974,(,0,0,2
1:06.667,24000,t,0,0,0
1:06.769,24037,),0,0,2
1:06.786,24043,(,0,0,0
1:06.850,24066,p,0,0,0
1:06.903,24085,),0,0,0
1:06.958,24105,(,0,0,1
1:07.017,24126,N,0,0,0
1:07.131,24167,),0,0,1
1:07.200,24192,(,0,0,2
1:07.297,24227,t,0,0,0
1:07.400,24264,),0,0,2
1:07.511,24304,(,0,0,0
1:07.544,24316,p,0,0,0
1:07.567,24324,),0,0,0
1:07.639,24350,(,0,0,1
1:07.733,24384,N,0,0,0
1:07.844,24424,),0,0,1
1:07.942,24459,(,0,0,2
1:08.031,24491,t,0,0,0
1:08.125,24525,),0,0,2
1:08.192,24549,(,0,0,0
1:08.275,24579,p,0,0,0
1:08.333,24600,),0,0,0
1:08.397,24623,(,0,0,1
1:08.442,24639,N,0,0,0
1:08.553,24679,),0,0,1
1:08.661,24718,(,0,0,2
1:08.744,24748,t,0,0,0
1:08.836,24781,),0,0,2
1:08.964,24827,(,0,0,0
1:08.994,24838,p,0,0,0
1:09.014,24845,),0,0,0
1:09.178,24904,(,0,0,1
1:09.244,24928,N,0,0,0
1:09.375,24975,),0,0,1
1:09.469,25009,(,0,0,2
1:09.558,25041,t,0,0,1
1:09.656,25076,),0,0,2
1:10.181,25265,(,0,0,0
1:10.228,25282,p,0,0,0
1:10.311,25312,),0,0,0
1:10.333,25320,(,0,0,1
1:10.419,25351,N,0,0,0
1:10.525,25389,),0,0,1
1:10.631,25427,(,0,0,2
1:10.725,25461,t,0,0,0
1:10.800,25488,),0,0,2
1:12.272,26018,(,0,0,0
1:12.311,26032,p,0,0,0
1:12.381,26057,),0,0,0
1:12.453,26083,(,0,0,1
1:12.497,26099,N,0,0,0
1:12.603,26137,),0,0,1
1:12.703,26173,(,0,0,2
1:12.806,26210,t,0,0,0
1:12.928,26254,),0,0,2
1:14.228,26722,(,0,0,0
1:14.272,26738,p,0,0,0
1:14.347,26765,),0,0,0
1:14.397,26783,(,0,0,1
1:14.469,26809,N,0,0,0
1:14.578,26848,),0,0,1
1:14.686,26887,(,0,0,2
1:14.772,26918,t,0,0,0
1:14.886,26959,),0,0,2
1:14.892,26961,(,0,0,0
1:14.956,26984,p,0,0,0
1:15.008,27003,),0,0,0
1:15.089,27032,(,0,0,1
1:15.133,27048,N,0,0,0
1:15.242,27087,),0,0,1
1:15.350,27126,(,0,0,2
1:15.439,27158,t,0,0,0
1:15.553,27199,),0,0,2
1:15.631,27227,(,0,0,0
1:15.661,27238,p,0,0,0
1:15.683,27246,),0,0,0
1:15.764,27275,(,0,0,1
1:15.850,27306,N,0,0,0
1:15.958,27345,),0,0,1
1:16.061,27382,(,0,0,2
1:16.142,27411,t,0,0,0
1:16.244,27448,),0,0,2
1:16.336,27481,(,0,0,0
1:16.372,27494,p,0,0,0
1:16.394,27502,),0,0,0
1:16.503,27541,(,0,0,1
1:16.550,27558,N,0,0,0
1:16.667,27600,),0,0,1
1:16.772,27638,(,0,0,2
1:16.853,27667,t,0,0,0
1:16.956,27704,),0,0,2
1:17.044,27736,(,0,0,0
1:17.072,27746,p,0,0,0
1:17.097,27755,),0,0,0
1:17.242,27807,(,0,0,1
1:17.278,27820,N,0,0,0
1:17.386,27859,),0,0,1
1:17.494,27898,(,0,0,2
1:17.572,27926,t,0,0,0
1:17.689,27968,),0,0,2
1:17.778,28000,(,0,0,0
1:17.806,28010,p,0,0,0
1:17.831,28019,),0,0,0
1:17.936,28057,(,0,0,1
1:18.003,28081,N,0,0,0
1:18.114,28121,),0,0,1
1:18.214,28157,(,0,0,2
1:18.297,28187,t,0,0,0
1:18.397,28223,),0,0,2
1:18.464,28247,(,0,0,0
1:18.514,28265,p,0,0,0
1:18.536,28273,),0,0,0
1:18.669,28321,(,0,0,1
1:18.714,28337,N,0,0,0
1:18.822,28376,),0,0,1
1:18.928,28414,(,0,0,2
1:19.011,28444,t,0,0,0
1:19.131,28487,),0,0,2
1:19.172,28502,(,0,0,0
1:19.250,28530,p,0,0,0
1:19.297,28547,),0,0,0
1:19.350,28566,(,0,0,1
1:19.419,28591,N,0,0,0
1:19.528,28630,),0,0,1
1:19.633,28668,(,0,0,2
1:19.706,28694,t,0,0,0
1:19.814,28733,),0,0,2
1:19.897,28763,(,0,0,0
1:19.942,28779,p,0,0,0
1:19.967,28788,),0,0,0
1:20.078,28828,(,0,0,1
1:20.139,28850,N,0,0,0
1:20.247,28889,),0,0,1
1:20.339,28922,(,0,0,2
1:20.422,28952,t,0,0,0
1:20.533,28992,),0,0,2
1:20.617,29022,(,0,0,0
1:20.700,29052,p,0,0,0
1:20.764,29075,),0,0,0
1:20.819,29095,(,0,0,1
1:20.872,29114,N,0,0,0
1:20.986,29155,),0,0,1
1:21.081,29189,(,0,0,2
1:21.164,29219,t,0,0,0
1:21.261,29254,),0,0,2
1:21.344,29284,(,0,0,0
1:21.439,29318,p,0,0,0
1:21.500,29340,),0,0,0
1:21.556,29360,(,0,0,1
1:21.592,29373,N,0,0,0
1:21.697,29411,),0,0,1
1:21.792,29445,(,0,0,2
1:21.883,29478,t,0,0,0
1:21.986,29515,),0,0,2
1:23.111,29920,(,0,0,0
1:23.158,29937,p,0,0,0
1:23.233,29964,),0,0,0
1:23.300,29988,(,0,0,1
1:23.356,30008,N,0,0,0
1:23.461,30046,),0,0,1
1:23.561,30082,(,0,0,2
1:23.658,30117,t,0,0,5
1:23.794,30166,t,0,0,5
1:23.842,30183,),0,0,2
1:23.850,30186,(,0,0,0
1:23.872,30194,p,0,0,0
1:23.897,30203,),0,0,0
1:23.975,30231,(,0,0,1
1:24.044,30256,N,0,0,0
1:24.153,30295,),0,0,1
1:24.244,30328,(,0,0,2
1:24.342,30363,t,0,0,0
1:24.444,30400,),0,0,2
1:24.550,30438,(,0,0,0
1:24.608,30459,p,0,0,0
1:24.650,30474,),0,0,0
1:24.717,30498,(,0,0,1
1:24.775,30519,N,0,0,0
1:24.883,30558,),0,0,1
1:25.003,30601,(,0,0,2
1:25.056,30620,t,0,0,0
1:25.206,30674,),0,0,2
1:25.267,30696,(,0,0,0
1:25.289,30704,p,0,0,0
1:25.317,30714,),0,0,0
1:25.397,30743,(,0,0,1
1:25.494,30778,N,0,0,0
1:25.547,30797,),0,0,1
1:25.578,30808,(,0,0,0
1:25.669,30841,p,0,0,0
1:25.672,30842,),0,0,0
1:25.761,30874,(,0,0,1
1:25.819,30895,N,0,0,0
1:25.911,30928,),0,0,1
1:26.025,30969,(,0,0,2
1:26.064,30983,t,0,0,4
1:26.153,31015,t,0,0,4
1:26.175,31023,),0,0,2
1:26.694,31210,(,0,0,0
1:26.728,31222,p,0,0,0
1:26.758,31233,),0,0,0
1:26.850,31266,(,0,0,1
1:26.925,31293,N,0,0,0
1:27.033,31332,),0,0,1
1:27.144,31372,(,0,0,2
1:27.222,31400,t,0,0,0
1:27.333,31440,),0,0,2
1:27.344,31444,(,0,0,0
1:27.408,31467,p,0,0,0
1:27.492,31497,),0,0,0
1:27.531,31511,(,0,0,1
1:27.594,31534,N,0,0,0
1:27.619,31543,),0,0,1
1:27.819,31615,(,0,0,2
1:27.892,31641,t,0,0,5
1:27.997,31679,t,0,0,5
1:28.022,31688,),0,0,2
1:28.050,31698,(,0,0,0
1:28.086,31711,p,0,0,0
1:28.117,31722,),0,0,0
1:28.239,31766,(,0,0,1
1:28.317,31794,N,0,0,0
1:28.425,31833,),0,0,1
1:28.531,31871,(,0,0,2
1:28.600,31896,t,0,0,0
1:28.700,31932,),0,0,2
1:29.064,32063,(,0,0,0
1:29.086,32071,p,0,0,0
1:29.108,32079,),0,0,0
1:29.189,32108,(,0,0,1
1:29.300,32148,N,0,0,0
1:29.372,32174,),0,0,1
1:29.492,32217,(,0,0,2
1:29.586,32251,t,0,0,1
1:29.681,32285,),0,0,2
1:29.978,32392,(,0,0,0
1:30.019,32407,p,0,0,0
1:30.111,32440,),0,0,0
1:30.158,32457,(,0,0,1
1:30.214,32477,N,0,0,0
1:30.319,32515,),0,0,1
1:30.433,32556,(,0,0,2
1:30.508,32583,t,0,0,5
1:30.647,32633,t,0,0,5
1:30.692,32649,),0,0,2
1:30.764,32675,(,0,0,0
1:30.800,32688,p,0,0,0
1:30.839,32702,),0,0,0
1:30.867,32712,(,0,0,1
1:30.908,32727,N,0,0,0
1:31.022,32768,),0,0,1
1:31.131,32807,(,0,0,2
1:31.189,32828,t,0,0,0
1:31.306,32870,),0,0,2
1:31.392,32901,(,0,0,0
1:31.481,32933,p,0,0,0
1:31.542,32955,),0,0,0
1:31.586,32971,(,0,0,1
1:31.647,32993,N,0,0,0
1:31.758,33033,),0,0,1
1:31.853,33067,(,0,0,2
1:31.942,33099,t,0,0,0
1:32.036,33133,),0,0,2
1:32.144,33172,(,0,0,0
1:32.192,33189,p,0,0,0
1:32.231,33203,),0,0,0
1:32.317,33234,(,0,0,1
1:32.364,33251,N,0,0,0
1:32.481,33293,),0,0,1
1:32.567,33324,(,0,0,2
1:32.650,33354,t,0,0,5
1:32.817,33414,t,0,0,5
1:32.847,33425,),0,0,2
1:32.931,33455,(,0,0,0
1:32.953,33463,p,0,0,0
1:32.978,33472,),0,0,0
1:33.008,33483,(,0,0,1
1:33.086,33511,N,0,0,0
1:33.192,33549,),0,0,1
1:33.306,33590,(,0,0,2
1:33.378,33616,t,0,0,0
1:33.467,33648,),0,0,2
1:33.483,33654,(,0,0,0
1:33.556,33680,p,0,0,0
1:33.597,33695,),0,0,0
1:33.733,33744,(,0,0,1
1:33.803,33769,N,0,0,0
1:33.867,33792,),0,0,1
1:34.008,33843,(,0,0,2
1:34.089,33872,t,0,0,0
1:34.178,33904,),0,0,2
1:35.031,34211,(,0,0,0
1:35.092,34233,p,0,0,0
1:35.161,34258,),0,0,0
1:35.214,34277,(,0,0,1
1:35.292,34305,N,0,0,0
1:35.403,34345,),0,0,1
1:35.544,34396,(,0,0,2
1:35.603,34417,t,0,0,5
1:35.742,34467,t,0,0,5
1:35.781,34481,),0,0,2
1:35.864,34511,(,0,0,0
1:35.894,34522,p,0,0,0
1:35.919,34531,),0,0,0
1:35.944,34540,(,0,0,1
1:35.989,34556,N,0,0,0
1:36.092,34593,),0,0,1
1:36.200,34632,(,0,0,2
1:36.278,34660,t,0,0,0
1:36.372,34694,),0,0,2
1:36.453,34723,(,0,0,0
1:36.481,34733,p,0,0,0
1:36.517,34746,),0,0,0
1:36.694,34810,(,0,0,1
1:36.733,34824,N,0,0,0
1:36.844,34864,),0,0,1
1:36.917,34890,(,0,0,2
1:37.022,34928,t,0,0,0
1:37.111,34960,),0,0,2
1:38.381,35417,(,0,0,0
1:38.444,35440,p,0,0,0
1:38.475,35451,),0,0,0
1:38.575,35487,(,0,0,1
1:38.639,35510,N,0,0,0
1:38.753,35551,),0,0,1
1:38.858,35589,(,0,0,2
1:38.944,35620,t,0,0,0
1:39.050,35658,),0,0,2
1:39.067,35664,(,0,0,0
1:39.158,35697,p,0,0,0
1:39.186,35707,),0,0,0
1:39.242,35727,(,0,0,1
1:39.303,35749,N,0,0,0
1:39.417,35790,),0,0,1
1:39.517,35826,(,0,0,2
1:39.600,35856,t,0,0,0
1:39.703,35893,),0,0,2
1:39.822,35936,(,0,0,0
1:39.853,35947,p,0,0,0
1:39.872,35954,),0,0,0
1:39.972,35990,(,0,0,1
1:40.053,36019,N,0,0,0
1:40.158,36057,),0,0,1
1:40.275,36099,(,0,0,2
1:40.350,36126,t,0,0,0
1:40.442,36159,),0,0,2
1:40.533,36192,(,0,0,0
1:40.583,36210,p,0,0,0
1:40.608,36219,),0,0,0
1:40.739,36266,(,0,0,1
1:40.786,36283,N,0,0,0
1:40.906,36326,),0,0,1
1:40.997,36359,(,0,0,2
1:41.086,36391,t,0,0,0
1:41.178,36424,),0,0,2
1:41.400,36504,(,0,0,0
1:41.419,36511,p,0,0,0
1:41.450,36522,),0,0,0
1:41.497,36539,(,0,0,1
1:41.528,36550,N,0,0,0
1:41.578,36568,),0,0,1
1:41.767,36636,(,0,0,2
1:41.797,36647,t,0,0,0
1:41.825,36657,),0,0,2
1:42.469,36889,(,0,0,0
1:42.497,36899,p,0,0,0
1:42.519,36907,),0,0,0
1:42.650,36954,(,0,0,1
1:42.697,36971,N,0,0,0
1:42.803,37009,),0,0,1
1:42.881,37037,(,0,0,2
1:43.006,37082,t,0,0,0
1:43.094,37114,),0,0,2
1:43.125,37125,(,0,0,0
1:43.158,37137,p,0,0,0
1:43.183,37146,),0,0,0
1:43.306,37190,(,0,0,1
1:43.361,37210,N,0,0,0
1:43.472,37250,),0,0,1
1:43.589,37292,(,0,0,2
1:43.656,37316,t,0,0,0
1:43.769,37357,),0,0,2
1:43.842,37383,(,0,0,0
1:43.872,37394,p,0,0,0
1:43.900,37404,),0,0,0
1:44.047,37457,(,0,0,1
1:44.125,37485,N,0,0,0
1:44.236,37525,),0,0,1
1:44.344,37564,(,0,0,2
1:44.431,37595,t,0,0,0
1:44.525,37629,),0,0,2
1:45.428,37954,(,0,0,0
1:45.503,37981,p,0,0,0
1:45.575,38007,),0,0,0
1:45.611,38020,(,0,0,1
1:45.683,38046,N,0,0,0
1:45.800,38088,),0,0,1
1:45.853,38107,(,0,0,2
1:45.892,38121,t,0,0,0
1:45.983,38154,),0,0,2
1:46.017,38166,(,0,0,1
1:46.089,38192,N,0,0,0
1:46.192,38229,),0,0,1
1:46.278,38260,(,0,0,2
1:46.400,38304,t,0,0,0
1:46.494,38338,),0,0,2
1:46.539,38354,(,0,0,0
1:46.600,38376,p,0,0,0
1:46.642,38391,),0,0,0
1:46.728,38422,(,0,0,1
1:46.767,38436,N,0,0,0
1:46.869,38473,),0,0,1
1:46.975,38511,(,0,0,2
1:47.056,38540,t,0,0,0
1:47.158,38577,),0,0,2
1:47.264,38615,(,0,0,0
1:47.297,38627,p,0,0,0
1:47.325,38637,),0,0,0
1:47.439,38678,(,0,0,1
1:47.503,38701,N,0,0,0
1:47.617,38742,),0,0,1
1:47.711,38776,(,0,0,2
1:47.797,38807,t,0,0,0
1:47.900,38844,),0,0,2
1:48.189,38948,(,0,0,1
1:48.222,38960,N,0,0,0
1:48.336,39001,),0,0,1
1:48.428,39034,(,0,0,2
1:48.525,39069,t,0,0,0
1:48.606,39098,),0,0,2
1:49.964,39587,(,0,0,0
1:49.989,39596,p,0,0,0
1:50.069,39625,),0,0,0
1:50.114,39641,(,0,0,1
1:50.186,39667,N,0,0,0
1:50.292,39705,),0,0,1
1:50.381,39737,(,0,0,2
1:50.489,39776,t,0,0,0
1:50.592,39813,),0,0,2
1:50.778,39880,(,0,0,1
1:50.856,39908,N,0,0,0
1:50.961,39946,),0,0,1
1:51.061,39982,(,0,0,2
1:51.144,40012,t,0,0,0
1:51.239,40046,),0,0,2
1:51.297,40067,(,0,0,0
1:51.325,40077,p,0,0,0
1:51.378,40096,),0,0,0
1:51.508,40143,(,0,0,1
1:51.575,40167,N,0,0,0
1:51.686,40207,),0,0,1
1:51.792,40245,(,0,0,2
1:51.869,40273,t,0,0,5
1:51.986,40315,t,0,0,5
1:52.033,40332,),0,0,2
1:53.308,40791,(,0,0,0
1:53.347,40805,p,0,0,0
1:53.425,40833,),0,0,0
1:53.475,40851,(,0,0,1
1:53.536,40873,N,0,0,0
1:53.650,40914,),0,0,1
1:53.733,40944,(,0,0,2
1:53.842,40983,t,0,0,5
1:53.964,41027,t,0,0,5
1:54.025,41049,),0,0,2
1:54.175,41103,(,0,0,1
1:54.233,41124,N,0,0,0
1:54.347,41165,),0,0,1
1:54.436,41197,(,0,0,2
1:54.525,41229,t,0,0,0
1:54.622,41264,),0,0,2
1:54.742,41307,(,0,0,0
1:54.769,41317,p,0,0,0
1:54.794,41326,),0,0,0
1:54.878,41356,(,0,0,1
1:54.953,41383,N,0,0,0
1:54.956,41384,(,0,0,0
1:54.989,41396,p,0,0,0
1:55.058,41421,),0,0,0
1:55.058,41421,),0,0,1
1:55.169,41461,(,0,0,1
1:55.275,41499,N,0,0,0
1:55.422,41552,),0,0,1
1:55.661,41638,(,0,0,2
1:55.686,41647,t,0,0,0
1:55.711,41656,),0,0,2
1:56.617,41982,(,0,0,0
1:56.658,41997,p,0,0,0
1:56.739,42026,),0,0,0
1:56.786,42043,(,0,0,1
1:56.856,42068,N,0,0,0
1:56.961,42106,),0,0,1
1:57.178,42184,(,0,0,1
1:57.219,42199,N,0,0,0
1:57.261,42214,),0,0,1
1:57.278,42220,(,0,0,2
1:57.353,42247,t,0,0,0
1:57.375,42255,),0,0,2
1:57.483,42294,(,0,0,1
1:57.536,42313,N,0,0,0
1:57.644,42352,),0,0,1
1:57.747,42389,(,0,0,2
1:57.825,42417,t,0,0,0
1:57.911,42448,),0,0,2
1:58.017,42486,(,0,0,0
1:58.103,42517,p,0,0,0
1:58.169,42541,),0,0,0
1:58.231,42563,(,0,0,1
1:58.269,42577,N,0,0,0
1:58.383,42618,),0,0,1
1:58.500,42660,(,0,0,2
1:58.578,42688,t,0,0,0
1:58.672,42722,),0,0,2
1:59.914,43169,(,0,0,0
1:59.953,43183,p,0,0,0
2:00.022,43208,),0,0,0
2:00.094,43234,(,0,0,1
2:00.136,43249,N,0,0,0
2:00.247,43289,),0,0,1
2:00.339,43322,(,0,0,2
2:00.433,43356,t,0,0,0
2:00.547,43397,),0,0,2
2:00.778,43480,(,0,0,1
2:00.822,43496,N,0,0,0
2:00.931,43535,),0,0,1
2:01.025,43569,(,0,0,2
2:01.117,43602,t,0,0,0
2:01.208,43635,),0,0,2
2:01.342,43683,(,0,0,0
2:01.375,43695,p,0,0,0
2:01.403,43705,),0,0,0
2:01.514,43745,(,0,0,1
2:01.542,43755,(,0,0,0
2:01.567,43764,p,0,0,0
2:01.572,43766,N,0,0,0
2:01.597,43775,),0,0,0
2:01.686,43807,),0,0,1
2:01.744,43828,(,0,0,1
2:01.892,43881,N,0,0,0
2:01.978,43912,),0,0,1
2:02.011,43924,(,0,0,2
2:02.139,43970,t,0,0,0
2:02.217,43998,),0,0,2
2:03.197,44351,(,0,0,0
2:03.261,44374,p,0,0,0
2:03.331,44399,),0,0,0
2:03.403,44425,(,0,0,1
2:03.447,44441,N,0,0,0
2:03.553,44479,),0,0,1
2:03.656,44516,(,0,0,2
2:03.747,44549,t,0,0,0
2:03.861,44590,),0,0,2
2:03.881,44597,(,0,0,0
2:03.953,44623,p,0,0,0
2:04.006,44642,),0,0,0
2:04.050,44658,(,0,0,1
2:04.119,44683,N,0,0,0
2:04.231,44723,),0,0,1
2:04.314,44753,(,0,0,2
2:04.419,44791,t,0,0,0
2:04.514,44825,),0,0,2
2:04.622,44864,(,0,0,0
2:04.650,44874,p,0,0,0
2:04.669,44881,),0,0,0
2:04.781,44921,(,0,0,1
2:04.847,44945,N,0,0,0
2:04.958,44985,),0,0,1
2:05.056,45020,(,0,0,2
2:05.144,45052,t,0,0,0
2:05.258,45093,),0,0,2
2:05.283,45102,(,0,0,0
2:05.314,45113,p,0,0,0
2:05.356,45128,),0,0,0
2:05.481,45173,(,0,0,1
2:05.553,45199,N,0,0,0
2:05.661,45238,),0,0,1
2:05.769,45277,(,0,0,2
2:05.842,45303,t,0,0,0
2:05.942,45339,),0,0,2
2:06.017,45366,(,0,0,0
2:06.075,45387,p,0,0,0
2:06.106,45398,),0,0,0
2:06.206,45434,(,0,0,1
2:06.278,45460,N,0,0,0
2:06.389,45500,),0,0,1
2:06.481,45533,(,0,0,2
2:06.567,45564,t,0,0,0
2:06.669,45601,),0,0,2
2:06.767,45636,(,0,0,0
2:06.792,45645,p,0,0,0
2:06.814,45653,),0,0,0
2:06.933,45696,(,0,0,1
2:06.992,45717,N,0,0,0
2:06.994,45718,(,0,0,0
2:07.028,45730,p,0,0,0
2:07.111,45760,),0,0,0
2:07.114,45761,),0,0,1
2:07.211,45796,(,0,0,1
2:07.317,45834,N,0,0,0
2:07.339,45842,),0,0,1
2:07.425,45873,(,0,0,2
2:07.475,45891,t,0,0,0
2:07.581,45929,),0,0,2
2:08.642,46311,(,0,0,0
2:08.689,46328,p,0,0,0
2:08.764,46355,),0,0,0
2:08.817,46374,(,0,0,1
2:08.869,46393,N,0,0,0
2:08.978,46432,),0,0,1
2:09.069,46465,(,0,0,2
2:09.175,46503,t,0,0,0
2:09.278,46540,),0,0,2
2:09.319,46555,(,0,0,0
2:09.375,46575,p,0,0,0
2:09.411,46588,),0,0,0
2:09.508,46623,(,0,0,1
2:09.553,46639,N,0,0,0
2:09.664,46679,),0,0,1
2:09.744,46708,(,0,0,2
2:09.836,46741,t,0,0,0
2:09.939,46778,),0,0,2
2:10.064,46823,(,0,0,0
2:10.092,46833,p,0,0,0
2:10.114,46841,),0,0,0
2:10.242,46887,(,0,0,1
2:10.297,46907,N,0,0,0
2:10.408,46947,),0,0,1
2:10.508,46983,(,0,0,2
2:10.603,47017,t,0,0,0
2:10.722,47060,),0,0,2
2:10.783,47082,(,0,0,0
2:10.842,47103,p,0,0,0
2:10.872,47114,),0,0,0
2:11.003,47161,(,0,0,1
2:11.042,47175,N,0,0,0
2:11.153,47215,),0,0,1
2:11.269,47257,(,0,0,2
2:11.336,47281,t,0,0,0
2:11.444,47320,),0,0,2
2:11.514,47345,(,0,0,0
2:11.600,47376,p,0,0,0
2:11.661,47398,),0,0,0
2:11.714,47417,(,0,0,1
2:11.772,47438,N,0,0,0
2:11.883,47478,),0,0,1
2:12.003,47521,(,0,0,2
2:12.075,47547,t,0,0,0
2:12.156,47576,),0,0,2
2:12.342,47643,(,0,0,0
2:12.367,47652,p,0,0,0
2:12.389,47660,),0,0,0
2:12.450,47682,(,0,0,1
2:12.489,47696,N,0,0,0
2:12.536,47713,),0,0,1
2:12.714,47777,(,0,0,2
2:12.758,47793,t,0,0,5
2:12.872,47834,t,0,0,5
2:12.897,47843,),0,0,2
2:12.914,47849,(,0,0,0
2:12.944,47860,p,0,0,0
2:12.997,47879,),0,0,0
2:13.136,47929,(,0,0,1
2:13.206,47954,N,0,0,0
2:13.314,47993,),0,0,1
2:13.403,48025,(,0,0,2
2:13.494,48058,t,0,0,0
2:13.578,48088,),0,0,2
2:13.681,48125,(,0,0,0
2:13.719,48139,p,0,0,0
2:13.747,48149,),0,0,0
2:13.853,48187,(,0,0,1
2:13.928,48214,N,0,0,0
2:14.042,48255,),0,0,1
2:14.153,48295,(,0,0,2
2:14.222,48320,t,0,0,0
2:14.333,48360,),0,0,2
2:14.456,48404,(,0,0,0
2:14.503,48421,p,0,0,0
2:14.594,48454,),0,0,0
2:14.614,48461,(,0,0,1
2:14.653,48475,N,0,0,0
2:14.761,48514,),0,0,1
2:14.850,48546,(,0,0,2
2:14.947,48581,t,0,0,0
2:15.053,48619,),0,0,2
2:15.150,48654,(,0,0,0
2:15.186,48667,p,0,0,0
2:15.208,48675,),0,0,0
2:15.336,48721,(,0,0,1
2:15.386,48739,N,0,0,0
2:15.494,48778,),0,0,1
2:15.597,48815,(,0,0,2
2:15.681,48845,t,0,0,0
2:15.786,48883,),0,0,2
2:15.878,48916,(,0,0,0
2:15.942,48939,p,0,0,0
2:15.992,48957,),0,0,0
2:16.053,48979,(,0,0,1
2:16.131,49007,N,0,0,0
2:16.242,49047,),0,0,1
2:16.336,49081,(,0,0,2
2:16.419,49111,t,0,0,0
2:16.533,49152,),0,0,2
2:18.292,49785,(,0,0,0
2:18.328,49798,p,0,0,0
2:18.414,49829,),0,0,0
2:18.450,49842,(,0,0,1
2:18.531,49871,N,0,0,0
2:18.614,49901,(,0,0,0
2:18.639,49910,),0,0,1
2:18.658,49917,p,0,0,0
2:18.667,49920,),0,0,0
2:18.814,49973,(,0,0,1
2:18.856,49988,N,0,0,0
2:18.961,50026,),0,0,1
2:19.072,50066,(,0,0,2
2:19.186,50107,t,0,0,1
2:19.242,50127,),0,0,2
2:19.664,50279,(,0,0,0
2:19.706,50294,p,0,0,0
2:19.781,50321,),0,0,0
2:19.839,50342,(,0,0,1
2:19.908,50367,N,0,0,0
2:20.014,50405,),0,0,1
2:20.119,50443,(,0,0,2
2:20.206,50474,t,0,0,5
2:20.336,50521,t,0,0,5
2:20.383,50538,),0,0,2
2:20.414,50549,(,0,0,0
2:20.433,50556,p,0,0,0
2:20.467,50568,),0,0,0
2:20.517,50586,(,0,0,1
2:20.597,50615,N,0,0,0
2:20.708,50655,),0,0,1
2:20.833,50700,(,0,0,2
2:20.897,50723,t,0,0,0
2:20.994,50758,),0,0,2
2:21.111,50800,(,0,0,0
2:21.139,50810,p,0,0,0
2:21.161,50818,),0,0,0
2:21.275,50859,(,0,0,1
2:21.333,50880,N,0,0,0
2:21.433,50916,),0,0,1
2:21.528,50950,(,0,0,2
2:21.617,50982,t,0,0,5
2:21.781,51041,t,0,0,5
2:21.828,51058,),0,0,2
2:21.842,51063,(,0,0,0
2:21.878,51076,p,0,0,0
2:21.903,51085,),0,0,0
2:21.989,51116,(,0,0,1
2:22.039,51134,N,0,0,0
2:22.150,51174,),0,0,1
2:22.256,51212,(,0,0,2
2:22.328,51238,t,0,0,0
2:22.425,51273,),0,0,2
2:22.533,51312,(,0,0,0
2:22.567,51324,p,0,0,0
2:22.597,51335,),0,0,0
2:22.714,51377,(,0,0,1
2:22.769,51397,N,0,0,0
2:22.881,51437,),0,0,1
2:22.975,51471,(,0,0,2
2:23.058,51501,t,0,0,0
2:23.167,51540,),0,0,2
2:24.217,51918,(,0,0,0
2:24.269,51937,p,0,0,0
2:24.350,51966,),0,0,0
2:24.383,51978,(,0,0,1
2:24.461,52006,N,0,0,0
2:24.572,52046,),0,0,1
2:24.694,52090,(,0,0,2
2:24.772,52118,t,0,0,5
2:24.900,52164,t,0,0,5
2:24.961,52186,),0,0,2
2:25.089,52232,(,0,0,1
2:25.167,52260,N,0,0,0
2:25.269,52297,),0,0,1
2:25.369,52333,(,0,0,2
2:25.447,52361,t,0,0,0
2:25.556,52400,),0,0,2
2:25.817,52494,(,0,0,1
2:25.900,52524,N,0,0,0
2:26.014,52565,),0,0,1
2:26.097,52595,(,0,0,2
2:26.192,52629,t,0,0,0
2:26.281,52661,),0,0,2
2:27.497,53099,(,0,0,0
2:27.522,53108,p,0,0,0
2:27.594,53134,),0,0,0
2:27.675,53163,(,0,0,1
2:27.719,53179,N,0,0,0
2:27.831,53219,),0,0,1
2:27.936,53257,(,0,0,2
2:28.036,53293,t,0,0,0
2:28.147,53333,),0,0,2
2:28.172,53342,(,0,0,0
2:28.242,53367,p,0,0,0
2:28.308,53391,),0,0,0
2:28.378,53416,(,0,0,1
2:28.422,53432,N,0,0,0
2:28.533,53472,),0,0,1
2:28.628,53506,(,0,0,2
2:28.708,53535,t,0,0,0
2:28.817,53574,),0,0,2
2:28.967,53628,(,0,0,0
2:28.989,53636,p,0,0,0
2:29.019,53647,),0,0,0
2:29.100,53676,(,0,0,1
2:29.144,53692,N,0,0,0
2:29.228,53722,(,0,0,0
2:29.258,53733,),0,0,1
2:29.294,53746,p,0,0,0
2:29.306,53750,),0,0,0
2:29.436,53797,(,0,0,1
2:29.464,53807,N,0,0,0
2:29.633,53868,),0,0,1
2:30.764,54275,(,0,0,0
2:30.803,54289,p,0,0,0
2:30.881,54317,),0,0,0
2:30.942,54339,(,0,0,1
2:30.997,54359,N,0,0,0
2:31.103,54397,),0,0,1
2:31.203,54433,(,0,0,2
2:31.297,54467,t,0,0,5
2:31.419,54511,t,0,0,5
2:31.469,54529,),0,0,2
2:31.481,54533,(,0,0,0
2:31.525,54549,p,0,0,0
2:31.581,54569,),0,0,0
2:31.639,54590,(,0,0,1
2:31.678,54604,N,0,0,0
2:31.783,54642,),0,0,1
2:31.881,54677,(,0,0,2
2:31.958,54705,t,0,0,0
2:32.064,54743,),0,0,2
2:32.111,54760,(,0,0,0
2:32.144,54772,p,0,0,0
2:32.197,54791,),0,0,0
2:32.347,54845,(,0,0,1
2:32.364,54851,(,0,0,0
2:32.389,54860,p,0,0,0
2:32.394,54862,N,0,0,0
2:32.419,54871,),0,0,0
2:32.506,54902,),0,0,1
2:32.553,54919,(,0,0,1
2:32.714,54977,N,0,0,0
2:32.789,55004,),0,0,1
2:34.053,55459,(,0,0,0
2:34.111,55480,p,0,0,0
2:34.189,55508,),0,0,0
2:34.217,55518,(,0,0,1
2:34.306,55550,N,0,0,0
2:34.408,55587,),0,0,1
2:34.511,55624,(,0,0,2
2:34.608,55659,t,0,0,5
2:34.731,55703,t,0,0,5
2:34.778,55720,),0,0,2
2:34.819,55735,(,0,0,0
2:34.847,55745,p,0,0,0
2:34.878,55756,),0,0,0
2:34.925,55773,(,0,0,1
2:34.994,55798,N,0,0,0
2:35.100,55836,),0,0,1
2:35.200,55872,(,0,0,2
2:35.283,55902,t,0,0,0
2:35.386,55939,),0,0,2
2:35.492,55977,(,0,0,0
2:35.528,55990,p,0,0,0
2:35.553,55999,),0,0,0
2:35.672,56042,(,0,0,1
2:35.725,56061,N,0,0,0
2:35.836,56101,),0,0,1
2:36.025,56169,(,0,0,1
2:36.047,56177,N,0,0,0
2:36.069,56185,),0,0,1
2:37.389,56660,(,0,0,0
2:37.433,56676,p,0,0,0
2:37.511,56704,),0,0,0
2:37.589,56732,(,0,0,1
2:37.628,56746,N,0,0,0
2:37.736,56785,),0,0,1
2:37.844,56824,(,0,0,2
2:37.942,56859,t,0,0,5
2:38.047,56897,t,0,0,5
2:38.097,56915,),0,0,2
2:38.133,56928,(,0,0,0
2:38.158,56937,p,0,0,0
2:38.181,56945,),0,0,0
2:38.253,56971,(,0,0,1
2:38.308,56991,N,0,0,0
2:38.422,57032,),0,0,1
2:38.597,57095,(,0,0,1
2:38.669,57121,N,0,0,0
2:38.750,57150,(,0,0,0
2:38.775,57159,p,0,0,0
2:38.797,57167,),0,0,1
2:38.828,57178,),0,0,0
2:38.953,57223,(,0,0,1
2:39.019,57247,N,0,0,0
2:39.131,57287,),0,0,1
2:39.231,57323,(,0,0,2
2:39.317,57354,t,0,0,0
2:39.425,57393,),0,0,2
2:39.508,57423,(,0,0,0
2:39.542,57435,p,0,0,0
2:39.569,57445,),0,0,0
2:39.683,57486,(,0,0,1
2:39.739,57506,N,0,0,0
2:39.839,57542,),0,0,1
2:39.942,57579,(,0,0,2
2:40.031,57611,t,0,0,0
2:40.147,57653,),0,0,2
2:40.217,57678,(,0,0,0
2:40.264,57695,p,0,0,0
2:40.303,57709,),0,0,0
2:40.425,57753,(,0,0,1
2:40.467,57768,N,0,0,0
2:40.575,57807,),0,0,1
2:40.683,57846,(,0,0,2
2:40.756,57872,t,0,0,0
2:40.847,57905,),0,0,2
2:40.950,57942,(,0,0,0
2:40.978,57952,p,0,0,0
2:41.000,57960,),0,0,0
2:41.117,58002,(,0,0,1
2:41.183,58026,N,0,0,0
2:41.186,58027,(,0,0,0
2:41.222,58040,p,0,0,0
2:41.297,58067,),0,0,0
2:41.297,58067,),0,0,1
2:41.381,58097,(,0,0,1
2:41.508,58143,N,0,0,0
2:41.558,58161,),0,0,1
2:43.467,58848,(,0,0,0
2:43.525,58869,p,0,0,0
2:43.561,58882,),0,0,0
2:43.650,58914,(,0,0,1
2:43.686,58927,(,0,0,0
2:43.711,58936,p,0,0,0
2:43.714,58937,N,0,0,0
2:43.742,58947,),0,0,0
2:43.828,58978,),0,0,1
2:43.892,59001,(,0,0,1
2:44.036,59053,N,0,0,0
2:44.125,59085,),0,0,1
2:44.903,59365,(,0,0,0
2:44.961,59386,p,0,0,0
2:45.028,59410,),0,0,0
2:45.086,59431,(,0,0,1
2:45.150,59454,N,0,0,0
2:45.261,59494,),0,0,1
2:45.381,59537,(,0,0,2
2:45.467,59568,t,0,0,0
2:45.561,59602,),0,0,2
2:45.592,59613,(,0,0,0
2:45.686,59647,p,0,0,0
2:45.717,59658,),0,0,0
2:45.758,59673,(,0,0,1
2:45.828,59698,N,0,0,0
2:45.939,59738,),0,0,1
2:46.042,59775,(,0,0,2
2:46.128,59806,t,0,0,0
2:46.219,59839,),0,0,2
2:46.317,59874,(,0,0,0
2:46.361,59890,p,0,0,0
2:46.397,59903,),0,0,0
2:46.514,59945,(,0,0,1
2:46.553,59959,N,0,0,0
2:46.664,59999,),0,0,1
2:46.744,60028,(,0,0,2
2:46.847,60065,t,0,0,0
2:46.947,60101,),0,0,2
2:48.192,60549,(,0,0,0
2:48.247,60569,p,0,0,0
2:48.325,60597,),0,0,0
2:48.397,60623,(,0,0,1
2:48.436,60637,N,0,0,0
2:48.542,60675,),0,0,1
2:48.650,60714,(,0,0,2
2:48.747,60749,t,0,0,0
2:48.850,60786,),0,0,2
2:48.886,60799,(,0,0,0
2:48.950,60822,p,0,0,0
2:49.000,60840,),0,0,0
2:49.103,60877,(,0,0,1
2:49.139,60890,N,0,0,0
2:49.256,60932,),0,0,1
2:49.350,60966,(,0,0,2
2:49.436,60997,t,0,0,0
2:49.528,61030,),0,0,2
2:49.642,61071,(,0,0,0
2:49.669,61081,p,0,0,0
2:49.692,61089,),0,0,0
2:49.819,61135,(,0,0,1
2:49.872,61154,N,0,0,0
2:49.983,61194,),0,0,1
2:50.069,61225,(,0,0,2
2:50.178,61264,t,0,0,0
2:50.281,61301,),0,0,2
2:50.317,61314,(,0,0,0
2:50.344,61324,p,0,0,0
2:50.394,61342,),0,0,0
2:50.539,61394,(,0,0,1
2:50.606,61418,N,0,0,0
2:50.719,61459,),0,0,1
2:50.817,61494,(,0,0,2
2:50.900,61524,t,0,0,0
2:51.000,61560,),0,0,2
2:51.089,61592,(,0,0,0
2:51.133,61608,p,0,0,0
2:51.158,61617,),0,0,0
2:51.286,61663,(,0,0,1
2:51.339,61682,N,0,0,0
2:51.453,61723,),0,0,1
2:51.547,61757,(,0,0,2
2:51.631,61787,t,0,0,0
2:51.728,61822,),0,0,2
2:51.822,61856,(,0,0,0
2:51.864,61871,p,0,0,0
2:51.889,61880,),0,0,0
2:52.019,61927,(,0,0,1
2:52.061,61942,N,0,0,0
2:52.169,61981,),0,0,1
2:52.267,62016,(,0,0,2
2:52.356,62048,t,0,0,0
2:52.453,62083,),0,0,2
2:53.717,62538,(,0,0,0
2:53.761,62554,p,0,0,0
2:53.842,62583,),0,0,0
2:53.892,62601,(,0,0,1
2:53.961,62626,N,0,0,0
2:54.069,62665,),0,0,1
2:54.178,62704,(,0,0,2
2:54.272,62738,t,0,0,5
2:54.386,62779,t,0,0,5
2:54.431,62795,),0,0,2
2:54.561,62842,(,0,0,1
2:54.642,62871,N,0,0,0
2:54.744,62908,),0,0,1
2:54.842,62943,(,0,0,2
2:54.936,62977,t,0,0,0
2:55.039,63014,),0,0,2
2:56.136,63409,(,0,0,0
2:56.194,63430,p,0,0,0
2:56.264,63455,),0,0,0
2:56.325,63477,(,0,0,1
2:56.372,63494,N,0,0,0
2:56.475,63531,),0,0,1
2:56.578,63568,(,0,0,2
2:56.672,63602,t,0,0,0
2:56.772,63638,),0,0,2
2:56.800,63648,(,0,0,0
2:56.864,63671,p,0,0,0
2:56.914,63689,),0,0,0
2:56.986,63715,(,0,0,1
2:57.031,63731,N,0,0,0
2:57.136,63769,),0,0,1
2:57.231,63803,(,0,0,2
2:57.317,63834,t,0,0,0
2:57.403,63865,),0,0,2
2:58.442,64239,(,0,0,0
2:58.500,64260,p,0,0,0
2:58.575,64287,),0,0,0
2:58.647,64313,(,0,0,1
2:58.692,64329,N,0,0,0
2:58.803,64369,),0,0,1
2:58.917,64410,(,0,0,2
2:59.003,64441,t,0,0,0
2:59.119,64483,),0,0,2
2:59.139,64490,(,0,0,0
2:59.225,64521,p,0,0,0
2:59.297,64547,),0,0,0
2:59.317,64554,(,0,0,1
2:59.369,64573,N,0,0,0
2:59.475,64611,),0,0,1
2:59.578,64648,(,0,0,2
2:59.664,64679,t,0,0,5
2:59.781,64721,t,0,0,5
2:59.819,64735,),0,0,2
3:00.772,65078,(,0,0,0
3:00.836,65101,p,0,0,0
3:00.906,65126,),0,0,0
3:00.986,65155,(,0,0,1
3:01.022,65168,N,0,0,0
3:01.136,65209,),0,0,1
3:01.253,65251,(,0,0,2
3:01.342,65283,t,0,0,0
3:01.442,65319,),0,0,2
3:01.478,65332,(,0,0,0
3:01.539,65354,p,0,0,0
3:01.592,65373,),0,0,0
3:01.656,65396,(,0,0,1
3:01.703,65413,N,0,0,0
3:01.806,65450,),0,0,1
3:01.917,65490,(,0,0,2
3:01.992,65517,t,0,0,0
3:02.089,65552,),0,0,2
3:02.144,65572,(,0,0,0
3:02.178,65584,p,0,0,0
3:02.214,65597,),0,0,0
3:02.356,65648,(,0,0,1
3:02.419,65671,N,0,0,0
3:02.528,65710,),0,0,1
3:02.644,65752,(,0,0,2
3:02.714,65777,t,0,0,0
3:02.825,65817,),0,0,2
3:03.997,66239,(,0,0,0
3:04.039,66254,p,0,0,0
3:04.114,66281,),0,0,0
3:04.161,66298,(,0,0,1
3:04.228,66322,N,0,0,0
3:04.339,66362,),0,0,1
3:04.428,66394,(,0,0,2
3:04.536,66433,t,0,0,0
3:04.656,66476,),0,0,2
3:04.689,66488,(,0,0,0
3:04.778,66520,p,0,0,0
3:04.836,66541,),0,0,0
3:04.858,66549,(,0,0,1
3:04.917,66570,N,0,0,0
3:05.028,66610,),0,0,1
3:05.111,66640,(,0,0,2
3:05.203,66673,t,0,0,0
3:05.311,66712,),0,0,2
3:05.553,66799,(,0,0,1
3:05.628,66826,N,0,0,0
3:05.736,66865,),0,0,1
3:05.839,66902,(,0,0,2
3:05.928,66934,t,0,0,0
3:06.019,66967,),0,0,2
3:07.158,67377,(,0,0,0
3:07.208,67395,p,0,0,0
3:07.292,67425,),0,0,0
3:07.322,67436,(,0,0,1
3:07.394,67462,N,0,0,0
3:07.506,67502,),0,0,1
3:07.714,67577,(,0,0,1
3:07.758,67593,N,0,0,0
3:07.872,67634,),0,0,1
3:07.892,67641,(,0,0,2
3:07.931,67655,t,0,0,0
3:07.964,67667,),0,0,2
3:08.022,67688,(,0,0,1
3:08.081,67709,N,0,0,0
3:08.181,67745,),0,0,1
3:08.281,67781,(,0,0,2
3:08.367,67812,t,0,0,0
3:08.464,67847,),0,0,2
3:08.556,67880,(,0,0,0
3:08.617,67902,p,0,0,0
3:08.647,67913,),0,0,0
3:08.761,67954,(,0,0,1
3:08.808,67971,N,0,0,0
3:08.919,68011,),0,0,1
3:09.039,68054,(,0,0,2
3:09.108,68079,t,0,0,0
3:09.211,68116,),0,0,2
3:10.347,68525,(,0,0,0
3:10.392,68541,p,0,0,0
3:10.481,68573,),0,0,0
3:10.528,68590,(,0,0,1
3:10.583,68610,N,0,0,0
3:10.689,68648,),0,0,1
3:10.808,68691,(,0,0,2
3:10.889,68720,t,0,0,0
3:10.983,68754,),0,0,2
3:11.017,68766,(,0,0,0
3:11.125,68805,p,0,0,0
3:11.175,68823,),0,0,0
3:11.192,68829,(,0,0,1
3:11.233,68844,N,0,0,0
3:11.339,68882,),0,0,1
3:11.453,68923,(,0,0,2
3:11.528,68950,t,0,0,0
3:11.619,68983,),0,0,2
3:12.653,69355,(,0,0,0
3:12.708,69375,p,0,0,0
3:12.775,69399,),0,0,0
3:12.828,69418,(,0,0,1
3:12.892,69441,N,0,0,0
3:13.003,69481,),0,0,1
3:13.125,69525,(,0,0,2
3:13.206,69554,t,0,0,0
3:13.314,69593,),0,0,2
3:13.336,69601,(,0,0,0
3:13.433,69636,p,0,0,0
3:13.464,69647,),0,0,0
3:13.528,69670,(,0,0,1
3:13.578,69688,N,0,0,0
3:13.681,69725,),0,0,1
3:13.786,69763,(,0,0,2
3:13.867,69792,t,0,0,0
3:13.958,69825,),0,0,2
3:14.058,69861,(,0,0,0
3:14.094,69874,p,0,0,0
3:14.125,69885,),0,0,0
3:14.222,69920,(,0,0,1
3:14.286,69943,N,0,0,0
3:14.397,69983,),0,0,1
3:14.489,70016,(,0,0,2
3:14.578,70048,t,0,0,0
3:14.692,70089,),0,0,2
3:15.836,70501,(,0,0,0
3:15.886,70519,p,0,0,0
3:15.961,70546,),0,0,0
3:16.022,70568,(,0,0,1
3:16.072,70586,N,0,0,0
3:16.178,70624,),0,0,1
3:16.289,70664,(,0,0,2
3:16.383,70698,t,0,0,0
3:16.483,70734,),0,0,2
3:16.497,70739,(,0,0,0
3:16.575,70767,p,0,0,0
3:16.625,70785,),0,0,0
3:16.689,70808,(,0,0,1
3:16.744,70828,N,0,0,0
3:16.828,70858,(,0,0,0
3:16.850,70866,),0,0,1
3:16.867,70872,p,0,0,0
3:16.875,70875,),0,0,0
3:17.019,70927,(,0,0,1
3:17.106,70958,N,0,0,0
3:17.175,70983,),0,0,1
3:17.256,71012,(,0,0,0
3:17.283,71022,p,0,0,0
3:17.311,71032,),0,0,0
3:17.428,71074,(,0,0,1
3:17.483,71094,N,0,0,0
3:17.550,71118,),0,0,1
3:17.692,71169,(,0,0,2
3:17.786,71203,t,0,0,0
3:17.889,71240,),0,0,2
3:18.128,71326,(,0,0,1
3:18.203,71353,N,0,0,0
3:18.308,71391,),0,0,1
3:18.406,71426,(,0,0,2
3:18.483,71454,t,0,0,0
3:18.603,71497,),0,0,2
3:19.767,71916,(,0,0,0
3:19.811,71932,p,0,0,0
3:19.897,71963,),0,0,0
3:19.925,71973,(,0,0,1
3:20.003,72001,N,0,0,0
3:20.078,72028,(,0,0,0
3:20.111,72040,),0,0,1
3:20.133,72048,p,0,0,0
3:20.153,72055,),0,0,0
3:20.256,72092,(,0,0,1
3:20.364,72131,N,0,0,0
3:20.472,72170,),0,0,1
3:20.506,72182,(,0,0,2
3:20.536,72193,t,0,0,0
3:20.561,72202,),0,0,2
3:20.628,72226,(,0,0,1
3:20.681,72245,N,0,0,0
3:20.786,72283,),0,0,1
3:20.889,72320,(,0,0,2
3:20.981,72353,t,0,0,0
3:21.089,72392,),0,0,2
3:22.156,72776,(,0,0,0
3:22.197,72791,p,0,0,0
3:22.283,72822,),0,0,0
3:22.331,72839,(,0,0,1
3:22.397,72863,N,0,0,0
3:22.400,72864,(,0,0,0
3:22.436,72877,p,0,0,0
3:22.511,72904,),0,0,0
3:22.511,72904,),0,0,1
3:22.597,72935,(,0,0,1
3:22.703,72973,N,0,0,0
3:22.844,73024,),0,0,1
3:22.878,73036,(,0,0,2
3:22.908,73047,t,0,0,0
3:22.936,73057,),0,0,2
3:22.989,73076,(,0,0,1
3:23.042,73095,N,0,0,0
3:23.144,73132,),0,0,1
3:23.250,73170,(,0,0,2
3:23.339,73202,t,0,0,0
3:23.453,73243,),0,0,2
3:23.489,73256,(,0,0,0
3:23.519,73267,p,0,0,0
3:23.553,73279,),0,0,0
3:23.692,73329,(,0,0,1
3:23.750,73350,N,0,0,0
3:23.867,73392,),0,0,1
3:23.947,73421,(,0,0,2
3:24.050,73458,t,0,0,0
3:24.164,73499,),0,0,2
3:24.217,73518,(,0,0,0
3:24.258,73533,p,0,0,0
3:24.283,73542,),0,0,0
3:24.400,73584,(,0,0,1
3:24.453,73603,N,0,0,0
3:24.575,73647,),0,0,1
3:24.672,73682,(,0,0,2
3:24.744,73708,t,0,0,0
3:24.858,73749,),0,0,2
3:24.953,73783,(,0,0,0
3:24.978,73792,p,0,0,0
3:25.003,73801,),0,0,0
3:25.097,73835,(,0,0,1
3:25.172,73862,N,0,0,0
3:25.289,73904,),0,0,1
3:25.389,73940,(,0,0,2
3:25.475,73971,t,0,0,0
3:25.600,74016,),0,0,2
3:26.758,74433,(,0,0,0
3:26.806,74450,p,0,0,0
3:26.883,74478,),0,0,0
3:26.897,74483,(,0,0,1
3:26.986,74515,N,0,0,0
3:27.092,74553,),0,0,1
3:27.189,74588,(,0,0,2
3:27.286,74623,t,0,0,0
3:27.414,74669,),0,0,2
3:28.669,75121,(,0,0,0
3:28.736,75145,p,0,0,0
3:28.817,75174,),0,0,0
3:28.833,75180,(,0,0,1
3:28.919,75211,N,0,0,0
3:29.042,75255,),0,0,1
3:29.144,75292,(,0,0,2
3:29.233,75324,t,0,0,0
3:29.347,75365,),0,0,2
3:29.358,75369,(,0,0,0
3:29.442,75399,p,0,0,0
3:29.464,75407,),0,0,0
3:29.531,75431,(,0,0,1
3:29.594,75454,N,0,0,0
3:29.711,75496,),0,0,1
3:29.803,75529,(,0,0,2
3:29.900,75564,t,0,0,0
3:30.017,75606,),0,0,2
3:30.042,75615,(,0,0,0
3:30.075,75627,p,0,0,0
3:30.117,75642,),0,0,0
3:30.264,75695,(,0,0,1
3:30.292,75705,(,0,0,0
3:30.317,75714,p,0,0,0
3:30.319,75715,N,0,0,0
3:30.347,75725,),0,0,0
3:30.439,75758,),0,0,1
3:30.497,75779,(,0,0,1
3:30.642,75831,N,0,0,0
3:30.731,75863,),0,0,1
3:31.956,76304,(,0,0,0
3:31.997,76319,p,0,0,0
3:32.081,76349,),0,0,0
3:32.136,76369,(,0,0,1
3:32.158,76377,(,0,0,0
3:32.183,76386,p,0,0,0
3:32.186,76387,N,0,0,0
3:32.214,76397,),0,0,0
3:32.214,76397,),0,0,1
3:32.367,76452,(,0,0,1
3:32.483,76494,N,0,0,0
3:32.594,76534,),0,0,1
3:32.617,76542,(,0,0,0
3:32.681,76565,p,0,0,0
3:32.725,76581,),0,0,0
3:32.794,76606,(,0,0,1
3:32.842,76623,N,0,0,0
3:32.950,76662,),0,0,1
3:33.003,76681,t,0,0,2
3:33.139,76730,),0,0,2
3:33.350,76806,(,0,0,0
3:33.394,76822,p,0,0,0
3:33.425,76833,),0,0,0
3:33.533,76872,(,0,0,1
3:33.575,76887,N,0,0,0
3:33.681,76925,),0,0,1
3:33.792,76965,(,0,0,2
3:33.858,76989,t,0,0,0
3:33.964,77027,),0,0,2
3:35.203,77473,(,0,0,0
3:35.244,77488,p,0,0,0
3:35.339,77522,),0,0,0
3:35.369,77533,(,0,0,1
3:35.447,77561,N,0,0,0
3:35.556,77600,),0,0,1
3:35.756,77672,(,0,0,1
3:35.775,77679,N,0,0,0
3:35.808,77691,),0,0,1
3:35.889,77720,(,0,0,0
3:35.972,77750,p,0,0,0
3:36.022,77768,),0,0,0
3:36.075,77787,(,0,0,1
3:36.108,77799,N,0,0,0
3:36.214,77837,),0,0,1
3:36.325,77877,(,0,0,2
3:36.408,77907,t,0,0,0
3:36.497,77939,),0,0,2
3:36.617,77982,(,0,0,0
3:36.650,77994,p,0,0,0
3:36.683,78006,),0,0,0
3:36.764,78035,(,0,0,1
3:36.833,78060,N,0,0,0
3:36.944,78100,),0,0,1
3:37.000,78120,t,0,0,2
3:37.119,78163,),0,0,2
3:38.442,78639,(,0,0,0
3:38.489,78656,p,0,0,0
3:38.567,78684,),0,0,0
3:38.633,78708,(,0,0,1
3:38.656,78716,(,0,0,0
3:38.681,78725,p,0,0,0
3:38.683,78726,N,0,0,0
3:38.711,78736,),0,0,0
3:38.794,78766,),0,0,1
3:38.867,78792,(,0,0,1
3:39.011,78844,N,0,0,0
3:39.100,78876,),0,0,1
3:39.131,78887,(,0,0,2
3:39.181,78905,t,0,0,0
3:39.200,78912,),0,0,2
3:39.331,78959,(,0,0,1
3:39.375,78975,N,0,0,0
3:39.483,79014,),0,0,1
3:39.575,79047,(,0,0,2
3:39.672,79082,t,0,0,0
3:39.769,79117,),0,0,2
3:40.042,79215,(,0,0,1
3:40.108,79239,N,0,0,0
3:40.219,79279,),0,0,1
3:40.317,79314,(,0,0,2
3:40.397,79343,t,0,0,0
3:40.547,79397,),0,0,2
3:40.569,79405,(,0,0,0
3:40.633,79428,p,0,0,0
3:40.697,79451,),0,0,0
3:40.733,79464,(,0,0,1
3:40.800,79488,N,0,0,0
3:40.911,79528,),0,0,1
3:41.006,79562,(,0,0,2
3:41.097,79595,t,0,0,0
3:41.203,79633,),0,0,2
3:41.225,79641,(,0,0,0
3:41.253,79651,p,0,0,0
3:41.306,79670,),0,0,0
3:41.428,79714,(,0,0,1
3:41.500,79740,N,0,0,0
3:41.544,79756,),0,0,1
3:41.972,79910,(,0,0,0
3:42.014,79925,p,0,0,0
3:42.039,79934,),0,0,0
3:42.139,79970,(,0,0,1
3:42.214,79997,N,0,0,0
3:42.325,80037,),0,0,1
3:42.411,80068,(,0,0,2
3:42.500,80100,t,0,0,0
3:42.617,80142,),0,0,2
3:43.894,80602,(,0,0,0
3:43.942,80619,p,0,0,0
3:44.031,80651,),0,0,0
3:44.067,80664,(,0,0,1
3:44.139,80690,N,0,0,0
3:44.144,80692,(,0,0,0
3:44.178,80704,p,0,0,0
3:44.253,80731,),0,0,0
3:44.253,80731,),0,0,1
3:44.339,80762,(,0,0,1
3:44.453,80803,N,0,0,0
3:44.475,80811,(,0,0,0
3:44.567,80844,p,0,0,0
3:44.611,80860,),0,0,1
3:44.617,80862,),0,0,0
3:44.733,80904,(,0,0,1
3:44.814,80933,N,0,0,0
3:44.917,80970,),0,0,1
3:45.006,81002,(,0,0,2
3:45.094,81034,t,0,0,0
3:45.197,81071,),0,0,2
3:45.361,81130,(,0,0,0
3:45.381,81137,p,0,0,0
3:45.408,81147,),0,0,0
3:45.497,81179,(,0,0,1
3:45.533,81192,N,0,0,0
3:45.647,81233,),0,0,1
3:45.661,81238,(,0,0,0
3:45.719,81259,p,0,0,0
3:45.806,81290,),0,0,0
3:45.842,81303,(,0,0,1
3:45.867,81312,N,0,0,0
3:45.911,81328,),0,0,1
3:45.969,81349,(,0,0,2
3:46.000,81360,t,0,0,1
3:46.042,81375,),0,0,2
3:46.058,81381,(,0,0,0
3:46.083,81390,p,0,0,0
3:46.103,81397,),0,0,0
3:46.167,81420,(,0,0,1
3:46.236,81445,N,0,0,0
3:46.344,81484,),0,0,1
3:46.456,81524,(,0,0,2
3:46.536,81553,t,0,0,0
3:46.686,81607,),0,0,2
3:46.708,81615,(,0,0,0
3:46.750,81630,p,0,0,0
3:46.786,81643,),0,0,0
3:46.900,81684,(,0,0,1
3:46.956,81704,N,0,0,0
3:47.067,81744,),0,0,1
3:47.181,81785,(,0,0,2
3:47.258,81813,t,0,0,0
3:47.361,81850,),0,0,2
3:47.436,81877,(,0,0,0
3:47.497,81899,p,0,0,0
3:47.528,81910,),0,0,0
3:47.633,81948,(,0,0,1
3:47.697,81971,N,0,0,0
3:47.808,82011,),0,0,1
3:48.225,82161,(,0,0,0
3:48.244,82168,p,0,0,0
3:48.269,82177,),0,0,0
3:48.339,82202,(,0,0,1
3:48.408,82227,N,0,0,0
3:48.522,82268,),0,0,1
3:48.578,82288,t,0,0,2
3:48.697,82331,),0,0,2
3:48.858,82389,(,0,0,0
3:48.889,82400,p,0,0,0
3:48.950,82422,),0,0,0
3:49.106,82478,(,0,0,1
3:49.156,82496,N,0,0,0
3:49.269,82537,),0,0,1
3:49.322,82556,t,0,0,2
3:49.436,82597,),0,0,2
3:49.644,82672,(,0,0,0
3:49.700,82692,p,0,0,0
3:49.747,82709,),0,0,0
3:49.808,82731,(,0,0,1
3:49.875,82755,N,0,0,0
3:49.986,82795,),0,0,1
3:50.069,82825,(,0,0,2
3:50.161,82858,t,0,0,0
3:50.300,82908,),0,0,2
3:50.364,82931,(,0,0,0
3:50.397,82943,p,0,0,0
3:50.422,82952,),0,0,0
3:50.536,82993,(,0,0,1
3:50.606,83018,N,0,0,0
3:50.717,83058,),0,0,1
3:50.817,83094,(,0,0,2
3:50.894,83122,t,0,0,0
3:51.033,83172,),0,0,2
3:51.092,83193,(,0,0,0
3:51.136,83209,p,0,0,0
3:51.164,83219,),0,0,0
3:51.272,83258,(,0,0,1
3:51.336,83281,N,0,0,0
3:51.444,83320,),0,0,1
3:51.536,83353,(,0,0,2
3:51.622,83384,t,0,0,0
3:51.742,83427,),0,0,2
3:51.839,83462,(,0,0,0
3:51.878,83476,p,0,0,0
3:51.903,83485,),0,0,0
3:52.031,83531,(,0,0,1
3:52.078,83548,N,0,0,0
3:52.186,83587,),0,0,1
3:52.281,83621,(,0,0,2
3:52.364,83651,t,0,0,0
3:52.472,83690,),0,0,2
3:52.572,83726,(,0,0,0
3:52.603,83737,p,0,0,0
3:52.628,83746,),0,0,0
3:52.742,83787,(,0,0,1
3:52.806,83810,N,0,0,0
3:52.919,83851,),0,0,1
3:53.019,83887,(,0,0,2
3:53.103,83917,t,0,0,0
3:53.206,83954,),0,0,2
3:53.325,83997,(,0,0,0
3:53.356,84008,p,0,0,0
3:53.378,84016,),0,0,0
3:53.472,84050,(,0,0,1
3:53.553,84079,N,0,0,0
3:53.658,84117,),0,0,1
3:53.747,84149,(,0,0,2
3:53.831,84179,t,0,0,0
3:53.933,84216,),0,0,2
3:53.997,84239,(,0,0,0
3:54.022,84248,p,0,0,0
3:54.067,84264,),0,0,0
3:54.208,84315,(,0,0,1
3:54.286,84343,N,0,0,0
3:54.397,84383,),0,0,1
3:54.483,84414,(,0,0,2
3:54.567,84444,t,0,0,0
3:54.675,84483,),0,0,2
3:54.722,84500,(,0,0,0
3:54.756,84512,p,0,0,0
3:54.792,84525,),0,0,0
3:54.933,84576,(,0,0,1
3:55.000,84600,N,0,0,0
3:55.108,84639,),0,0,1
3:55.200,84672,(,0,0,2
3:55.281,84701,t,0,0,0
3:55.406,84746,),0,0,2
3:56.339,85082,(,0,0,0
3:56.397,85103,p,0,0,0
3:56.472,85130,),0,0,0
3:56.542,85155,(,0,0,1
3:56.600,85176,N,0,0,0
3:56.708,85215,),0,0,1
3:56.814,85253,(,0,0,2
3:56.900,85284,t,0,0,0
3:57.028,85330,),0,0,2
3:57.053,85339,(,0,0,0
3:57.089,85352,p,0,0,0
3:57.167,85380,),0,0,0
3:57.239,85406,(,0,0,1
3:57.297,85427,N,0,0,0
3:57.411,85468,),0,0,1
3:57.494,85498,(,0,0,2
3:57.586,85531,t,0,0,0
3:57.692,85569,),0,0,2
3:57.817,85614,(,0,0,0
3:57.850,85626,p,0,0,0
3:57.875,85635,),0,0,0
3:58.006,85682,(,0,0,1
3:58.053,85699,N,0,0,0
3:58.158,85737,),0,0,1
3:58.253,85771,(,0,0,2
3:58.333,85800,t,0,0,0
3:58.433,85836,),0,0,2
3:58.703,85933,(,0,0,1
3:58.783,85962,N,0,0,0
3:58.889,86000,),0,0,1
3:58.986,86035,(,0,0,2
3:59.067,86064,t,0,0,0
3:59.194,86110,),0,0,2
3:59.225,86121,(,0,0,0
3:59.253,86131,p,0,0,0
3:59.289,86144,),0,0,0
3:59.469,86209,(,0,0,1
3:59.511,86224,N,0,0,0
3:59.622,86264,),0,0,1
3:59.761,86314,(,0,0,1
3:59.836,86341,N,0,0,0
3:59.861,86350,),0,0,1
4:02.072,87146,(,0,0,0
4:02.128,87166,p,0,0,0
4:02.208,87195,),0,0,0
4:02.239,87206,(,0,0,1
4:02.319,87235,N,0,0,0
4:02.419,87271,),0,0,1
4:02.528,87310,(,0,0,2
4:02.617,87342,t,0,0,0
4:02.725,87381,),0,0,2
4:03.400,87624,(,0,0,0
4:03.442,87639,p,0,0,0
4:03.525,87669,),0,0,0
4:03.572,87686,(,0,0,1
4:03.636,87709,N,0,0,0
4:03.717,87738,(,0,0,0
4:03.747,87749,),0,0,1
4:03.761,87754,p,0,0,0
4:03.775,87759,),0,0,0
4:03.936,87817,(,0,0,1
4:03.944,87820,(,0,0,0
4:03.947,87821,N,0,0,0
4:04.061,87862,p,0,0,0
4:04.106,87878,),0,0,0
4:04.114,87881,),0,0,1
4:04.242,87927,(,0,0,1
4:04.317,87954,N,0,0,0
4:04.422,87992,),0,0,1
4:04.539,88034,(,0,0,2
4:04.606,88058,t,0,0,0
4:04.717,88098,),0,0,2
4:04.831,88139,(,0,0,0
4:04.858,88149,p,0,0,0
4:04.894,88162,),0,0,0
4:05.003,88201,(,0,0,1
4:05.061,88222,N,0,0,0
4:05.178,88264,),0,0,1
4:05.544,88396,(,0,0,0
4:05.597,88415,p,0,0,0
4:05.622,88424,),0,0,0
4:05.750,88470,(,0,0,1
4:05.792,88485,N,0,0,0
4:05.892,88521,),0,0,1
4:05.992,88557,(,0,0,2
4:06.078,88588,t,0,0,0
4:06.192,88629,),0,0,2
4:06.228,88642,(,0,0,0
4:06.253,88651,p,0,0,0
4:06.308,88671,),0,0,0
4:06.436,88717,(,0,0,1
4:06.514,88745,N,0,0,0
4:06.622,88784,),0,0,1
4:06.706,88814,(,0,0,2
4:06.797,88847,t,0,0,0
4:06.903,88885,),0,0,2
4:06.947,88901,(,0,0,0
4:06.972,88910,p,0,0,0
4:07.019,88927,),0,0,0
4:07.144,88972,(,0,0,1
4:07.211,88996,N,0,0,0
4:07.322,89036,),0,0,1
4:07.408,89067,(,0,0,2
4:07.503,89101,t,0,0,0
4:07.611,89140,),0,0,2
4:07.875,89235,(,0,0,1
4:07.942,89259,N,0,0,0
4:08.050,89298,),0,0,1
4:08.133,89328,(,0,0,2
4:08.225,89361,t,0,0,0
4:08.331,89399,),0,0,2
4:08.394,89422,(,0,0,0
4:08.422,89432,p,0,0,0
4:08.467,89448,),0,0,0
4:08.642,89511,(,0,0,1
4:08.686,89527,N,0,0,0
4:08.792,89565,),0,0,1
4:08.894,89602,(,0,0,2
4:08.969,89629,t,0,0,0
4:09.078,89668,),0,0,2
4:09.175,89703,(,0,0,0
4:09.214,89717,p,0,0,0
4:09.236,89725,),0,0,0
4:09.367,89772,(,0,0,1
4:09.417,89790,N,0,0,0
4:09.497,89819,(,0,0,0
4:09.525,89829,),0,0,1
4:09.547,89837,p,0,0,0
4:09.567,89844,),0,0,0
4:09.697,89891,(,0,0,1
4:09.736,89905,N,0,0,0
4:09.889,89960,),0,0,1
4:09.950,89982,(,0,0,2
4:09.975,89991,t,0,0,1
4:09.989,89996,),0,0,2
4:11.175,90423,(,0,0,0
4:11.236,90445,p,0,0,0
4:11.272,90458,),0,0,0
4:11.381,90497,(,0,0,1
4:11.397,90503,(,0,0,0
4:11.422,90512,p,0,0,0
4:11.428,90514,N,0,0,0
4:11.453,90523,),0,0,0
4:11.533,90552,),0,0,1
4:11.578,90568,(,0,0,1
4:11.747,90629,N,0,0,0
4:11.783,90642,),0,0,1
4:11.875,90675,t,0,0,2
4:11.925,90693,),0,0,2
4:12.075,90747,(,0,0,1
4:12.131,90767,N,0,0,0
4:12.236,90805,),0,0,1
4:12.289,90824,t,0,0,2
4:12.411,90868,),0,0,2
4:12.592,90933,(,0,0,0
4:12.622,90944,p,0,0,0
4:12.656,90956,),0,0,0
4:12.778,91000,(,0,0,1
4:12.867,91032,N,0,0,0
4:12.981,91073,),0,0,1
4:14.564,91643,(,0,0,0
4:14.625,91665,p,0,0,0
4:14.703,91693,),0,0,0
4:14.767,91716,(,0,0,1
4:14.808,91731,N,0,0,0
4:14.922,91772,),0,0,1
4:15.019,91807,(,0,0,2
4:15.122,91844,t,0,0,0
4:15.236,91885,),0,0,2
4:15.269,91897,(,0,0,0
4:15.317,91914,p,0,0,0
4:15.347,91925,),0,0,0
4:15.453,91963,(,0,0,1
4:15.475,91971,(,0,0,0
4:15.500,91980,p,0,0,0
4:15.503,91981,N,0,0,0
4:15.531,91991,),0,0,0
4:15.611,92020,),0,0,1
4:15.656,92036,(,0,0,1
4:15.825,92097,N,0,0,0
4:15.875,92115,),0,0,1
4:15.969,92149,(,0,0,2
4:15.994,92158,t,0,0,0
4:16.058,92181,),0,0,2
4:17.000,92520,(,0,0,0
4:17.056,92540,p,0,0,0
4:17.133,92568,),0,0,0
4:17.178,92584,(,0,0,1
4:17.250,92610,N,0,0,0
4:17.361,92650,),0,0,1
4:17.456,92684,(,0,0,2
4:17.550,92718,t,0,0,0
4:17.669,92761,),0,0,2
4:17.686,92767,(,0,0,0
4:17.758,92793,p,0,0,0
4:17.814,92813,),0,0,0
4:17.883,92838,(,0,0,1
4:17.928,92854,N,0,0,0
4:18.031,92891,),0,0,1
4:18.486,93055,(,0,0,0
4:18.511,93064,p,0,0,0
4:18.533,93072,),0,0,0
4:18.611,93100,(,0,0,1
4:18.672,93122,N,0,0,0
4:18.781,93161,),0,0,1
4:19.147,93293,(,0,0,0
4:19.192,93309,p,0,0,0
4:19.217,93318,),0,0,0
4:19.344,93364,(,0,0,1
4:19.397,93383,N,0,0,0
4:19.508,93423,),0,0,1
4:19.903,93565,(,0,0,0
4:19.928,93574,p,0,0,0
4:19.958,93585,),0,0,0
4:20.047,93617,(,0,0,1
4:20.128,93646,N,0,0,0
4:20.231,93683,),0,0,1
4:20.339,93722,(,0,0,2
4:20.419,93751,t,0,0,0
4:20.517,93786,),0,0,2
4:21.578,94168,(,0,0,0
4:21.642,94191,p,0,0,0
4:21.719,94219,),0,0,0
4:21.778,94240,(,0,0,1
4:21.836,94261,N,0,0,0
4:21.947,94301,),0,0,1
4:21.961,94306,(,0,0,0
4:21.975,94311,p,0,0,0
4:22.133,94368,),0,0,0
4:22.153,94375,(,0,0,1
4:22.197,94391,N,0,0,0
4:22.219,94399,),0,0,1
4:22.278,94420,(,0,0,2
4:22.328,94438,t,0,0,0
4:22.347,94445,),0,0,2
4:22.475,94491,(,0,0,1
4:22.536,94513,N,0,0,0
4:22.658,94557,),0,0,1
4:22.756,94592,(,0,0,2
4:22.836,94621,t,0,0,0
4:22.931,94655,),0,0,2
4:23.050,94698,(,0,0,0
4:23.103,94717,p,0,0,0
4:23.133,94728,),0,0,0
4:23.244,94768,(,0,0,1
4:23.300,94788,N,0,0,0
4:23.411,94828,),0,0,1
4:23.456,94844,(,0,0,2
4:23.475,94851,t,0,0,1
4:23.589,94892,),0,0,2
4:24.978,95392,(,0,0,0
4:25.025,95409,p,0,0,0
4:25.108,95439,),0,0,0
4:25.175,95463,(,0,0,1
4:25.197,95471,(,0,0,0
4:25.222,95480,p,0,0,0
4:25.228,95482,N,0,0,0
4:25.253,95491,),0,0,0
4:25.333,95520,),0,0,1
4:25.414,95549,(,0,0,1
4:25.528,95590,N,0,0,0
4:25.619,95623,),0,0,1
4:25.664,95639,(,0,0,2
4:25.742,95667,t,0,0,0
4:25.767,95676,),0,0,2
4:25.811,95692,(,0,0,1
4:25.900,95724,N,0,0,0
4:26.008,95763,),0,0,1
4:26.419,95911,(,0,0,0
4:26.444,95920,p,0,0,0
4:26.469,95929,),0,0,0
4:26.575,95967,(,0,0,1
4:26.633,95988,N,0,0,0
4:26.739,96026,),0,0,1
4:26.808,96051,t,0,0,2
4:26.919,96091,),0,0,2
4:27.128,96166,(,0,0,0
4:27.158,96177,p,0,0,0
4:27.194,96190,),0,0,0
4:27.314,96233,(,0,0,1
4:27.372,96254,N,0,0,0
4:27.489,96296,),0,0,1
4:27.575,96327,(,0,0,2
4:27.667,96360,t,0,0,0
4:27.764,96395,),0,0,2
4:27.878,96436,(,0,0,0
4:27.908,96447,p,0,0,0
4:27.933,96456,),0,0,0
4:28.047,96497,(,0,0,1
4:28.117,96522,N,0,0,0
4:28.231,96563,),0,0,1
4:28.339,96602,(,0,0,2
4:28.417,96630,t,0,0,0
4:28.514,96665,),0,0,2
4:28.603,96697,(,0,0,0
4:28.653,96715,p,0,0,0
4:28.678,96724,),0,0,0
4:28.783,96762,(,0,0,1
4:28.850,96786,N,0,0,0
4:28.961,96826,),0,0,1
4:29.067,96864,(,0,0,2
4:29.142,96891,t,0,0,0
4:29.244,96928,),0,0,2
4:30.583,97410,(,0,0,0
4:30.639,97430,p,0,0,0
4:30.717,97458,),0,0,0
4:30.778,97480,(,0,0,1
4:30.803,97489,(,0,0,0
4:30.828,97498,p,0,0,0
4:30.833,97500,N,0,0,0
4:30.858,97509,),0,0,0
4:30.942,97539,),0,0,1
4:31.008,97563,(,0,0,1
4:31.153,97615,N,0,0,0
4:31.247,97649,),0,0,1
4:31.283,97662,(,0,0,0
4:31.353,97687,p,0,0,0
4:31.408,97707,),0,0,0
4:31.472,97730,(,0,0,1
4:31.522,97748,N,0,0,0
4:31.528,97750,(,0,0,0
4:31.564,97763,p,0,0,0
4:31.631,97787,),0,0,1
4:31.633,97788,),0,0,0
4:31.714,97817,(,0,0,1
4:31.833,97860,N,0,0,0
4:31.961,97906,),0,0,1
4:33.114,98321,(,0,0,0
4:33.158,98337,p,0,0,0
4:33.239,98366,),0,0,0
4:33.303,98389,(,0,0,1
4:33.319,98395,(,0,0,0
4:33.344,98404,p,0,0,0
4:33.350,98406,N,0,0,0
4:33.375,98415,),0,0,0
4:33.458,98445,),0,0,1
4:33.481,98453,(,0,0,1
4:33.656,98516,N,0,0,0
4:33.822,98576,),0,0,1
4:33.856,98588,(,0,0,2
4:33.883,98598,t,0,0,0
4:33.908,98607,),0,0,2
4:33.997,98639,(,0,0,1
4:34.033,98652,N,0,0,0
4:34.144,98692,),0,0,1
4:34.239,98726,(,0,0,2
4:34.325,98757,t,0,0,0
4:34.419,98791,),0,0,2
4:34.525,98829,(,0,0,0
4:34.567,98844,p,0,0,0
4:34.619,98863,),0,0,0
4:34.714,98897,(,0,0,1
4:34.781,98921,N,0,0,0
4:34.894,98962,),0,0,1
4:34.992,98997,(,0,0,2
4:35.075,99027,t,0,0,0
4:35.206,99074,),0,0,2
4:35.264,99095,(,0,0,0
4:35.300,99108,p,0,0,0
4:35.328,99118,),0,0,0
4:35.414,99149,(,0,0,1
4:35.497,99179,N,0,0,0
4:35.611,99220,),0,0,1
4:35.781,99281,(,0,0,0
4:35.800,99288,p,0,0,0
4:35.867,99312,),0,0,0
4:35.956,99344,(,0,0,1
4:36.025,99369,N,0,0,0
4:36.094,99394,),0,0,1
4:36.211,99436,(,0,0,2
4:36.242,99447,t,0,0,5
4:36.283,99462,t,0,0,5
4:36.317,99474,),0,0,2
4:36.511,99544,(,0,0,1
4:36.539,99554,N,0,0,0
4:36.558,99561,),0,0,1
4:36.917,99690,(,0,0,1
4:37.000,99720,N,0,0,0
4:37.039,99734,),0,0,1
4:37.219,99799,(,0,0,2
4:37.247,99809,t,0,0,1
4:37.303,99829,),0,0,2
4:37.742,99987,(,0,0,0
4:37.767,99996,(,0,0,1
4:37.786   100003,p,0,0,0
4:37.814   100013,),0,0,0
4:37.817   100014,),0,0,1
4:37.958   100065,(,0,0,1
4:38.022   100088,N,0,0,0
4:38.022   100088,),0,0,1
4:38.036   100093,(,0,0,2
4:38.197   100151,t,0,0,0
4:38.397   100223,),0,0,2
4:38.556   100280,(,0,0,0
4:38.564   100283,p,0,0,0
4:38.572   100286,),0,0,0
4:38.644   100312,(,0,0,1
4:38.697   100331,N,0,0,0
4:38.700   100332,),0,0,1
4:38.867   100392,(,0,0,2
4:38.950   100422,t,0,0,0
4:39.039   100454,),0,0,2
4:39.353   100567,(,0,0,1
4:39.397   100583,N,0,0,0
4:39.422   100592,),0,0,1
4:39.475   100611,(,0,0,2
4:39.567   100644,t,0,0,5
4:39.911   100768,t,0,0,5
4:39.936   100777,),0,0,2
4:41.056   101180,(,0,0,0
4:41.092   101193,p,0,0,0
4:41.119   101203,),0,0,0
4:41.253   101251,(,0,0,1
4:41.281   101261,N,0,0,0
4:41.308   101271,),0,0,1
4:41.931   101495,(,0,0,2
4:41.958   101505,t,0,0,5
4:42.003   101521,t,0,0,5
4:42.075   101547,),0,0,2
4:42.344   101644,(,0,0,0
4:42.436   101677,p,0,0,0
4:42.469   101689,),0,0,0
4:42.661   101758,(,0,0,1
4:42.686   101767,N,0,0,0
4:42.711   101776,),0,0,1
4:42.764   101795,(,0,0,2
4:42.919   101851,t,0,0,0
4:43.081   101909,),0,0,2
4:43.353   102007,(,0,0,1
4:43.397   102023,N,0,0,0
4:43.422   102032,),0,0,1
4:43.472   102050,(,0,0,2
4:43.692   102129,t,0,0,0
4:43.797   102167,),0,0,2
4:45.819   102895,(,0,0,0
4:45.856   102908,p,0,0,0
4:45.964   102947,),0,0,0
4:46.028   102970,(,0,0,1
4:46.058   102981,N,0,0,0
4:46.083   102990,),0,0,1
4:46.131   103007,(,0,0,2
4:46.283   103062,t,0,0,0
4:46.456   103124,),0,0,2
4:46.936   103297,(,0,0,0
4:46.994   103318,p,0,0,0
4:47.056   103340,),0,0,0
4:47.136   103369,(,0,0,1
4:47.186   103387,N,0,0,0
4:47.214   103397,),0,0,1
4:47.842   103623,(,0,0,2
4:47.872   103634,t,0,0,5
4:47.917   103650,t,0,0,5
4:48.008   103683,),0,0,2
4:48.317   103794,(,0,0,0
4:48.342   103803,p,0,0,0
4:48.406   103826,),0,0,0
4:48.561   103882,(,0,0,1
4:48.614   103901,N,0,0,0
4:48.642   103911,),0,0,1
4:50.292   104505,(,0,0,0
4:50.339   104522,p,0,0,0
4:50.411   104548,),0,0,0
4:50.511   104584,(,0,0,1
4:50.539   104594,N,0,0,0
4:50.564   104603,),0,0,1
4:51.167   104820,(,0,0,2
4:51.194   104830,t,0,0,5
4:51.239   104846,t,0,0,5
4:51.317   104874,),0,0,2
4:51.653   104995,(,0,0,0
4:51.678   105004,p,0,0,0
4:51.719   105019,),0,0,0
4:51.900   105084,(,0,0,1
4:51.931   105095,N,0,0,0
4:51.953   105103,),0,0,1
4:51.997   105119,(,0,0,2
4:52.222   105200,t,0,0,0
4:52.322   105236,),0,0,2
4:55.144   106252,(,0,0,0
4:55.181   106265,p,0,0,0
4:55.250   106290,),0,0,0
4:55.344   106324,(,0,0,1
4:55.372   106334,N,0,0,0
4:55.394   106342,),0,0,1
4:55.411   106348,t,0,0,2
4:55.503   106381,),0,0,2
4:55.728   106462,(,0,0,0
4:55.797   106487,p,0,0,0
4:55.856   106508,),0,0,0
4:55.994   106558,(,0,0,1
4:56.056   106580,N,0,0,0
4:56.081   106589,),0,0,1
4:56.742   106827,(,0,0,2
4:56.772   106838,t,0,0,0
4:56.808   106851,),0,0,2
4:57.281   107021,(,0,0,0
4:57.308   107031,p,0,0,0
4:57.331   107039,),0,0,0
4:57.472   107090,(,0,0,1
4:57.503   107101,N,0,0,0
4:57.528   107110,),0,0,1
4:58.211   107356,(,0,0,2
4:58.239   107366,t,0,0,0
4:58.278   107380,),0,0,2
5:02.067   108744,(,0,0,0
5:02.128   108766,p,0,0,0
5:02.214   108797,),0,0,0
5:02.306   108830,(,0,0,1
5:02.336   108841,N,0,0,0
5:02.361   108850,),0,0,1
5:02.408   108867,(,0,0,2
5:02.553   108919,t,0,0,0
5:02.728   108982,),0,0,2
5:08.947   111221,(,0,0,0
5:09.031   111251,p,0,0,0
5:09.108   111279,),0,0,0
5:09.142   111291,(,0,0,1
5:09.194   111310,N,0,0,0
5:09.219   111319,),0,0,1
5:09.900   111564,(,0,0,2
5:09.931   111575,t,0,0,0
5:09.969   111589,),0,0,2
5:16.644   113992,(,0,0,0
5:16.747   114029,p,0,0,0
5:16.797   114047,),0,0,0
5:16.978   114112,(,0,0,1
5:17.003   114121,N,0,0,0
5:17.028   114130,),0,0,1
5:17.075   114147,(,0,0,2
5:17.294   114226,t,0,0,0
5:17.383   114258,),0,0,2
5:18.433   114636,(,0,0,0
5:18.486   114655,p,0,0,0
5:18.564   114683,),0,0,0
5:18.647   114713,(,0,0,1
5:18.678   114724,N,0,0,0
5:18.703   114733,),0,0,1
5:19.306   114950,(,0,0,2
5:19.333   114960,t,0,0,5
5:19.375   114975,t,0,0,5
5:19.453   115003,),0,0,2
5:20.042   115215,(,0,0,1
5:20.069   115225,N,0,0,0
5:20.092   115233,),0,0,1
5:20.758   115473,(,0,0,2
5:20.789   115484,t,0,0,0
5:20.825   115497,),0,0,2
5:21.983   115914,(,0,0,0
5:22.017   115926,p,0,0,0
5:22.044   115936,),0,0,0
5:22.186   115987,(,0,0,1
5:22.217   115998,N,0,0,0
5:22.242   116007,),0,0,1
5:22.303   116029,(,0,0,2
5:22.511   116104,t,0,0,0
5:22.619   116143,),0,0,2
5:22.658   116157,(,0,0,0
5:22.683   116166,p,0,0,0
5:22.731   116183,),0,0,0
5:22.908   116247,(,0,0,1
5:22.936   116257,N,0,0,0
5:22.958   116265,),0,0,1
5:23.619   116503,(,0,0,2
5:23.650   116514,t,0,0,5
5:23.694   116530,t,0,0,5
5:23.778   116560,),0,0,2
5:26.569   117565,(,0,0,0
5:26.686   117607,p,0,0,0
5:26.728   117622,),0,0,0
5:26.908   117687,(,0,0,1
5:26.936   117697,N,0,0,0
5:26.961   117706,),0,0,1
5:26.992   117717,(,0,0,2
5:27.222   117800,t,0,0,0
5:27.317   117834,),0,0,2
5:28.450   118242,(,0,0,0
5:28.489   118256,p,0,0,0
5:28.572   118286,),0,0,0
5:28.653   118315,(,0,0,1
5:28.692   118329,N,0,0,0
5:28.717   118338,),0,0,1
5:28.733   118344,t,0,0,2
5:28.814   118373,),0,0,2
5:29.028   118450,(,0,0,0
5:29.125   118485,p,0,0,0
5:29.175   118503,),0,0,0
5:29.358   118569,(,0,0,1
5:29.386   118579,N,0,0,0
5:29.417   118590,),0,0,1
5:30.100   118836,(,0,0,2
5:30.128   118846,t,0,0,0
5:30.167   118860,),0,0,2
5:31.711   119416,(,0,0,0
5:31.750   119430,p,0,0,0
5:31.833   119460,),0,0,0
5:31.917   119490,(,0,0,1
5:31.947   119501,N,0,0,0
5:31.969   119509,),0,0,1
5:32.019   119527,(,0,0,2
5:32.253   119611,t,0,0,0
5:32.325   119637,),0,0,2
5:32.356   119648,(,0,0,0
5:32.372   119654,p,0,0,0
5:32.411   119668,),0,0,0
5:32.589   119732,(,0,0,1
5:32.619   119743,N,0,0,0
5:32.644   119752,),0,0,1
5:32.694   119770,(,0,0,2
5:32.836   119821,t,0,0,0
5:33.019   119887,),0,0,2
5:33.186   119947,(,0,0,0
5:33.197   119951,p,0,0,0
5:33.228   119962,),0,0,0
5:33.328   119998,(,0,0,1
5:33.367   120012,N,0,0,0
5:33.392   120021,),0,0,1
5:34.036   120253,(,0,0,2
5:34.067   120264,t,0,0,5
5:34.108   120279,t,0,0,5
5:34.192   120309,),0,0,2
5:37.697   121571,(,0,0,0
5:37.806   121610,p,0,0,0
5:37.856   121628,),0,0,0
5:38.008   121683,(,0,0,1
5:38.058   121701,N,0,0,0
5:38.083   121710,),0,0,1
5:38.769   121957,(,0,0,2
5:38.800   121968,t,0,0,0
5:38.836   121981,),0,0,2
5:41.872   123074,(,0,0,1
5:41.914   123089,N,0,0,0
5:41.939   123098,),0,0,1
5:42.550   123318,(,0,0,2
5:42.578   123328,t,0,0,5
5:42.619   123343,t,0,0,5
5:42.700   123372,),0,0,2
5:46.108   124599,(,0,0,0
5:46.139   124610,p,0,0,0
5:46.178   124624,),0,0,0
5:46.308   124671,(,0,0,1
5:46.333   124680,N,0,0,0
5:46.358   124689,),0,0,1
5:46.975   124911,(,0,0,2
5:47.003   124921,t,0,0,5
5:47.044   124936,t,0,0,5
5:47.153   124975,),0,0,2
5:48.419   125431,(,0,0,1
5:48.453   125443,N,0,0,0
5:48.475   125451,),0,0,1
5:48.533   125472,(,0,0,2
5:48.681   125525,t,0,0,0
5:48.853   125587,),0,0,2
5:48.961   125626,(,0,0,0
5:48.992   125637,p,0,0,0
5:49.017   125646,),0,0,0
5:49.128   125686,(,0,0,1
5:49.178   125704,N,0,0,0
5:49.203   125713,),0,0,1
5:49.253   125731,(,0,0,2
5:49.381   125777,t,0,0,0
5:49.550   125838,),0,0,2
5:50.897   126323,(,0,0,0
5:50.936   126337,p,0,0,0
5:51.031   126371,),0,0,0
5:51.114   126401,(,0,0,1
5:51.144   126412,N,0,0,0
5:51.172   126422,),0,0,1
5:51.800   126648,(,0,0,2
5:51.831   126659,t,0,0,5
5:51.872   126674,t,0,0,5
5:51.947   126701,),0,0,2
5:58.217   128958,(,0,0,0
5:58.272   128978,p,0,0,0
5:58.350   129006,),0,0,0
5:58.428   129034,(,0,0,1
5:58.464   129047,N,0,0,0
5:58.489   129056,),0,0,1
5:59.117   129282,(,0,0,2
5:59.144   129292,t,0,0,5
5:59.186   129307,t,0,0,5
5:59.267   129336,),0,0,2
5:59.661   129478,(,0,0,0
5:59.697   129491,p,0,0,0
5:59.722   129500,),0,0,0
5:59.878   129556,(,0,0,1
5:59.906   129566,N,0,0,0
5:59.931   129575,),0,0,1
6:00.606   129818,(,0,0,2
6:00.633   129828,t,0,0,0
6:00.669   129841,),0,0,2
6:07.919   132451,(,0,0,0
6:08.031   132491,p,0,0,0
6:08.072   132506,),0,0,0
6:08.256   132572,(,0,0,1
6:08.286   132583,N,0,0,0
6:08.308   132591,),0,0,1
6:08.992   132837,(,0,0,2
6:09.022   132848,t,0,0,0
6:09.058   132861,),0,0,2
6:13.350   134406,(,0,0,0
6:13.378   134416,p,0,0,0
6:13.403   134425,),0,0,0
6:13.542   134475,(,0,0,1
6:13.575   134487,N,0,0,0
6:13.600   134496,),0,0,1
6:13.647   134513,(,0,0,2
6:13.872   134594,t,0,0,0
6:13.989   134636,),0,0,2
6:15.919   135331,(,0,0,0
6:16.000   135360,p,0,0,0
6:16.047   135377,),0,0,0
6:16.117   135402,(,0,0,1
6:16.144   135412,N,0,0,0
6:16.169   135421,),0,0,1
6:16.856   135668,(,0,0,2
6:16.886   135679,t,0,0,0
6:16.922   135692,),0,0,2
6:22.253   137611,(,0,0,0
6:22.300   137628,p,0,0,0
6:22.372   137654,),0,0,0
6:22.461   137686,(,0,0,1
6:22.492   137697,N,0,0,0
6:22.517   137706,),0,0,1
6:22.564   137723,(,0,0,2
6:22.717   137778,t,0,0,0
6:22.900   137844,),0,0,2
6:23.572   138086,(,0,0,0
6:23.639   138110,p,0,0,0
6:23.692   138129,),0,0,0
6:23.764   138155,(,0,0,1
6:23.825   138177,N,0,0,0
6:23.878   138196,),0,0,1
6:23.881   138197,t,0,0,2
6:23.947   138221,),0,0,2
6:24.472   138410,(,0,0,1
6:24.497   138419,N,0,0,0
6:24.522   138428,),0,0,1
6:24.569   138445,(,0,0,2
6:24.731   138503,t,0,0,0
6:24.889   138560,),0,0,2
6:25.164   138659,(,0,0,1
6:25.233   138684,N,0,0,0
6:25.258   138693,),0,0,1
6:25.317   138714,(,0,0,2
6:25.456   138764,t,0,0,0
6:25.636   138829,),0,0,2
6:25.714   138857,(,0,0,0
6:25.722   138860,p,0,0,0
6:25.747   138869,),0,0,0
6:25.931   138935,(,0,0,1
6:25.969   138949,N,0,0,0
6:26.047   138977,),0,0,1
6:26.208   139035,(,0,0,2
6:26.278   139060,t,0,0,0
6:26.400   139104,),0,0,2
6:26.475   139131,(,0,0,0
6:26.508   139143,p,0,0,0
6:26.542   139155,),0,0,0
6:26.639   139190,(,0,0,1
6:26.703   139213,N,0,0,0
6:26.767   139236,),0,0,1
6:26.922   139292,(,0,0,2
6:26.981   139313,t,0,0,0
6:27.089   139352,),0,0,2
6:27.153   139375,(,0,0,0
6:27.175   139383,p,0,0,0
6:27.197   139391,),0,0,0
6:27.400   139464,(,0,0,1
6:27.431   139475,N,0,0,0
6:27.456   139484,),0,0,1
6:27.508   139503,(,0,0,2
6:27.653   139555,t,0,0,0
6:27.814   139613,),0,0,2
6:27.844   139624,(,0,0,0
6:27.892   139641,p,0,0,0
6:27.931   139655,),0,0,0
6:28.086   139711,(,0,0,1
6:28.136   139729,N,0,0,0
6:28.211   139756,),0,0,1
6:28.439   139838,(,0,0,2
6:28.539   139874,t,0,0,1
6:28.625   139905,),0,0,2
6:29.722   140300,(,0,0,1
6:29.750   140310,N,0,0,0
6:29.778   140320,),0,0,1
6:29.822   140336,(,0,0,2
6:29.961   140386,t,0,0,0
6:30.139   140450,),0,0,2
6:30.158   140457,(,0,0,0
6:30.175   140463,p,0,0,0
6:30.208   140475,),0,0,0
6:30.406   140546,(,0,0,1
6:30.436   140557,N,0,0,0
6:30.461   140566,),0,0,1
6:30.653   140635,(,0,0,2
6:30.731   140663,t,0,0,0
6:30.831   140699,),0,0,2
6:31.156   140816,(,0,0,1
6:31.183   140826,N,0,0,0
6:31.211   140836,),0,0,1
6:31.903   141085,(,0,0,2
6:31.933   141096,t,0,0,0
6:31.969   141109,),0,0,2
6:32.411   141268,(,0,0,0
6:32.467   141288,p,0,0,0
6:32.553   141319,),0,0,0
6:32.639   141350,(,0,0,1
6:32.672   141362,N,0,0,0
6:32.697   141371,),0,0,1
6:32.742   141387,(,0,0,2
6:32.958   141465,t,0,0,0
6:33.075   141507,),0,0,2
6:33.114   141521,(,0,0,0
6:33.142   141531,p,0,0,0
6:33.183   141546,),0,0,0
6:33.364   141611,(,0,0,1
6:33.394   141622,N,0,0,0
6:33.422   141632,),0,0,1
6:33.436   141637,(,0,0,2
6:33.681   141725,t,0,0,0
6:33.775   141759,),0,0,2
6:33.808   141771,(,0,0,0
6:33.875   141795,p,0,0,0
6:33.914   141809,),0,0,0
6:34.097   141875,(,0,0,1
6:34.128   141886,N,0,0,0
6:34.156   141896,),0,0,1
6:34.169   141901,(,0,0,2
6:34.350   141966,t,0,0,0
6:34.531   142031,),0,0,2
6:34.642   142071,(,0,0,0
6:34.678   142084,p,0,0,0
6:34.708   142095,),0,0,0
6:34.850   142146,(,0,0,1
6:34.881   142157,N,0,0,0
6:34.906   142166,),0,0,1
6:34.958   142185,(,0,0,2
6:35.092   142233,t,0,0,0
6:35.292   142305,),0,0,2
6:37.497   143099,(,0,0,0
6:37.542   143115,p,0,0,0
6:37.619   143143,),0,0,0
6:37.697   143171,(,0,0,1
6:37.728   143182,N,0,0,0
6:37.756   143192,),0,0,1
6:37.942   143259,(,0,0,2
6:38.039   143294,t,0,0,0
6:38.150   143334,),0,0,2
6:38.622   143504,(,0,0,0
6:38.669   143521,p,0,0,0
6:38.747   143549,),0,0,0
6:38.836   143581,(,0,0,1
6:38.867   143592,N,0,0,0
6:38.892   143601,),0,0,1
6:39.533   143832,(,0,0,2
6:39.564   143843,t,0,0,0
6:39.597   143855,),0,0,2
6:40.264   144095,(,0,0,1
6:40.300   144108,N,0,0,0
6:40.325   144117,),0,0,1
6:40.519   144187,(,0,0,2
6:40.600   144216,t,0,0,0
6:40.694   144250,),0,0,2
6:40.742   144267,(,0,0,0
6:40.769   144277,p,0,0,0
6:40.811   144292,),0,0,0
6:40.989   144356,(,0,0,1
6:41.019   144367,N,0,0,0
6:41.044   144376,),0,0,1
6:41.228   144442,(,0,0,2
6:41.311   144472,t,0,0,0
6:41.419   144511,),0,0,2
6:42.708   144975,(,0,0,0
6:42.744   144988,p,0,0,0
6:42.822   145016,),0,0,0
6:42.908   145047,(,0,0,1
6:42.939   145058,N,0,0,0
6:42.964   145067,),0,0,1
6:43.578   145288,(,0,0,1
6:43.636   145309,N,0,0,0
6:43.661   145318,),0,0,1
6:43.717   145338,(,0,0,2
6:43.853   145387,t,0,0,0
6:44.042   145455,),0,0,2
6:44.206   145514,(,0,0,0
6:44.228   145522,p,0,0,0
6:44.258   145533,),0,0,0
6:44.356   145568,(,0,0,1
6:44.386   145579,N,0,0,0
6:44.408   145587,),0,0,1
6:44.458   145605,(,0,0,2
6:44.681   145685,t,0,0,0
6:44.772   145718,),0,0,2
6:49.078   147268,(,0,0,1
6:49.103   147277,N,0,0,0
6:49.128   147286,),0,0,1
6:49.794   147526,(,0,0,2
6:49.822   147536,t,0,0,5
6:49.864   147551,t,0,0,5
6:49.947   147581,),0,0,2
6:50.997   147959,(,0,0,0
6:51.036   147973,p,0,0,0
6:51.069   147985,),0,0,0
6:51.256   148052,(,0,0,1
6:51.283   148062,N,0,0,0
6:51.308   148071,),0,0,1
6:51.361   148090,(,0,0,2
6:51.489   148136,t,0,0,0
6:51.678   148204,),0,0,2
6:51.742   148227,(,0,0,0
6:51.767   148236,p,0,0,0
6:51.814   148253,),0,0,0
6:51.997   148319,(,0,0,1
6:52.028   148330,N,0,0,0
6:52.053   148339,),0,0,1
6:52.106   148358,(,0,0,2
6:52.250   148410,t,0,0,0
6:52.431   148475,),0,0,2
6:52.528   148510,(,0,0,0
6:52.558   148521,p,0,0,0
6:52.589   148532,),0,0,0
6:52.747   148589,(,0,0,1
6:52.781   148601,N,0,0,0
6:52.806   148610,),0,0,1
6:53.478   148852,(,0,0,2
6:53.508   148863,t,0,0,0
6:53.547   148877,),0,0,2
7:00.978   151552,(,0,0,1
7:01.008   151563,N,0,0,0
7:01.033   151572,),0,0,1
7:01.089   151592,(,0,0,2
7:01.231   151643,t,0,0,0
7:01.394   151702,),0,0,2
7:01.475   151731,(,0,0,0
7:01.500   151740,p,0,0,0
7:01.547   151757,),0,0,0
7:01.728   151822,(,0,0,1
7:01.756   151832,N,0,0,0
7:01.783   151842,),0,0,1
7:02.450   152082,(,0,0,2
7:02.481   152093,t,0,0,0
7:02.517   152106,),0,0,2
7:04.836   152941,(,0,0,0
7:04.903   152965,p,0,0,0
7:04.969   152989,),0,0,0
7:05.019   153007,(,0,0,1
7:05.078   153028,N,0,0,0
7:05.106   153038,),0,0,1
7:05.150   153054,(,0,0,2
7:05.317   153114,t,0,0,0
7:05.467   153168,),0,0,2
7:06.061   153382,(,0,0,0
7:06.108   153399,p,0,0,0
7:06.192   153429,),0,0,0
7:06.244   153448,(,0,0,1
7:06.311   153472,N,0,0,0
7:06.336   153481,),0,0,1
7:06.386   153499,(,0,0,2
7:06.539   153554,t,0,0,0
7:06.697   153611,),0,0,2
7:06.725   153621,(,0,0,0
7:06.761   153634,p,0,0,0
7:06.817   153654,),0,0,0
7:06.953   153703,(,0,0,1
7:07.003   153721,N,0,0,0
7:07.028   153730,),0,0,1
7:07.692   153969,(,0,0,2
7:07.719   153979,t,0,0,0
7:07.756   153992,),0,0,2
7:09.361   154570,(,0,0,0
7:09.400   154584,p,0,0,0
7:09.428   154594,),0,0,0
7:09.556   154640,(,0,0,1
7:09.586   154651,N,0,0,0
7:09.611   154660,),0,0,1
7:10.269   154897,(,0,0,1
7:10.297   154907,N,0,0,0
7:10.322   154916,),0,0,1
7:10.372   154934,(,0,0,2
7:10.503   154981,t,0,0,0
7:10.694   155050,),0,0,2
7:10.750   155070,(,0,0,0
7:10.792   155085,p,0,0,0
7:10.831   155099,),0,0,0
7:11.014   155165,(,0,0,1
7:11.039   155174,N,0,0,0
7:11.064   155183,),0,0,1
7:11.725   155421,(,0,0,2
7:11.756   155432,t,0,0,0
7:11.794   155446,),0,0,2
7:12.442   155679,(,0,0,1
7:12.489   155696,N,0,0,0
7:12.514   155705,),0,0,1
7:12.561   155722,(,0,0,2
7:12.694   155770,t,0,0,0
7:12.867   155832,),0,0,2
7:14.078   156268,(,0,0,0
7:14.147   156293,p,0,0,0
7:14.228   156322,),0,0,0
7:14.278   156340,(,0,0,1
7:14.342   156363,N,0,0,0
7:14.369   156373,),0,0,1
7:14.419   156391,(,0,0,2
7:14.578   156448,t,0,0,0
7:14.731   156503,),0,0,2
7:14.764   156515,(,0,0,0
7:14.789   156524,p,0,0,0
7:14.825   156537,),0,0,0
7:15.006   156602,(,0,0,1
7:15.033   156612,N,0,0,0
7:15.061   156622,),0,0,1
7:15.750   156870,(,0,0,2
7:15.781   156881,t,0,0,0
7:15.817   156894,),0,0,2
7:19.733   158304,(,0,0,1
7:19.767   158316,N,0,0,0
7:19.850   158346,),0,0,1
7:19.983   158394,(,0,0,2
7:20.067   158424,t,0,0,0
7:20.172   158462,),0,0,2
7:20.464   158567,(,0,0,1
7:20.494   158578,N,0,0,0
7:20.519   158587,),0,0,1
7:20.572   158606,(,0,0,2
7:20.697   158651,t,0,0,0
7:20.864   158711,),0,0,2
7:20.981   158753,(,0,0,0
7:21.014   158765,p,0,0,0
7:21.036   158773,),0,0,0
7:21.189   158828,(,0,0,1
7:21.217   158838,N,0,0,0
7:21.242   158847,),0,0,1
7:21.903   159085,(,0,0,2
7:21.933   159096,t,0,0,0
7:21.972   159110,),0,0,2
7:23.722   159740,(,0,0,0
7:23.856   159788,p,0,0,0
7:23.894   159802,),0,0,0
7:24.092   159873,(,0,0,1
7:24.119   159883,N,0,0,0
7:24.144   159892,),0,0,1
7:24.336   159961,(,0,0,2
7:24.411   159988,t,0,0,0
7:24.517   160026,),0,0,2
7:24.597   160055,(,0,0,0
7:24.625   160065,p,0,0,0
7:24.653   160075,),0,0,0
7:24.844   160144,(,0,0,1
7:24.878   160156,N,0,0,0
7:24.903   160165,),0,0,1
7:25.092   160233,(,0,0,2
7:25.161   160258,t,0,0,0
7:25.267   160296,),0,0,2
7:25.378   160336,(,0,0,0
7:25.403   160345,p,0,0,0
7:25.419   160351,),0,0,0
7:25.581   160409,(,0,0,1
7:25.608   160419,N,0,0,0
7:25.633   160428,),0,0,1
7:25.831   160499,(,0,0,2
7:25.889   160520,t,0,0,0
7:26.000   160560,),0,0,2
7:26.300   160668,(,0,0,1
7:26.331   160679,N,0,0,0
7:26.356   160688,),0,0,1
7:26.531   160751,(,0,0,2
7:26.617   160782,t,0,0,0
7:26.742   160827,),0,0,2
7:26.781   160841,(,0,0,0
7:26.803   160849,p,0,0,0
7:26.847   160865,),0,0,0
7:27.033   160932,(,0,0,1
7:27.064   160943,N,0,0,0
7:27.092   160953,),0,0,1
7:27.144   160972,(,0,0,2
7:27.275   161019,t,0,0,0
7:27.458   161085,),0,0,2
7:29.442   161799,(,0,0,0
7:29.558   161841,p,0,0,0
7:29.617   161862,),0,0,0
7:29.750   161910,(,0,0,1
7:29.808   161931,N,0,0,0
7:29.833   161940,),0,0,1
7:29.889   161960,(,0,0,2
7:30.033   162012,t,0,0,0
7:30.206   162074,),0,0,2
7:30.342   162123,(,0,0,0
7:30.353   162127,p,0,0,0
7:30.372   162134,),0,0,0
7:30.492   162177,(,0,0,1
7:30.544   162196,N,0,0,0
7:30.569   162205,),0,0,1
7:30.622   162224,(,0,0,2
7:30.839   162302,t,0,0,0
7:30.936   162337,),0,0,2
7:31.050   162378,(,0,0,0
7:31.078   162388,p,0,0,0
7:31.100   162396,),0,0,0
7:31.247   162449,(,0,0,1
7:31.278   162460,N,0,0,0
7:31.303   162469,),0,0,1
7:31.358   162489,(,0,0,2
7:31.561   162562,t,0,0,0
7:31.656   162596,),0,0,2
7:31.761   162634,(,0,0,0
7:31.803   162649,p,0,0,0
7:31.831   162659,),0,0,0
7:31.978   162712,(,0,0,1
7:32.011   162724,N,0,0,0
7:32.036   162733,),0,0,1
7:32.089   162752,(,0,0,2
7:32.222   162800,t,0,0,0
7:32.408   162867,),0,0,2
7:34.181   163505,(,0,0,0
7:34.206   163514,p,0,0,0
7:34.244   163528,),0,0,0
7:34.436   163597,(,0,0,1
7:34.464   163607,N,0,0,0
7:34.486   163615,),0,0,1
7:35.156   163856,(,0,0,2
7:35.183   163866,t,0,0,0
7:35.219   163879,),0,0,2
7:36.378   164296,(,0,0,0
7:36.406   164306,p,0,0,0
7:36.450   164322,),0,0,0
7:36.622   164384,(,0,0,1
7:36.686   164407,N,0,0,0
7:36.714   164417,),0,0,1
7:36.892   164481,(,0,0,2
7:36.975   164511,t,0,0,0
7:37.097   164555,),0,0,2
7:37.172   164582,(,0,0,0
7:37.203   164593,p,0,0,0
7:37.225   164601,),0,0,0
7:37.358   164649,(,0,0,1
7:37.422   164672,N,0,0,0
7:37.447   164681,),0,0,1
7:37.497   164699,(,0,0,2
7:37.631   164747,t,0,0,0
7:37.825   164817,),0,0,2
7:38.133   164928,(,0,0,1
7:38.164   164939,N,0,0,0
7:38.189   164948,),0,0,1
7:38.358   165009,(,0,0,2
7:38.442   165039,t,0,0,0
7:38.553   165079,),0,0,2
7:39.694   165490,(,0,0,0
7:39.753   165511,p,0,0,0
7:39.828   165538,),0,0,0
7:39.922   165572,(,0,0,1
7:39.950   165582,N,0,0,0
7:39.978   165592,),0,0,1
7:40.025   165609,(,0,0,2
7:40.244   165688,t,0,0,0
7:40.308   165711,),0,0,2
7:40.319   165715,(,0,0,0
7:40.369   165733,p,0,0,0
7:40.411   165748,),0,0,0
7:40.597   165815,(,0,0,1
7:40.631   165827,N,0,0,0
7:40.656   165836,),0,0,1
7:41.358   166089,(,0,0,2
7:41.389   166100,t,0,0,0
7:41.425   166113,),0,0,2
7:44.622   167264,(,0,0,0
7:44.661   167278,p,0,0,0
7:44.731   167303,),0,0,0
7:44.822   167336,(,0,0,1
7:44.853   167347,N,0,0,0
7:44.878   167356,),0,0,1
7:44.928   167374,(,0,0,2
7:45.069   167425,t,0,0,0
7:45.264   167495,),0,0,2
7:45.925   167733,(,0,0,0
7:45.989   167756,p,0,0,0
7:46.064   167783,),0,0,0
7:46.156   167816,(,0,0,1
7:46.186   167827,N,0,0,0
7:46.211   167836,),0,0,1
7:46.264   167855,(,0,0,2
7:46.494   167938,t,0,0,0
7:46.569   167965,),0,0,2
7:46.572   167966,(,0,0,0
7:46.633   167988,p,0,0,0
7:46.683   168006,),0,0,0
7:46.858   168069,(,0,0,1
7:46.883   168078,N,0,0,0
7:46.908   168087,),0,0,1
7:47.569   168325,(,0,0,2
7:47.603   168337,t,0,0,0
7:47.639   168350,),0,0,2
7:49.200   168912,(,0,0,0
7:49.267   168936,p,0,0,0
7:49.306   168950,),0,0,0
7:49.419   168991,(,0,0,1
7:49.450   169002,N,0,0,0
7:49.475   169011,),0,0,1
7:49.522   169028,(,0,0,2
7:49.767   169116,t,0,0,0
7:49.825   169137,),0,0,2
7:49.883   169158,(,0,0,0
7:49.897   169163,p,0,0,0
7:49.942   169179,),0,0,0
7:50.122   169244,(,0,0,1
7:50.153   169255,N,0,0,0
7:50.178   169264,),0,0,1
7:50.225   169281,(,0,0,2
7:50.453   169363,t,0,0,0
7:50.556   169400,),0,0,2
7:50.672   169442,(,0,0,0
7:50.714   169457,p,0,0,0
7:50.742   169467,),0,0,0
7:50.889   169520,(,0,0,1
7:50.919   169531,N,0,0,0
7:50.942   169539,),0,0,1
7:50.994   169558,(,0,0,2
7:51.147   169613,t,0,0,0
7:51.328   169678,),0,0,2
7:52.517   170106,(,0,0,0
7:52.561   170122,p,0,0,0
7:52.594   170134,),0,0,0
7:52.728   170182,(,0,0,1
7:52.756   170192,N,0,0,0
7:52.783   170202,),0,0,1
7:52.833   170220,(,0,0,2
7:52.972   170270,t,0,0,0
7:53.139   170330,),0,0,2
7:53.172   170342,(,0,0,0
7:53.189   170348,p,0,0,0
7:53.239   170366,),0,0,0
7:53.364   170411,(,0,0,1
7:53.447   170441,N,0,0,0
7:53.472   170450,),0,0,1
7:53.672   170522,(,0,0,2
7:53.742   170547,t,0,0,0
7:53.836   170581,),0,0,2
7:53.908   170607,(,0,0,0
7:53.933   170616,p,0,0,0
7:53.986   170635,),0,0,0
7:54.153   170695,(,0,0,1
7:54.200   170712,N,0,0,0
7:54.228   170722,),0,0,1
7:54.286   170743,(,0,0,2
7:54.439   170798,t,0,0,0
7:54.594   170854,),0,0,2
7:54.689   170888,(,0,0,0
7:54.722   170900,p,0,0,0
7:54.742   170907,),0,0,0
7:54.894   170962,(,0,0,1
7:54.922   170972,N,0,0,0
7:54.944   170980,),0,0,1
7:54.997   170999,(,0,0,2
7:55.131   171047,t,0,0,0
7:55.317   171114,),0,0,2
7:56.964   171707,(,0,0,0
7:57.047   171737,p,0,0,0
7:57.094   171754,),0,0,0
7:57.250   171810,(,0,0,1
7:57.308   171831,N,0,0,0
7:57.336   171841,),0,0,1
7:57.531   171911,(,0,0,2
7:57.603   171937,t,0,0,0
7:57.717   171978,),0,0,2
7:58.017   172086,(,0,0,1
7:58.044   172096,N,0,0,0
7:58.069   172105,),0,0,1
7:58.736   172345,(,0,0,2
7:58.767   172356,t,0,0,0
7:58.803   172369,),0,0,2
8:00.542   172995,(,0,0,0
8:00.583   173010,p,0,0,0
8:00.661   173038,),0,0,0
8:00.725   173061,(,0,0,1
8:00.783   173082,N,0,0,0
8:00.811   173092,),0,0,1
8:00.861   173110,(,0,0,2
8:01.092   173193,t,0,0,0
8:01.161   173218,),0,0,2
8:01.172   173222,(,0,0,0
8:01.208   173235,p,0,0,0
8:01.253   173251,),0,0,0
8:01.436   173317,(,0,0,1
8:01.467   173328,N,0,0,0
8:01.492   173337,),0,0,1
8:01.669   173401,(,0,0,2
8:01.750   173430,t,0,0,0
8:01.853   173467,),0,0,2
8:01.917   173490,(,0,0,0
8:01.950   173502,p,0,0,0
8:01.992   173517,),0,0,0
8:02.181   173585,(,0,0,1
8:02.211   173596,N,0,0,0
8:02.236   173605,),0,0,1
8:02.286   173623,(,0,0,2
8:02.444   173680,t,0,0,0
8:02.622   173744,),0,0,2
8:02.700   173772,(,0,0,0
8:02.756   173792,p,0,0,0
8:02.783   173802,),0,0,0
8:02.928   173854,(,0,0,1
8:02.958   173865,N,0,0,0
8:02.986   173875,),0,0,1
8:03.039   173894,(,0,0,2
8:03.167   173940,t,0,0,0
8:03.369   174013,),0,0,2
8:03.406   174026,(,0,0,0
8:03.433   174036,p,0,0,0
8:03.481   174053,),0,0,0
8:03.664   174119,(,0,0,1
8:03.697   174131,N,0,0,0
8:03.725   174141,),0,0,1
8:03.908   174207,(,0,0,2
8:03.981   174233,t,0,0,0
8:04.117   174282,),0,0,2
8:04.156   174296,(,0,0,0
8:04.164   174299,p,0,0,0
8:04.208   174315,),0,0,0
8:04.361   174370,(,0,0,1
8:04.419   174391,N,0,0,0
8:04.442   174399,),0,0,1
8:04.492   174417,(,0,0,2
8:04.628   174466,t,0,0,0
8:04.792   174525,),0,0,2
8:07.708   175575,(,0,0,1
8:07.767   175596,N,0,0,0
8:07.794   175606,),0,0,1
8:07.978   175672,(,0,0,2
8:08.058   175701,t,0,0,0
8:08.161   175738,),0,0,2
8:08.206   175754,(,0,0,0
8:08.231   175763,p,0,0,0
8:08.283   175782,),0,0,0
8:08.464   175847,(,0,0,1
8:08.497   175859,N,0,0,0
8:08.525   175869,),0,0,1
8:08.581   175889,(,0,0,2
8:08.789   175964,t,0,0,0
8:08.900   176004,),0,0,2
8:08.956   176024,(,0,0,0
8:08.964   176027,p,0,0,0
8:09.006   176042,),0,0,0
8:09.197   176111,(,0,0,1
8:09.225   176121,N,0,0,0
8:09.250   176130,),0,0,1
8:09.300   176148,(,0,0,2
8:09.431   176195,t,0,0,0
8:09.594   176254,),0,0,2
8:09.600   176256,(,0,0,0
8:09.700   176292,p,0,0,0
8:09.744   176308,),0,0,0
8:09.928   176374,(,0,0,1
8:09.956   176384,N,0,0,0
8:09.983   176394,),0,0,1
8:10.164   176459,(,0,0,2
8:10.236   176485,t,0,0,0
8:10.331   176519,),0,0,2
8:10.642   176631,(,0,0,1
8:10.669   176641,N,0,0,0
8:10.697   176651,),0,0,1
8:10.742   176667,(,0,0,2
8:10.956   176744,t,0,0,0
8:11.042   176775,),0,0,2
8:12.269   177217,(,0,0,0
8:12.314   177233,p,0,0,0
8:12.392   177261,),0,0,0
8:12.472   177290,(,0,0,1
8:12.503   177301,N,0,0,0
8:12.528   177310,),0,0,1
8:13.142   177531,(,0,0,2
8:13.172   177542,t,0,0,5
8:13.214   177557,t,0,0,5
8:13.306   177590,),0,0,2
8:15.458   178365,(,0,0,0
8:15.508   178383,p,0,0,0
8:15.575   178407,),0,0,0
8:15.667   178440,(,0,0,1
8:15.694   178450,N,0,0,0
8:15.719   178459,),0,0,1
8:15.761   178474,(,0,0,2
8:15.906   178526,t,0,0,0
8:16.092   178593,),0,0,2
8:16.122   178604,(,0,0,0
8:16.219   178639,p,0,0,0
8:16.247   178649,),0,0,0
8:16.353   178687,(,0,0,1
8:16.381   178697,N,0,0,0
8:16.406   178706,),0,0,1
8:16.453   178723,(,0,0,2
8:16.589   178772,t,0,0,0
8:16.767   178836,),0,0,2
8:17.092   178953,(,0,0,1
8:17.119   178963,N,0,0,0
8:17.144   178972,),0,0,1
8:17.786   179203,(,0,0,2
8:17.817   179214,t,0,0,5
8:17.858   179229,t,0,0,5
8:17.956   179264,),0,0,2
8:18.256   179372,(,0,0,0
8:18.283   179382,p,0,0,0
8:18.319   179395,),0,0,0
8:18.511   179464,(,0,0,1
8:18.542   179475,N,0,0,0
8:18.569   179485,),0,0,1
8:18.739   179546,(,0,0,2
8:18.814   179573,t,0,0,0
8:18.922   179612,),0,0,2
8:18.931   179615,(,0,0,0
8:18.983   179634,p,0,0,0
8:19.042   179655,),0,0,0
8:19.214   179717,(,0,0,1
8:19.244   179728,N,0,0,0
8:19.269   179737,),0,0,1
8:19.322   179756,(,0,0,2
8:19.531   179831,t,0,0,0
8:19.642   179871,),0,0,2
8:19.681   179885,(,0,0,0
8:19.711   179896,p,0,0,0
8:19.747   179909,),0,0,0
8:19.942   179979,(,0,0,1
8:19.969   179989,N,0,0,0
8:19.997   179999,),0,0,1
8:20.042   180015,(,0,0,2
8:20.172   180062,t,0,0,0
8:20.392   180141,),0,0,2
8:20.417   180150,(,0,0,0
8:20.442   180159,p,0,0,0
8:20.481   180173,),0,0,0
8:20.678   180244,(,0,0,1
8:20.706   180254,N,0,0,0
8:20.733   180264,),0,0,1
8:20.783   180282,(,0,0,2
8:20.914   180329,t,0,0,0
8:21.103   180397,),0,0,2
8:21.125   180405,(,0,0,0
8:21.164   180419,p,0,0,0
8:21.219   180439,),0,0,0
8:21.406   180506,(,0,0,1
8:21.433   180516,N,0,0,0
8:21.458   180525,),0,0,1
8:21.506   180542,(,0,0,2
8:21.719   180619,t,0,0,0
8:21.822   180656,),0,0,2
8:23.153   181135,(,0,0,0
8:23.203   181153,p,0,0,0
8:23.278   181180,),0,0,0
8:23.361   181210,(,0,0,1
8:23.389   181220,N,0,0,0
8:23.417   181230,),0,0,1
8:24.044   181456,(,0,0,2
8:24.072   181466,t,0,0,5
8:24.114   181481,t,0,0,5
8:24.192   181509,),0,0,2
8:26.028   182170,(,0,0,0
8:26.067   182184,p,0,0,0
8:26.092   182193,),0,0,0
8:26.247   182249,(,0,0,1
8:26.278   182260,N,0,0,0
8:26.306   182270,),0,0,1
8:26.356   182288,(,0,0,2
8:26.483   182334,t,0,0,0
8:26.653   182395,),0,0,2
8:26.758   182433,(,0,0,0
8:26.792   182445,p,0,0,0
8:26.817   182454,),0,0,0
8:26.967   182508,(,0,0,1
8:26.997   182519,N,0,0,0
8:27.025   182529,),0,0,1
8:27.069   182545,(,0,0,2
8:27.208   182595,t,0,0,0
8:27.383   182658,),0,0,2
8:27.489   182696,(,0,0,0
8:27.519   182707,p,0,0,0
8:27.542   182715,),0,0,0
8:27.694   182770,(,0,0,1
8:27.722   182780,N,0,0,0
8:27.747   182789,),0,0,1
8:27.792   182805,(,0,0,2
8:28.003   182881,t,0,0,0
8:28.106   182918,),0,0,2
8:28.203   182953,(,0,0,0
8:28.239   182966,p,0,0,0
8:28.261   182974,),0,0,0
8:28.414   183029,(,0,0,1
8:28.447   183041,N,0,0,0
8:28.472   183050,),0,0,1
8:28.656   183116,(,0,0,2
8:28.736   183145,t,0,0,0
8:28.842   183183,),0,0,2
8:29.858   183549,(,0,0,0
8:29.900   183564,p,0,0,0
8:29.972   183590,),0,0,0
8:30.067   183624,(,0,0,1
8:30.097   183635,N,0,0,0
8:30.125   183645,),0,0,1
8:30.300   183708,(,0,0,2
8:30.389   183740,t,0,0,0
8:30.511   183784,),0,0,2
8:30.514   183785,(,0,0,0
8:30.525   183789,p,0,0,0
8:30.581   183809,),0,0,0
8:30.767   183876,(,0,0,1
8:30.794   183886,N,0,0,0
8:30.819   183895,),0,0,1
8:30.992   183957,(,0,0,2
8:31.075   183987,t,0,0,0
8:31.172   184022,),0,0,2
8:31.244   184048,(,0,0,0
8:31.275   184059,p,0,0,0
8:31.317   184074,),0,0,0
8:31.500   184140,(,0,0,1
8:31.531   184151,N,0,0,0
8:31.558   184161,),0,0,1
8:31.606   184178,(,0,0,2
8:31.819   184255,t,0,0,0
8:31.931   184295,),0,0,2
8:31.967   184308,(,0,0,0
8:31.994   184318,p,0,0,0
8:32.039   184334,),0,0,0
8:32.225   184401,(,0,0,1
8:32.253   184411,N,0,0,0
8:32.278   184420,),0,0,1
8:32.331   184439,(,0,0,2
8:32.536   184513,t,0,0,0
8:32.658   184557,),0,0,2
8:32.708   184575,(,0,0,0
8:32.736   184585,p,0,0,0
8:32.783   184602,),0,0,0
8:32.967   184668,(,0,0,1
8:32.994   184678,N,0,0,0
8:33.017   184686,),0,0,1
8:33.183   184746,(,0,0,2
8:33.269   184777,t,0,0,0
8:33.389   184820,),0,0,2
8:34.553   185239,(,0,0,0
8:34.597   185255,p,0,0,0
8:34.675   185283,),0,0,0
8:34.769   185317,(,0,0,1
8:34.800   185328,N,0,0,0
8:34.828   185338,),0,0,1
8:35.011   185404,(,0,0,2
8:35.094   185434,t,0,0,0
8:35.175   185463,),0,0,2
8:35.217   185478,(,0,0,0
8:35.228   185482,p,0,0,0
8:35.267   185496,),0,0,0
8:35.447   185561,(,0,0,1
8:35.478   185572,N,0,0,0
8:35.503   185581,),0,0,1
8:36.194   185830,(,0,0,2
8:36.222   185840,t,0,0,0
8:36.258   185853,),0,0,2
8:40.400   187344,(,0,0,0
8:40.450   187362,p,0,0,0
8:40.522   187388,),0,0,0
8:40.622   187424,(,0,0,1
8:40.650   187434,N,0,0,0
8:40.675   187443,),0,0,1
8:40.717   187458,(,0,0,2
8:40.950   187542,t,0,0,0
8:41.064   187583,),0,0,2
8:41.103   187597,(,0,0,0
8:41.169   187621,p,0,0,0
8:41.228   187642,),0,0,0
8:41.325   187677,(,0,0,1
8:41.353   187687,N,0,0,0
8:41.378   187696,),0,0,1
8:41.431   187715,(,0,0,2
8:41.564   187763,t,0,0,0
8:41.733   187824,),0,0,2
8:41.825   187857,(,0,0,0
8:41.833   187860,p,0,0,0
8:41.872   187874,),0,0,0
8:42.053   187939,(,0,0,1
8:42.083   187950,N,0,0,0
8:42.108   187959,),0,0,1
8:42.281   188021,(,0,0,2
8:42.369   188053,t,0,0,0
8:42.497   188099,),0,0,2
8:42.531   188111,(,0,0,0
8:42.556   188120,p,0,0,0
8:42.594   188134,),0,0,0
8:42.781   188201,(,0,0,1
8:42.811   188212,N,0,0,0
8:42.836   188221,),0,0,1
8:42.889   188240,(,0,0,2
8:43.094   188314,t,0,0,0
8:43.192   188349,),0,0,2
8:43.194   188350,(,0,0,0
8:43.286   188383,p,0,0,0
8:43.328   188398,),0,0,0
8:43.528   188470,(,0,0,1
8:43.556   188480,N,0,0,0
8:43.581   188489,),0,0,1
8:43.636   188509,(,0,0,2
8:43.844   188584,t,0,0,0
8:43.944   188620,),0,0,2
8:44.000   188640,(,0,0,0
8:44.025   188649,p,0,0,0
8:44.078   188668,),0,0,0
8:44.253   188731,(,0,0,1
8:44.283   188742,N,0,0,0
8:44.308   188751,),0,0,1
8:44.492   188817,(,0,0,2
8:44.561   188842,t,0,0,0
8:44.672   188882,),0,0,2
8:44.675   188883,(,0,0,0
8:44.750   188910,p,0,0,0
8:44.797   188927,),0,0,0
8:44.983   188994,(,0,0,1
8:45.011   189004,N,0,0,0
8:45.039   189014,),0,0,1
8:45.214   189077,(,0,0,2
8:45.294   189106,t,0,0,0
8:45.389   189140,),0,0,2
9:11.561   198562,N,0,0,0
9:11.672   198602,),0,0,1
9:11.769   198637,(,0,0,2
9:11.844   198664,t,0,0,0
9:11.936   198697,),0,0,2
9:12.261   198814,(,0,0,1
9:12.292   198825,N,0,0,0
9:12.403   198865,),0,0,1
9:12.492   198897,(,0,0,2
9:12.581   198929,t,0,0,0
9:12.675   198963,),0,0,2
9:14.097   199475,(,0,0,1
9:14.133   199488,N,0,0,0
9:14.244   199528,),0,0,1
9:14.336   199561,(,0,0,2
9:14.442   199599,t,0,0,5
9:14.581   199649,t,0,0,5
9:14.633   199668,),0,0,2
9:14.769   199717,(,0,0,1
9:14.836   199741,N,0,0,0
9:14.942   199779,),0,0,1
9:15.031   199811,(,0,0,2
9:15.114   199841,t,0,0,0
9:15.211   199876,),0,0,2
9:15.536   199993,(,0,0,1
9:15.569   200005,N,0,0,0
9:15.678   200044,),0,0,1
9:15.772   200078,(,0,0,2
9:15.858   200109,t,0,0,0
9:15.956   200144,),0,0,2
9:16.264   200255,(,0,0,1
9:16.292   200265,N,0,0,0
9:16.403   200305,),0,0,1
9:16.497   200339,(,0,0,2
9:16.586   200371,t,0,0,0
9:16.697   200411,),0,0,2
9:17.539   200714,(,0,0,0
9:17.592   200733,p,0,0,0
9:17.675   200763,),0,0,0
9:17.761   200794,(,0,0,1
9:17.794   200806,N,0,0,0
9:17.903   200845,),0,0,1
9:17.994   200878,(,0,0,2
9:18.086   200911,t,0,0,5
9:18.211   200956,t,0,0,5
9:18.253   200971,),0,0,2
9:18.408   201027,(,0,0,1
9:18.472   201050,N,0,0,0
9:18.581   201089,),0,0,1
9:18.694   201130,(,0,0,2
9:18.764   201155,t,0,0,0
9:18.869   201193,),0,0,2
9:19.186   201307,(,0,0,1
9:19.219   201319,N,0,0,0
9:19.325   201357,),0,0,1
9:19.422   201392,(,0,0,2
9:19.506   201422,t,0,0,0
9:19.619   201463,),0,0,2
9:19.903   201565,(,0,0,1
9:19.953   201583,N,0,0,0
9:20.061   201622,),0,0,1
9:20.147   201653,(,0,0,2
9:20.233   201684,t,0,0,0
9:20.339   201722,),0,0,2
9:20.631   201827,(,0,0,1
9:20.672   201842,N,0,0,0
9:20.781   201881,),0,0,1
9:20.878   201916,(,0,0,2
9:20.956   201944,t,0,0,0
9:21.058   201981,),0,0,2
9:21.372   202094,(,0,0,1
9:21.408   202107,N,0,0,0
9:21.517   202146,),0,0,1
9:21.631   202187,(,0,0,2
9:21.694   202210,t,0,0,0
9:21.803   202249,),0,0,2
9:23.294   202786,(,0,0,0
9:23.347   202805,p,0,0,0
9:23.431   202835,),0,0,0
9:23.506   202862,(,0,0,1
9:23.547   202877,N,0,0,0
9:23.650   202914,),0,0,1
9:23.761   202954,(,0,0,2
9:23.842   202983,t,0,0,5
9:23.975   203031,t,0,0,5
9:24.017   203046,),0,0,2
9:24.197   203111,(,0,0,1
9:24.231   203123,N,0,0,0
9:24.347   203165,),0,0,1
9:24.442   203199,(,0,0,2
9:24.522   203228,t,0,0,0
9:24.625   203265,),0,0,2
9:24.953   203383,(,0,0,1
9:24.986   203395,N,0,0,0
9:25.094   203434,),0,0,1
9:25.200   203472,(,0,0,2
9:25.283   203502,t,0,0,0
9:25.386   203539,),0,0,2
9:25.700   203652,(,0,0,1
9:25.731   203663,N,0,0,0
9:25.836   203701,),0,0,1
9:25.922   203732,(,0,0,2
9:26.014   203765,t,0,0,0
9:26.128   203806,),0,0,2
9:26.206   203834,(,0,0,0
9:26.233   203844,p,0,0,0
9:26.258   203853,),0,0,0
9:26.408   203907,(,0,0,1
9:26.475   203931,N,0,0,0
9:26.586   203971,),0,0,1
9:26.681   204005,(,0,0,2
9:26.764   204035,t,0,0,0
9:26.861   204070,),0,0,2
9:27.169   204181,(,0,0,1
9:27.211   204196,N,0,0,0
9:27.319   204235,),0,0,1
9:27.428   204274,(,0,0,2
9:27.508   204303,t,0,0,0
9:27.606   204338,),0,0,2
9:28.942   204819,(,0,0,0
9:28.992   204837,p,0,0,0
9:29.067   204864,),0,0,0
9:29.150   204894,(,0,0,1
9:29.183   204906,N,0,0,0
9:29.286   204943,),0,0,1
9:29.397   204983,(,0,0,2
9:29.475   205011,t,0,0,5
9:29.608   205059,t,0,0,5
9:29.656   205076,),0,0,2
9:29.828   205138,(,0,0,1
9:29.861   205150,N,0,0,0
9:29.972   205190,),0,0,1
9:30.081   205229,(,0,0,2
9:30.153   205255,t,0,0,0
9:30.261   205294,),0,0,2
9:30.539   205394,(,0,0,1
9:30.617   205422,N,0,0,0
9:30.725   205461,),0,0,1
9:30.847   205505,(,0,0,2
9:30.914   205529,t,0,0,0
9:31.025   205569,),0,0,2
9:32.364   206051,(,0,0,0
9:32.406   206066,p,0,0,0
9:32.478   206092,),0,0,0
9:32.556   206120,(,0,0,1
9:32.589   206132,N,0,0,0
9:32.697   206171,),0,0,1
9:32.792   206205,(,0,0,2
9:32.881   206237,t,0,0,5
9:33.019   206287,t,0,0,5
9:33.072   206306,),0,0,2
9:33.239   206366,(,0,0,1
9:33.286   206383,N,0,0,0
9:33.394   206422,),0,0,1
9:33.489   206456,(,0,0,2
9:33.564   206483,t,0,0,0
9:33.656   206516,),0,0,2
9:33.992   206637,(,0,0,1
9:34.025   206649,N,0,0,0
9:34.144   206692,),0,0,1
9:34.239   206726,(,0,0,2
9:34.322   206756,t,0,0,0
9:34.425   206793,),0,0,2
9:34.711   206896,(,0,0,1
9:34.750   206910,N,0,0,0
9:34.856   206948,),0,0,1
9:34.956   206984,(,0,0,2
9:35.039   207014,t,0,0,0
9:35.142   207051,),0,0,2
9:35.203   207073,(,0,0,0
9:35.217   207078,p,0,0,0
9:35.272   207098,),0,0,0
9:35.442   207159,(,0,0,1
9:35.489   207176,N,0,0,0
9:35.594   207214,),0,0,1
9:35.697   207251,(,0,0,2
9:35.775   207279,t,0,0,0
9:35.889   207320,),0,0,2
9:37.108   207759,(,0,0,0
9:37.161   207778,p,0,0,0
9:37.236   207805,),0,0,0
9:37.328   207838,(,0,0,1
9:37.361   207850,N,0,0,0
9:37.467   207888,),0,0,1
9:37.564   207923,(,0,0,2
9:37.661   207958,t,0,0,0
9:37.786   208003,),0,0,2
9:38.017   208086,(,0,0,1
9:38.053   208099,N,0,0,0
9:38.164   208139,),0,0,1
9:38.258   208173,(,0,0,2
9:38.342   208203,t,0,0,0
9:38.433   208236,),0,0,2
9:38.769   208357,(,0,0,1
9:38.806   208370,N,0,0,0
9:38.917   208410,),0,0,1
9:39.014   208445,(,0,0,2
9:39.094   208474,t,0,0,0
9:39.206   208514,),0,0,2
9:39.267   208536,(,0,0,0
9:39.278   208540,p,0,0,0
9:39.322   208556,),0,0,0
9:39.475   208611,(,0,0,1
9:39.547   208637,N,0,0,0
9:39.656   208676,),0,0,1
9:39.769   208717,(,0,0,2
9:39.847   208745,t,0,0,0
9:39.939   208778,),0,0,2
9:41.069   209185,(,0,0,1
9:41.103   209197,N,0,0,0
9:41.214   209237,),0,0,1
9:41.306   209270,(,0,0,2
9:41.397   209303,t,0,0,5
9:41.522   209348,t,0,0,5
9:41.567   209364,),0,0,2
9:41.708   209415,(,0,0,1
9:41.772   209438,N,0,0,0
9:41.881   209477,),0,0,1
9:41.978   209512,(,0,0,2
9:42.058   209541,t,0,0,0
9:42.169   209581,),0,0,2
9:42.492   209697,(,0,0,1
9:42.525   209709,N,0,0,0
9:42.633   209748,),0,0,1
9:42.736   209785,(,0,0,2
9:42.814   209813,t,0,0,0
9:42.911   209848,),0,0,2
9:43.003   209881,(,0,0,0
9:43.028   209890,p,0,0,0
9:43.053   209899,),0,0,0
9:43.208   209955,(,0,0,1
9:43.261   209974,N,0,0,0
9:43.369   210013,),0,0,1
9:43.456   210044,(,0,0,2
9:43.536   210073,t,0,0,0
9:43.628   210106,),0,0,2
9:44.922   210572,(,0,0,0
9:44.972   210590,p,0,0,0
9:45.056   210620,),0,0,0
9:45.108   210639,(,0,0,1
9:45.175   210663,N,0,0,0
9:45.292   210705,),0,0,1
9:45.394   210742,(,0,0,2
9:45.486   210775,t,0,0,5
9:45.622   210824,t,0,0,5
9:45.664   210839,),0,0,2
9:45.806   210890,(,0,0,1
9:45.867   210912,N,0,0,0
9:45.981   210953,),0,0,1
9:46.067   210984,(,0,0,2
9:46.153   211015,t,0,0,0
9:46.261   211054,),0,0,2
9:46.542   211155,(,0,0,1
9:46.619   211183,N,0,0,0
9:46.725   211221,),0,0,1
9:46.814   211253,(,0,0,2
9:46.900   211284,t,0,0,0
9:46.997   211319,),0,0,2
9:47.081   211349,(,0,0,0
9:47.103   211357,p,0,0,0
9:47.125   211365,),0,0,0
9:47.272   211418,(,0,0,1
9:47.331   211439,N,0,0,0
9:47.442   211479,),0,0,1
9:47.533   211512,(,0,0,2
9:47.619   211543,t,0,0,0
9:47.728   211582,),0,0,2
9:47.794   211606,(,0,0,0
9:47.806   211610,p,0,0,0
9:47.856   211628,),0,0,0
9:48.003   211681,(,0,0,1
9:48.072   211706,N,0,0,0
9:48.183   211746,),0,0,1
9:48.286   211783,(,0,0,2
9:48.364   211811,t,0,0,0
9:48.458   211845,),0,0,2
9:48.778   211960,(,0,0,1
9:48.825   211977,N,0,0,0
9:48.939   212018,),0,0,1
9:49.039   212054,(,0,0,2
9:49.119   212083,t,0,0,0
9:49.208   212115,),0,0,2
9:49.539   212234,(,0,0,1
9:49.567   212244,N,0,0,0
9:49.628   212266,),0,0,1
9:49.775   212319,(,0,0,2
9:49.861   212350,t,0,0,0
9:49.967   212388,),0,0,2
9:50.269   212497,(,0,0,1
9:50.322   212516,N,0,0,0
9:50.428   212554,),0,0,1
9:50.519   212587,(,0,0,2
9:50.603   212617,t,0,0,0
9:50.703   212653,),0,0,2
9:51.044   212776,(,0,0,1
9:51.075   212787,N,0,0,0
9:51.183   212826,),0,0,1
9:51.256   212852,(,0,0,2
9:51.358   212889,t,0,0,0
9:51.461   212926,),0,0,2
9:51.800   213048,(,0,0,1
9:51.831   213059,N,0,0,0
9:51.947   213101,),0,0,1
9:52.044   213136,(,0,0,2
9:52.119   213163,t,0,0,0
9:52.214   213197,),0,0,2
9:52.542   213315,(,0,0,1
9:52.578   213328,N,0,0,0
9:52.686   213367,),0,0,1
9:52.783   213402,(,0,0,2
9:52.867   213432,t,0,0,0
9:52.961   213466,),0,0,2
9:54.358   213969,(,0,0,0
9:54.406   213986,p,0,0,0
9:54.483   214014,),0,0,0
9:54.567   214044,(,0,0,1
9:54.597   214055,N,0,0,0
9:54.703   214093,),0,0,1
9:54.817   214134,(,0,0,2
9:54.892   214161,t,0,0,5
9:55.036   214213,t,0,0,5
9:55.086   214231,),0,0,2
9:55.267   214296,(,0,0,1
9:55.297   214307,N,0,0,0
9:55.411   214348,),0,0,1
9:55.503   214381,(,0,0,2
9:55.581   214409,t,0,0,0
9:55.681   214445,),0,0,2
9:56.003   214561,(,0,0,1
9:56.050   214578,N,0,0,0
9:56.153   214615,),0,0,1
9:56.239   214646,(,0,0,2
9:56.333   214680,t,0,0,0
9:56.436   214717,),0,0,2
9:56.767   214836,(,0,0,1
9:56.794   214846,N,0,0,0
9:56.906   214886,),0,0,1
9:56.992   214917,(,0,0,2
9:57.092   214953,t,0,0,0
9:57.194   214990,),0,0,2
9:57.542   215115,(,0,0,1
9:57.575   215127,N,0,0,0
9:57.686   215167,),0,0,1
9:57.775   215199,(,0,0,2
9:57.864   215231,t,0,0,0
9:57.964   215267,),0,0,2
9:59.178   215704,(,0,0,0
9:59.222   215720,p,0,0,0
9:59.300   215748,),0,0,0
9:59.375   215775,(,0,0,1
9:59.419   215791,N,0,0,0
9:59.525   215829,),0,0,1
9:59.644   215872,(,0,0,2
9:59.725   215901,t,0,0,0
9:59.828   215938,),0,0,2
   10:00.106   216038,(,0,0,1
   10:00.139   216050,N,0,0,0
   10:00.247   216089,),0,0,1
   10:00.339   216122,(,0,0,2
   10:00.425   216153,t,0,0,0
   10:00.522   216188,),0,0,2
   10:00.881   216317,(,0,0,1
   10:00.917   216330,N,0,0,0
   10:01.022   216368,),0,0,1
   10:01.125   216405,(,0,0,2
   10:01.200   216432,t,0,0,0
   10:01.292   216465,),0,0,2
   10:01.619   216583,(,0,0,1
   10:01.658   216597,N,0,0,0
   10:01.775   216639,),0,0,1
   10:01.869   216673,(,0,0,2
   10:01.950   216702,t,0,0,0
   10:02.056   216740,),0,0,2
   10:03.197   217151,(,0,0,1
   10:03.231   217163,N,0,0,0
   10:03.339   217202,),0,0,1
   10:03.433   217236,(,0,0,2
   10:03.522   217268,t,0,0,0
   10:03.642   217311,),0,0,2
   10:03.886   217399,(,0,0,1
   10:03.917   217410,N,0,0,0
   10:04.028   217450,),0,0,1
   10:04.117   217482,(,0,0,2
   10:04.208   217515,t,0,0,0
   10:04.303   217549,),0,0,2
   10:04.606   217658,(,0,0,1
   10:04.675   217683,N,0,0,0
   10:04.786   217723,),0,0,1
   10:04.878   217756,(,0,0,2
   10:04.964   217787,t,0,0,0
   10:05.072   217826,),0,0,2
   10:05.397   217943,(,0,0,1
   10:05.428   217954,N,0,0,0
   10:05.536   217993,),0,0,1
   10:05.633   218028,(,0,0,2
   10:05.714   218057,t,0,0,0
   10:05.817   218094,),0,0,2
   10:06.108   218199,(,0,0,1
   10:06.183   218226,N,0,0,0
   10:06.294   218266,),0,0,1
   10:06.400   218304,(,0,0,2
   10:06.475   218331,t,0,0,0
   10:06.569   218365,),0,0,2
   10:07.475   218691,(,0,0,0
   10:07.522   218708,p,0,0,0
   10:07.603   218737,),0,0,0
   10:07.672   218762,(,0,0,1
   10:07.725   218781,N,0,0,0
   10:07.833   218820,),0,0,1
   10:07.936   218857,(,0,0,2
   10:08.017   218886,t,0,0,5
   10:08.147   218933,t,0,0,5
   10:08.194   218950,),0,0,2
   10:08.372   219014,(,0,0,1
   10:08.403   219025,N,0,0,0
   10:08.511   219064,),0,0,1
   10:08.603   219097,(,0,0,2
   10:08.692   219129,t,0,0,0
   10:08.803   219169,),0,0,2
   10:09.136   219289,(,0,0,1
   10:09.172   219302,N,0,0,0
   10:09.283   219342,),0,0,1
   10:09.386   219379,(,0,0,2
   10:09.469   219409,t,0,0,0
   10:09.564   219443,),0,0,2
   10:09.847   219545,(,0,0,1
   10:09.922   219572,N,0,0,0
   10:10.036   219613,),0,0,1
   10:10.125   219645,(,0,0,2
   10:10.208   219675,t,0,0,0
   10:10.306   219710,),0,0,2
   10:10.644   219832,(,0,0,1
   10:10.683   219846,N,0,0,0
   10:10.789   219884,),0,0,1
   10:10.883   219918,(,0,0,2
   10:10.961   219946,t,0,0,0
   10:11.069   219985,),0,0,2
   10:12.536   220513,(,0,0,1
   10:12.575   220527,N,0,0,0
   10:12.686   220567,),0,0,1
   10:12.789   220604,(,0,0,2
   10:12.883   220638,t,0,0,5
   10:13.031   220691,t,0,0,5
   10:13.078   220708,),0,0,2
   10:13.247   220769,(,0,0,1
   10:13.283   220782,N,0,0,0
   10:13.392   220821,),0,0,1
   10:13.483   220854,(,0,0,2
   10:13.564   220883,t,0,0,0
   10:13.669   220921,),0,0,2
   10:13.975   221031,(,0,0,1
   10:14.050   221058,N,0,0,0
   10:14.158   221097,),0,0,1
   10:14.267   221136,(,0,0,2
   10:14.342   221163,t,0,0,0
   10:14.442   221199,),0,0,2
   10:14.772   221318,(,0,0,1
   10:14.806   221330,N,0,0,0
   10:14.917   221370,),0,0,1
   10:15.025   221409,(,0,0,2
   10:15.106   221438,t,0,0,0
   10:15.203   221473,),0,0,2
   10:16.308   221871,(,0,0,1
   10:16.386   221899,N,0,0,0
   10:16.489   221936,),0,0,1
   10:16.600   221976,(,0,0,2
   10:16.681   222005,t,0,0,5
   10:16.822   222056,t,0,0,5
   10:16.861   222070,),0,0,2
   10:17.039   222134,(,0,0,1
   10:17.072   222146,N,0,0,0
   10:17.183   222186,),0,0,1
   10:17.278   222220,(,0,0,2
   10:17.364   222251,t,0,0,0
   10:17.461   222286,),0,0,2
   10:17.803   222409,(,0,0,1
   10:17.833   222420,N,0,0,0
   10:17.944   222460,),0,0,1
   10:18.036   222493,(,0,0,2
   10:18.125   222525,t,0,0,0
   10:18.217   222558,),0,0,2
   10:18.331   222599,(,0,0,0
   10:18.353   222607,p,0,0,0
   10:18.372   222614,),0,0,0
   10:18.567   222684,(,0,0,1
   10:18.594   222694,N,0,0,0
   10:18.656   222716,),0,0,1
   10:18.797   222767,(,0,0,2
   10:18.869   222793,t,0,0,0
   10:18.989   222836,),0,0,2
   10:19.306   222950,(,0,0,1
   10:19.342   222963,N,0,0,0
   10:19.453   223003,),0,0,1
   10:19.536   223033,(,0,0,2
   10:19.628   223066,t,0,0,0
   10:19.719   223099,),0,0,2
   10:20.061   223222,(,0,0,1
   10:20.094   223234,N,0,0,0
   10:20.211   223276,),0,0,1
   10:20.311   223312,(,0,0,2
   10:20.381   223337,t,0,0,0
   10:20.506   223382,),0,0,2
   10:20.831   223499,(,0,0,1
   10:20.864   223511,N,0,0,0
   10:20.972   223550,),0,0,1
   10:21.064   223583,(,0,0,2
   10:21.142   223611,t,0,0,0
   10:21.231   223643,),0,0,2
   10:22.703   224173,(,0,0,0
   10:22.739   224186,p,0,0,0
   10:22.833   224220,),0,0,0
   10:22.872   224234,(,0,0,1
   10:22.947   224261,N,0,0,0
   10:23.053   224299,),0,0,1
   10:23.158   224337,(,0,0,2
   10:23.253   224371,t,0,0,5
   10:23.392   224421,t,0,0,5
   10:23.458   224445,),0,0,2
   10:23.633   224508,(,0,0,1
   10:23.669   224521,N,0,0,0
   10:23.783   224562,),0,0,1
   10:23.886   224599,(,0,0,2
   10:23.964   224627,t,0,0,0
   10:24.075   224667,),0,0,2
   10:24.403   224785,(,0,0,1
   10:24.439   224798,N,0,0,0
   10:24.547   224837,),0,0,1
   10:24.633   224868,(,0,0,2
   10:24.728   224902,t,0,0,0
   10:24.833   224940,),0,0,2
   10:26.103   225397,(,0,0,0
   10:26.153   225415,p,0,0,0
   10:26.231   225443,),0,0,0
   10:26.281   225461,(,0,0,1
   10:26.347   225485,N,0,0,0
   10:26.456   225524,),0,0,1
   10:26.547   225557,(,0,0,2
   10:26.642   225591,t,0,0,5
   10:26.786   225643,t,0,0,5
   10:26.833   225660,),0,0,2
   10:27.017   225726,(,0,0,1
   10:27.050   225738,N,0,0,0
   10:27.161   225778,),0,0,1
   10:27.261   225814,(,0,0,2
   10:27.339   225842,t,0,0,0
   10:27.431   225875,),0,0,2
   10:27.764   225995,(,0,0,1
   10:27.794   226006,N,0,0,0
   10:27.908   226047,),0,0,1
   10:28.008   226083,(,0,0,2
   10:28.089   226112,t,0,0,0
   10:28.194   226150,),0,0,2
   10:29.475   226611,(,0,0,0
   10:29.517   226626,p,0,0,0
   10:29.606   226658,),0,0,0
   10:29.675   226683,(,0,0,1
   10:29.714   226697,N,0,0,0
   10:29.817   226734,),0,0,1
   10:29.906   226766,(,0,0,2
   10:30.011   226804,t,0,0,5
   10:30.133   226848,t,0,0,5
   10:30.183   226866,),0,0,2
   10:30.361   226930,(,0,0,1
   10:30.392   226941,N,0,0,0
   10:30.492   226977,),0,0,1
   10:30.597   227015,(,0,0,2
   10:30.675   227043,t,0,0,0
   10:30.775   227079,),0,0,2
   10:31.042   227175,(,0,0,1
   10:31.142   227211,N,0,0,0
   10:31.219   227239,),0,0,1
   10:31.325   227277,(,0,0,2
   10:31.403   227305,t,0,0,0
   10:31.492   227337,),0,0,2
   10:32.767   227796,(,0,0,0
   10:32.811   227812,p,0,0,0
   10:32.897   227843,),0,0,0
   10:32.975   227871,(,0,0,1
   10:33.014   227885,N,0,0,0
   10:33.119   227923,),0,0,1
   10:33.233   227964,(,0,0,2
   10:33.311   227992,t,0,0,5
   10:33.436   228037,t,0,0,5
   10:33.489   228056,),0,0,2
   10:33.667   228120,(,0,0,1
   10:33.697   228131,N,0,0,0
   10:33.811   228172,),0,0,1
   10:33.897   228203,(,0,0,2
   10:33.983   228234,t,0,0,0
   10:34.089   228272,),0,0,2
   10:34.403   228385,(,0,0,1
   10:34.433   228396,N,0,0,0
   10:34.539   228434,),0,0,1
   10:34.636   228469,(,0,0,2
   10:34.719   228499,t,0,0,0
   10:34.822   228536,),0,0,2
   10:35.125   228645,(,0,0,1
   10:35.156   228656,N,0,0,0
   10:35.267   228696,),0,0,1
   10:35.358   228729,(,0,0,2
   10:35.447   228761,t,0,0,0
   10:35.542   228795,),0,0,2
   10:35.872   228914,(,0,0,1
   10:35.936   228937,N,0,0,0
   10:36.022   228968,),0,0,1
   10:36.114   229001,(,0,0,2
   10:36.194   229030,t,0,0,0
   10:36.300   229068,),0,0,2
   10:38.753   229951,(,0,0,0
   10:38.797   229967,p,0,0,0
   10:38.872   229994,),0,0,0
   10:38.961   230026,(,0,0,1
   10:38.992   230037,N,0,0,0
   10:39.103   230077,),0,0,1
   10:39.197   230111,(,0,0,2
   10:39.300   230148,t,0,0,0
   10:39.392   230181,),0,0,2
   10:40.133   230448,(,0,0,0
   10:40.183   230466,p,0,0,0
   10:40.258   230493,),0,0,0
   10:40.356   230528,(,0,0,1
   10:40.386   230539,N,0,0,0
   10:40.494   230578,),0,0,1
   10:40.597   230615,(,0,0,2
   10:40.694   230650,t,0,0,5
   10:40.839   230702,t,0,0,5
   10:40.894   230722,),0,0,2
   10:41.072   230786,(,0,0,1
   10:41.111   230800,N,0,0,0
   10:41.219   230839,),0,0,1
   10:41.322   230876,(,0,0,2
   10:41.414   230909,t,0,0,0
   10:41.517   230946,),0,0,2
   10:41.839   231062,(,0,0,1
   10:41.906   231086,N,0,0,0
   10:41.989   231116,),0,0,1
   10:42.078   231148,(,0,0,2
   10:42.169   231181,t,0,0,0
   10:42.267   231216,),0,0,2
   10:42.603   231337,(,0,0,1
   10:42.661   231358,N,0,0,0
   10:42.744   231388,),0,0,1
   10:42.831   231419,(,0,0,2
   10:42.919   231451,t,0,0,0
   10:43.011   231484,),0,0,2
   10:43.336   231601,(,0,0,1
   10:43.369   231613,N,0,0,0
   10:43.475   231651,),0,0,1
   10:43.581   231689,(,0,0,2
   10:43.664   231719,t,0,0,0
   10:43.758   231753,),0,0,2
   10:44.078   231868,(,0,0,1
   10:44.122   231884,N,0,0,0
   10:44.231   231923,),0,0,1
   10:44.328   231958,(,0,0,2
   10:44.414   231989,t,0,0,0
   10:44.508   232023,),0,0,2
   10:44.847   232145,(,0,0,1
   10:44.883   232158,N,0,0,0
   10:44.994   232198,),0,0,1
   10:45.078   232228,(,0,0,2
   10:45.167   232260,t,0,0,0
   10:45.267   232296,),0,0,2
   10:45.572   232406,(,0,0,1
   10:45.667   232440,N,0,0,0
   10:45.747   232469,),0,0,1
   10:45.844   232504,(,0,0,2
   10:45.925   232533,t,0,0,0
   10:46.025   232569,),0,0,2
   10:48.497   233459,(,0,0,0
   10:48.533   233472,p,0,0,0
   10:48.611   233500,),0,0,0
   10:48.694   233530,(,0,0,1
   10:48.725   233541,N,0,0,0
   10:48.836   233581,),0,0,1
   10:48.939   233618,(,0,0,2
   10:49.036   233653,t,0,0,0
   10:49.128   233686,),0,0,2
   10:49.831   233939,(,0,0,0
   10:49.875   233955,p,0,0,0
   10:49.956   233984,),0,0,0
   10:50.042   234015,(,0,0,1
   10:50.083   234030,N,0,0,0
   10:50.194   234070,),0,0,1
   10:50.308   234111,(,0,0,2
   10:50.394   234142,t,0,0,5
   10:50.539   234194,t,0,0,5
   10:50.583   234210,),0,0,2
   10:50.761   234274,(,0,0,1
   10:50.819   234295,N,0,0,0
   10:50.897   234323,),0,0,1
   10:50.994   234358,(,0,0,2
   10:51.083   234390,t,0,0,0
   10:51.183   234426,),0,0,2
   10:51.511   234544,(,0,0,1
   10:51.575   234567,N,0,0,0
   10:51.653   234595,),0,0,1
   10:51.750   234630,(,0,0,2
   10:51.831   234659,t,0,0,0
   10:51.925   234693,),0,0,2
   10:53.203   235153,(,0,0,0
   10:53.250   235170,p,0,0,0
   10:53.325   235197,),0,0,0
   10:53.375   235215,(,0,0,1
   10:53.450   235242,N,0,0,0
   10:53.558   235281,),0,0,1
   10:53.658   235317,(,0,0,2
   10:53.756   235352,t,0,0,5
   10:53.878   235396,t,0,0,5
   10:53.933   235416,),0,0,2
   10:54.106   235478,(,0,0,1
   10:54.167   235500,N,0,0,0
   10:54.250   235530,),0,0,1
   10:54.361   235570,(,0,0,2
   10:54.433   235596,t,0,0,0
   10:54.536   235633,),0,0,2
   10:54.869   235753,(,0,0,1
   10:54.931   235775,N,0,0,0
   10:55.014   235805,),0,0,1
   10:55.108   235839,(,0,0,2
   10:55.200   235872,t,0,0,0
   10:55.289   235904,),0,0,2
   10:55.611   236020,(,0,0,1
   10:55.683   236046,N,0,0,0
   10:55.767   236076,),0,0,1
   10:55.856   236108,(,0,0,2
   10:55.947   236141,t,0,0,0
   10:56.042   236175,),0,0,2
   10:56.342   236283,(,0,0,1
   10:56.419   236311,N,0,0,0
   10:56.494   236338,),0,0,1
   10:56.597   236375,(,0,0,2
   10:56.678   236404,t,0,0,0
   10:56.783   236442,),0,0,2
   10:57.906   236846,(,0,0,0
   10:57.953   236863,p,0,0,0
   10:58.036   236893,),0,0,0
   10:58.114   236921,(,0,0,1
   10:58.153   236935,N,0,0,0
   10:58.264   236975,),0,0,1
   10:58.369   237013,(,0,0,2
   10:58.461   237046,t,0,0,5
   10:58.606   237098,t,0,0,5
   10:58.656   237116,),0,0,2
   10:58.842   237183,(,0,0,1
   10:58.903   237205,N,0,0,0
   10:58.989   237236,),0,0,1
   10:59.078   237268,(,0,0,2
   10:59.172   237302,t,0,0,0
   10:59.272   237338,),0,0,2
   10:59.608   237459,(,0,0,1
   10:59.675   237483,N,0,0,0
   10:59.750   237510,),0,0,1
   10:59.856   237548,(,0,0,2
   10:59.939   237578,t,0,0,0
   11:00.033   237612,),0,0,2
   11:00.314   237713,(,0,0,1
   11:00.417   237750,N,0,0,0
   11:00.494   237778,),0,0,1
   11:00.581   237809,(,0,0,2
   11:00.669   237841,t,0,0,0
   11:00.764   237875,),0,0,2
   11:01.628   238186,(,0,0,0
   11:01.678   238204,p,0,0,0
   11:01.756   238232,),0,0,0
   11:01.839   238262,(,0,0,1
   11:01.908   238287,N,0,0,0
   11:01.989   238316,),0,0,1
   11:02.089   238352,(,0,0,2
   11:02.186   238387,t,0,0,5
   11:02.325   238437,t,0,0,5
   11:02.372   238454,),0,0,2
   11:02.542   238515,(,0,0,1
   11:02.603   238537,N,0,0,0
   11:02.683   238566,),0,0,1
   11:02.775   238599,(,0,0,2
   11:02.861   238630,t,0,0,0
   11:02.956   238664,),0,0,2
   11:03.278   238780,(,0,0,1
   11:03.369   238813,N,0,0,0
   11:03.450   238842,),0,0,1
   11:03.539   238874,(,0,0,2
   11:03.631   238907,t,0,0,0
   11:03.733   238944,),0,0,2
   11:04.047   239057,(,0,0,1
   11:04.122   239084,N,0,0,0
   11:04.200   239112,),0,0,1
   11:04.308   239151,(,0,0,2
   11:04.386   239179,t,0,0,0
   11:04.497   239219,),0,0,2
   11:04.808   239331,(,0,0,1
   11:04.867   239352,N,0,0,0
   11:04.950   239382,),0,0,1
   11:05.047   239417,(,0,0,2
   11:05.131   239447,t,0,0,0
   11:05.231   239483,),0,0,2
   11:06.400   239904,(,0,0,0
   11:06.453   239923,p,0,0,0
   11:06.531   239951,),0,0,0
   11:06.611   239980,(,0,0,1
   11:06.678   240004,N,0,0,0
   11:06.758   240033,),0,0,1
   11:06.861   240070,(,0,0,2
   11:06.956   240104,t,0,0,5
   11:07.094   240154,t,0,0,5
   11:07.142   240171,),0,0,2
   11:07.322   240236,(,0,0,1
   11:07.358   240249,N,0,0,0
   11:07.467   240288,),0,0,1
   11:07.569   240325,(,0,0,2
   11:07.650   240354,t,0,0,0
   11:07.769   240397,),0,0,2
   11:08.094   240514,(,0,0,1
   11:08.156   240536,N,0,0,0
   11:08.233   240564,),0,0,1
   11:08.328   240598,(,0,0,2
   11:08.411   240628,t,0,0,0
   11:08.517   240666,),0,0,2
   11:08.831   240779,(,0,0,1
   11:08.892   240801,N,0,0,0
   11:08.978   240832,),0,0,1
   11:09.075   240867,(,0,0,2
   11:09.158   240897,t,0,0,0
   11:09.250   240930,),0,0,2
   11:09.550   241038,(,0,0,1
   11:09.622   241064,N,0,0,0
   11:09.700   241092,),0,0,1
   11:09.797   241127,(,0,0,2
   11:09.878   241156,t,0,0,0
   11:09.994   241198,),0,0,2
   11:11.125   241605,(,0,0,0
   11:11.178   241624,p,0,0,0
   11:11.253   241651,),0,0,0
   11:11.336   241681,(,0,0,1
   11:11.400   241704,N,0,0,0
   11:11.478   241732,),0,0,1
   11:11.569   241765,(,0,0,2
   11:11.669   241801,t,0,0,5
   11:11.819   241855,t,0,0,5
   11:11.869   241873,),0,0,2
   11:12.047   241937,(,0,0,1
   11:12.117   241962,N,0,0,0
   11:12.197   241991,),0,0,1
   11:12.292   242025,(,0,0,2
   11:12.375   242055,t,0,0,0
   11:12.483   242094,),0,0,2
   11:12.811   242212,(,0,0,1
   11:12.889   242240,N,0,0,0
   11:12.969   242269,),0,0,1
   11:13.072   242306,(,0,0,2
   11:13.156   242336,t,0,0,0
   11:13.267   242376,),0,0,2
   11:13.575   242487,(,0,0,1
   11:13.636   242509,N,0,0,0
   11:13.717   242538,),0,0,1
   11:13.817   242574,(,0,0,2
   11:13.897   242603,t,0,0,0
   11:13.992   242637,),0,0,2
   11:14.311   242752,(,0,0,1
   11:14.389   242780,N,0,0,0
   11:14.467   242808,),0,0,1
   11:14.558   242841,(,0,0,2
   11:14.647   242873,t,0,0,0
   11:14.742   242907,),0,0,2
   11:15.067   243024,(,0,0,1
   11:15.125   243045,N,0,0,0
   11:15.208   243075,),0,0,1
   11:15.303   243109,(,0,0,2
   11:15.383   243138,t,0,0,0
   11:15.500   243180,),0,0,2
   11:15.814   243293,(,0,0,1
   11:15.881   243317,N,0,0,0
   11:15.961   243346,),0,0,1
   11:16.067   243384,(,0,0,2
   11:16.144   243412,t,0,0,0
   11:16.261   243454,),0,0,2
   11:16.578   243568,(,0,0,1
   11:16.647   243593,N,0,0,0
   11:16.728   243622,),0,0,1
   11:16.844   243664,(,0,0,2
   11:16.917   243690,t,0,0,0
   11:17.008   243723,),0,0,2
   11:18.469   244249,(,0,0,1
   11:18.500   244260,N,0,0,0
   11:18.614   244301,),0,0,1
   11:18.672   244322,(,0,0,2
   11:18.697   244331,t,0,0,4
   11:18.814   244373,t,0,0,4
   11:18.903   244405,),0,0,2
   11:18.947   244421,(,0,0,0
   11:19.050   244458,p,0,0,0
   11:19.117   244482,),0,0,0
   11:19.147   244493,(,0,0,1
   11:19.217   244518,N,0,0,0
   11:19.297   244547,),0,0,1
   11:19.389   244580,(,0,0,2
   11:19.478   244612,t,0,0,0
   11:19.567   244644,),0,0,2
   11:19.917   244770,(,0,0,1
   11:19.978   244792,N,0,0,0
   11:20.053   244819,),0,0,1
   11:20.133   244848,(,0,0,2
   11:20.228   244882,t,0,0,0
   11:20.328   244918,),0,0,2
   11:23.283   245982,(,0,0,0
   11:23.317   245994,p,0,0,0
   11:23.411   246028,),0,0,0
   11:23.489   246056,(,0,0,1
   11:23.544   246076,N,0,0,0
   11:23.631   246107,),0,0,1
   11:23.733   246144,(,0,0,2
   11:23.847   246185,t,0,0,4
   11:23.967   246228,t,0,0,4
   11:24.056   246260,),0,0,2
   11:25.475   246771,(,0,0,0
   11:25.533   246792,p,0,0,0
   11:25.625   246825,),0,0,0
   11:25.775   246879,(,0,0,1
   11:25.825   246897,N,0,0,0
   11:25.850   246906,),0,0,1
   11:25.903   246925,(,0,0,2
   11:25.994   246958,t,0,0,5
