Elapsedtime,sample,Type,Sub,Chan,Num
0:00.708,255,(,0,0,0
0:00.753,271,p,0,0,0
0:00.808,291,),0,0,0
0:00.825,297,(,0,0,1
0:00.886,319,N,0,0,0
0:00.922,332,),0,0,1
0:01.031,371,(,0,0,2
0:01.103,397,t,0,0,1
0:01.192,429,),0,0,2
0:01.283,462,(,0,0,1
0:01.378,496,N,0,0,0
0:01.453,523,),0,0,1
0:01.561,562,(,0,0,2
0:01.631,587,t,0,0,0
0:01.692,609,),0,0,2
0:01.892,681,(,0,0,0
0:01.939,698,p,0,0,0
0:01.994,718,),0,0,0
0:02.025,729,(,0,0,1
0:02.078,748,N,0,0,0
0:02.117,762,),0,0,1
0:02.231,803,(,0,0,2
0:02.300,828,t,0,0,1
0:02.383,858,),0,0,2
0:02.494,898,(,0,0,0
0:02.539,914,p,0,0,0
0:02.589,932,),0,0,0
0:02.622,944,(,0,0,1
0:02.675,963,N,0,0,0
0:02.711,976,),0,0,1
0:02.786,1003,t,0,0,3
0:02.872,1034,),0,0,2
0:02.983,1074,(,0,0,1
0:03.078,1108,N,0,0,0
0:03.158,1137,),0,0,1
0:03.178,1144,(,0,0,2
0:03.278,1180,t,0,0,0
0:03.386,1219,),0,0,2
0:03.653,1315,(,0,0,0
0:03.706,1334,p,0,0,0
0:03.756,1352,),0,0,0
0:03.786,1363,(,0,0,1
0:03.839,1382,N,0,0,0
0:03.878,1396,),0,0,1
0:03.986,1435,(,0,0,2
0:04.061,1462,t,0,0,1
0:04.150,1494,),0,0,2
0:04.244,1528,(,0,0,1
0:04.331,1559,N,0,0,0
0:04.411,1588,),0,0,1
0:04.519,1627,(,0,0,2
0:04.592,1653,t,0,0,0
0:04.661,1678,),0,0,2
0:04.867,1752,(,0,0,0
0:04.914,1769,p,0,0,0
0:04.969,1789,),0,0,0
0:04.989,1796,(,0,0,1
0:05.050,1818,N,0,0,0
0:05.089,1832,),0,0,1
0:05.189,1868,(,0,0,2
0:05.258,1893,t,0,0,1
0:05.344,1924,),0,0,2
0:05.461,1966,(,0,0,0
0:05.511,1984,p,0,0,0
0:05.564,2003,),0,0,0
0:05.586,2011,(,0,0,1
0:05.650,2034,N,0,0,0
0:05.686,2047,),0,0,1
0:05.744,2068,t,0,0,3
0:05.844,2104,),0,0,2
0:05.953,2143,(,0,0,1
0:06.036,2173,N,0,0,0
0:06.122,2204,),0,0,1
0:06.142,2211,(,0,0,2
0:06.231,2243,t,0,0,0
0:06.350,2286,),0,0,2
0:06.631,2387,(,0,0,0
0:06.675,2403,p,0,0,0
0:06.719,2419,),0,0,0
0:06.750,2430,(,0,0,1
0:06.800,2448,N,0,0,0
0:06.833,2460,),0,0,1
0:06.942,2499,(,0,0,2
0:07.025,2529,t,0,0,1
0:07.111,2560,),0,0,2
0:07.236,2605,(,0,0,0
0:07.283,2622,p,0,0,0
0:07.336,2641,),0,0,0
0:07.361,2650,(,0,0,1
0:07.417,2670,N,0,0,0
0:07.450,2682,),0,0,1
0:07.553,2719,(,0,0,2
0:07.617,2742,t,0,0,1
0:07.692,2769,),0,0,2
0:07.822,2816,(,0,0,0
0:07.869,2833,p,0,0,0
0:07.919,2851,),0,0,0
0:07.956,2864,(,0,0,1
0:08.008,2883,N,0,0,0
0:08.044,2896,),0,0,1
0:08.094,2914,t,0,0,3
0:08.217,2958,),0,0,2
0:08.317,2994,(,0,0,1
0:08.414,3029,N,0,0,0
0:08.494,3058,),0,0,1
0:08.522,3068,(,0,0,2
0:08.617,3102,t,0,0,0
0:08.725,3141,),0,0,2
0:09.008,3243,(,0,0,0
0:09.053,3259,p,0,0,0
0:09.106,3278,),0,0,0
0:09.122,3284,(,0,0,1
0:09.186,3307,N,0,0,0
0:09.219,3319,),0,0,1
0:09.331,3359,(,0,0,2
0:09.403,3385,t,0,0,1
0:09.486,3415,),0,0,2
0:09.589,3452,(,0,0,0
0:09.639,3470,p,0,0,0
0:09.692,3489,),0,0,0
0:09.719,3499,(,0,0,1
0:09.778,3520,N,0,0,0
0:09.814,3533,),0,0,1
0:09.911,3568,(,0,0,2
0:09.983,3594,t,0,0,1
0:10.058,3621,),0,0,2
0:10.178,3664,(,0,0,0
0:10.222,3680,p,0,0,0
0:10.272,3698,),0,0,0
0:10.289,3704,(,0,0,1
0:10.356,3728,N,0,0,0
0:10.392,3741,),0,0,1
0:10.500,3780,(,0,0,2
0:10.567,3804,t,0,0,1
0:10.647,3833,),0,0,2
0:10.767,3876,(,0,0,0
0:10.808,3891,p,0,0,0
0:10.864,3911,),0,0,0
0:10.889,3920,(,0,0,1
0:10.953,3943,N,0,0,0
0:10.989,3956,),0,0,1
0:11.094,3994,(,0,0,2
0:11.158,4017,t,0,0,1
0:11.242,4047,),0,0,2
0:11.364,4091,(,0,0,0
0:11.411,4108,p,0,0,0
0:11.467,4128,),0,0,0
0:11.486,4135,(,0,0,1
0:11.553,4159,N,0,0,0
0:11.592,4173,),0,0,1
0:11.697,4211,(,0,0,2
0:11.767,4236,t,0,0,1
0:11.842,4263,),0,0,2
0:11.964,4307,(,0,0,0
0:12.008,4323,p,0,0,0
0:12.064,4343,),0,0,0
0:12.094,4354,(,0,0,1
0:12.150,4374,N,0,0,0
0:12.183,4386,),0,0,1
0:12.253,4411,t,0,0,3
0:12.350,4446,),0,0,2
0:12.464,4487,(,0,0,1
0:12.558,4521,N,0,0,0
0:12.647,4553,),0,0,1
0:12.667,4560,(,0,0,2
0:12.764,4595,t,0,0,0
0:12.875,4635,),0,0,2
0:13.131,4727,(,0,0,0
0:13.183,4746,p,0,0,0
0:13.236,4765,),0,0,0
0:13.261,4774,(,0,0,1
0:13.319,4795,N,0,0,0
0:13.356,4808,),0,0,1
0:13.461,4846,(,0,0,2
0:13.536,4873,t,0,0,1
0:13.633,4908,),0,0,2
0:13.678,4924,(,0,0,1
0:13.758,4953,N,0,0,0
0:13.831,4979,),0,0,1
0:13.950,5022,(,0,0,2
0:14.017,5046,t,0,0,0
0:14.072,5066,),0,0,2
0:14.317,5154,(,0,0,0
0:14.361,5170,p,0,0,0
0:14.408,5187,),0,0,0
0:14.425,5193,(,0,0,1
0:14.492,5217,N,0,0,0
0:14.528,5230,),0,0,1
0:14.633,5268,(,0,0,2
0:14.714,5297,t,0,0,1
0:14.797,5327,),0,0,2
0:14.925,5373,(,0,0,0
0:14.969,5389,p,0,0,0
0:15.025,5409,),0,0,0
0:15.053,5419,(,0,0,1
0:15.106,5438,N,0,0,0
0:15.139,5450,),0,0,1
0:15.206,5474,t,0,0,3
0:15.294,5506,),0,0,2
0:15.319,5515,(,0,0,0
0:15.364,5531,p,0,0,0
0:15.403,5545,),0,0,0
0:15.453,5563,(,0,0,1
0:15.506,5582,N,0,0,0
0:15.536,5593,),0,0,1
0:15.636,5629,(,0,0,2
0:15.708,5655,t,0,0,1
0:15.786,5683,),0,0,2
0:15.919,5731,(,0,0,1
0:16.017,5766,N,0,0,0
0:16.100,5796,),0,0,1
0:16.119,5803,(,0,0,2
0:16.222,5840,t,0,0,0
0:16.331,5879,),0,0,2
0:16.606,5978,(,0,0,0
0:16.656,5996,p,0,0,0
0:16.711,6016,),0,0,0
0:16.731,6023,(,0,0,1
0:16.786,6043,N,0,0,0
0:16.819,6055,),0,0,1
0:16.925,6093,(,0,0,2
0:16.997,6119,t,0,0,1
0:17.081,6149,),0,0,2
0:17.178,6184,(,0,0,0
0:17.231,6203,p,0,0,0
0:17.286,6223,),0,0,0
0:17.317,6234,(,0,0,1
0:17.367,6252,N,0,0,0
0:17.403,6265,),0,0,1
0:17.506,6302,(,0,0,2
0:17.569,6325,t,0,0,1
0:17.650,6354,),0,0,2
0:17.772,6398,(,0,0,0
0:17.819,6415,p,0,0,0
0:17.872,6434,),0,0,0
0:17.892,6441,(,0,0,1
0:17.956,6464,N,0,0,0
0:17.992,6477,),0,0,1
0:18.100,6516,(,0,0,2
0:18.167,6540,t,0,0,1
0:18.247,6569,),0,0,2
0:18.372,6614,(,0,0,0
0:18.417,6630,p,0,0,0
0:18.472,6650,),0,0,0
0:18.492,6657,(,0,0,1
0:18.553,6679,N,0,0,0
0:18.589,6692,),0,0,1
0:18.683,6726,(,0,0,2
0:18.758,6753,t,0,0,1
0:18.833,6780,),0,0,2
0:18.953,6823,(,0,0,0
0:19.000,6840,p,0,0,0
0:19.056,6860,),0,0,0
0:19.086,6871,(,0,0,1
0:19.142,6891,N,0,0,0
0:19.178,6904,),0,0,1
0:19.281,6941,(,0,0,2
0:19.347,6965,t,0,0,1
0:19.425,6993,),0,0,2
0:19.539,7034,(,0,0,0
0:19.583,7050,p,0,0,0
0:19.639,7070,),0,0,0
0:19.661,7078,(,0,0,1
0:19.722,7100,N,0,0,0
0:19.756,7112,),0,0,1
0:19.853,7147,(,0,0,2
0:19.925,7173,t,0,0,1
0:20.003,7201,),0,0,2
0:20.119,7243,(,0,0,0
0:20.169,7261,p,0,0,0
0:20.222,7280,),0,0,0
0:20.253,7291,(,0,0,1
0:20.303,7309,N,0,0,0
0:20.342,7323,),0,0,1
0:20.439,7358,(,0,0,2
0:20.503,7381,t,0,0,1
0:20.611,7420,),0,0,2
0:20.694,7450,(,0,0,1
0:20.764,7475,N,0,0,0
0:20.797,7487,),0,0,1
0:20.883,7518,(,0,0,2
0:20.964,7547,t,0,0,1
0:21.042,7575,),0,0,2
0:21.231,7643,(,0,0,0
0:21.281,7661,p,0,0,0
0:21.336,7681,),0,0,0
0:21.356,7688,(,0,0,1
0:21.414,7709,N,0,0,0
0:21.450,7722,),0,0,1
0:21.556,7760,(,0,0,2
0:21.631,7787,t,0,0,1
0:21.714,7817,),0,0,2
0:21.822,7856,(,0,0,0
0:21.881,7877,p,0,0,0
0:21.931,7895,),0,0,0
0:21.958,7905,(,0,0,1
0:22.011,7924,N,0,0,0
0:22.047,7937,),0,0,1
0:22.122,7964,t,0,0,3
0:22.214,7997,),0,0,2
0:22.325,8037,(,0,0,1
0:22.422,8072,N,0,0,0
0:22.508,8103,),0,0,1
0:22.531,8111,(,0,0,2
0:22.631,8147,t,0,0,0
0:22.744,8188,),0,0,2
0:23.003,8281,(,0,0,0
0:23.053,8299,p,0,0,0
0:23.106,8318,),0,0,0
0:23.125,8325,(,0,0,1
0:23.183,8346,N,0,0,0
0:23.219,8359,),0,0,1
0:23.325,8397,(,0,0,2
0:23.403,8425,t,0,0,1
0:23.486,8455,),0,0,2
0:23.583,8490,(,0,0,0
0:23.633,8508,p,0,0,0
0:23.683,8526,),0,0,0
0:23.717,8538,(,0,0,1
0:23.767,8556,N,0,0,0
0:23.800,8568,),0,0,1
0:23.903,8605,(,0,0,2
0:23.969,8629,t,0,0,1
0:24.047,8657,),0,0,2
0:24.158,8697,(,0,0,0
0:24.208,8715,p,0,0,0
0:24.261,8734,),0,0,0
0:24.292,8745,(,0,0,1
0:24.347,8765,N,0,0,0
0:24.386,8779,),0,0,1
0:24.458,8805,t,0,0,3
0:24.550,8838,),0,0,2
0:24.678,8884,(,0,0,1
0:24.772,8918,N,0,0,0
0:24.864,8951,),0,0,1
0:24.889,8960,(,0,0,2
0:24.986,8995,t,0,0,0
0:25.106,9038,),0,0,2
0:25.344,9124,(,0,0,0
0:25.394,9142,p,0,0,0
0:25.450,9162,),0,0,0
0:25.464,9167,(,0,0,1
0:25.525,9189,N,0,0,0
0:25.561,9202,),0,0,1
0:25.669,9241,(,0,0,2
0:25.739,9266,t,0,0,1
0:25.825,9297,),0,0,2
0:25.917,9330,(,0,0,0
0:25.969,9349,p,0,0,0
0:26.031,9371,),0,0,0
0:26.056,9380,(,0,0,1
0:26.108,9399,N,0,0,0
0:26.142,9411,),0,0,1
0:26.236,9445,(,0,0,2
0:26.314,9473,t,0,0,1
0:26.386,9499,),0,0,2
0:26.494,9538,(,0,0,0
0:26.542,9555,p,0,0,0
0:26.600,9576,),0,0,0
0:26.622,9584,(,0,0,1
0:26.678,9604,N,0,0,0
0:26.711,9616,),0,0,1
0:26.825,9657,(,0,0,2
0:26.886,9679,t,0,0,1
0:26.967,9708,),0,0,2
0:27.067,9744,(,0,0,0
0:27.122,9764,p,0,0,0
0:27.178,9784,),0,0,0
0:27.194,9790,(,0,0,1
0:27.256,9812,N,0,0,0
0:27.292,9825,),0,0,1
0:27.397,9863,(,0,0,2
0:27.458,9885,t,0,0,1
0:27.542,9915,),0,0,2
0:27.644,9952,(,0,0,1
0:27.728,9982,N,0,0,0
0:27.800,10008,),0,0,1
0:27.806,10010,(,0,0,2
0:27.917,10050,t,0,0,1
0:28.033,10092,),0,0,2
0:28.208,10155,(,0,0,0
0:28.261,10174,p,0,0,0
0:28.297,10187,),0,0,0
0:28.311,10192,(,0,0,1
0:28.397,10223,N,0,0,0
0:28.444,10240,),0,0,1
0:28.556,10280,(,0,0,0
0:28.614,10301,p,0,0,0
0:28.669,10321,),0,0,0
0:28.686,10327,(,0,0,1
0:28.761,10354,N,0,0,0
0:28.839,10382,),0,0,1
0:28.881,10397,(,0,0,2
0:28.972,10430,t,0,0,0
0:29.081,10469,),0,0,2
0:29.394,10582,(,0,0,0
0:29.444,10600,p,0,0,0
0:29.500,10620,),0,0,0
0:29.522,10628,(,0,0,1
0:29.575,10647,N,0,0,0
0:29.608,10659,),0,0,1
0:29.719,10699,(,0,0,2
0:29.786,10723,t,0,0,1
0:29.867,10752,),0,0,2
0:29.950,10782,(,0,0,1
0:30.039,10814,N,0,0,0
0:30.117,10842,),0,0,1
0:30.225,10881,(,0,0,2
0:30.294,10906,t,0,0,0
0:30.350,10926,),0,0,2
0:30.528,10990,(,0,0,0
0:30.578,11008,p,0,0,0
0:30.636,11029,),0,0,0
0:30.661,11038,(,0,0,1
0:30.711,11056,N,0,0,0
0:30.744,11068,),0,0,1
0:30.856,11108,(,0,0,2
0:30.928,11134,t,0,0,1
0:31.006,11162,),0,0,2
0:31.106,11198,(,0,0,0
0:31.158,11217,p,0,0,0
0:31.214,11237,),0,0,0
0:31.247,11249,(,0,0,1
0:31.297,11267,N,0,0,0
0:31.331,11279,),0,0,1
0:31.400,11304,t,0,0,3
0:31.500,11340,),0,0,2
0:31.614,11381,(,0,0,1
0:31.708,11415,N,0,0,0
0:31.797,11447,),0,0,1
0:31.842,11463,(,0,0,2
0:31.919,11491,t,0,0,0
0:32.044,11536,),0,0,2
0:32.292,11625,(,0,0,0
0:32.342,11643,p,0,0,0
0:32.397,11663,),0,0,0
0:32.422,11672,(,0,0,1
0:32.475,11691,N,0,0,0
0:32.511,11704,),0,0,1
0:32.614,11741,(,0,0,2
0:32.694,11770,t,0,0,1
0:32.781,11801,),0,0,2
0:32.861,11830,(,0,0,1
0:32.964,11867,N,0,0,0
0:33.044,11896,),0,0,1
0:33.147,11933,(,0,0,2
0:33.214,11957,t,0,0,0
0:33.283,11982,),0,0,2
0:33.433,12036,(,0,0,0
0:33.486,12055,p,0,0,0
0:33.550,12078,),0,0,0
0:33.564,12083,(,0,0,1
0:33.631,12107,N,0,0,0
0:33.664,12119,),0,0,1
0:33.769,12157,(,0,0,2
0:33.836,12181,t,0,0,1
0:33.914,12209,),0,0,2
0:34.017,12246,(,0,0,0
0:34.069,12265,p,0,0,0
0:34.128,12286,),0,0,0
0:34.153,12295,(,0,0,1
0:34.203,12313,N,0,0,0
0:34.236,12325,),0,0,1
0:34.319,12355,t,0,0,3
0:34.411,12388,),0,0,2
0:34.522,12428,(,0,0,1
0:34.619,12463,N,0,0,0
0:34.703,12493,),0,0,1
0:34.722,12500,(,0,0,2
0:34.817,12534,t,0,0,0
0:34.928,12574,),0,0,2
0:35.186,12667,(,0,0,0
0:35.231,12683,p,0,0,0
0:35.289,12704,),0,0,0
0:35.306,12710,(,0,0,1
0:35.372,12734,N,0,0,0
0:35.453,12763,),0,0,1
0:35.514,12785,(,0,0,2
0:35.589,12812,t,0,0,1
0:35.675,12843,),0,0,2
0:35.764,12875,(,0,0,1
0:35.919,12931,N,0,0,0
0:35.969,12949,),0,0,1
0:36.025,12969,(,0,0,2
0:36.044,12976,t,0,0,4
0:36.153,13015,t,0,0,4
0:36.217,13038,),0,0,2
0:36.361,13090,(,0,0,0
0:36.414,13109,p,0,0,0
0:36.461,13126,),0,0,0
0:36.492,13137,(,0,0,1
0:36.539,13154,N,0,0,0
0:36.608,13179,),0,0,1
0:36.681,13205,(,0,0,2
0:36.753,13231,t,0,0,1
0:36.831,13259,),0,0,2
0:36.933,13296,(,0,0,0
0:36.986,13315,p,0,0,0
0:37.039,13334,),0,0,0
0:37.067,13344,(,0,0,1
0:37.117,13362,N,0,0,0
0:37.153,13375,),0,0,1
0:37.261,13414,(,0,0,2
0:37.319,13435,t,0,0,1
0:37.392,13461,),0,0,2
0:37.492,13497,(,0,0,0
0:37.539,13514,p,0,0,0
0:37.594,13534,),0,0,0
0:37.628,13546,(,0,0,1
0:37.678,13564,N,0,0,0
0:37.711,13576,),0,0,1
0:37.811,13612,(,0,0,2
0:37.872,13634,t,0,0,1
0:37.956,13664,),0,0,2
0:38.042,13695,(,0,0,1
0:38.131,13727,N,0,0,0
0:38.214,13757,),0,0,1
0:38.256,13772,(,0,0,2
0:38.294,13786,t,0,0,4
0:38.403,13825,t,0,0,4
0:38.458,13845,),0,0,2
0:38.650,13914,(,0,0,0
0:38.692,13929,p,0,0,0
0:38.750,13950,),0,0,0
0:38.764,13955,(,0,0,1
0:38.833,13980,N,0,0,0
0:38.864,13991,),0,0,1
0:38.969,14029,(,0,0,2
0:39.050,14058,t,0,0,1
0:39.119,14083,),0,0,2
0:39.225,14121,(,0,0,0
0:39.275,14139,p,0,0,0
0:39.325,14157,),0,0,0
0:39.356,14168,(,0,0,1
0:39.403,14185,N,0,0,0
0:39.433,14196,),0,0,1
0:39.494,14218,t,0,0,3
0:39.603,14257,),0,0,2
0:39.719,14299,(,0,0,1
0:39.811,14332,N,0,0,0
0:39.897,14363,),0,0,1
0:39.919,14371,(,0,0,2
0:40.008,14403,t,0,0,0
0:40.119,14443,),0,0,2
0:40.342,14523,(,0,0,0
0:40.397,14543,p,0,0,0
0:40.453,14563,),0,0,0
0:40.481,14573,(,0,0,1
0:40.528,14590,N,0,0,0
0:40.564,14603,),0,0,1
0:40.672,14642,(,0,0,2
0:40.744,14668,t,0,0,1
0:40.828,14698,),0,0,2
0:40.989,14756,(,0,0,1
0:41.081,14789,N,0,0,0
0:41.125,14805,),0,0,1
0:41.239,14846,(,0,0,2
0:41.308,14871,t,0,0,0
0:41.372,14894,),0,0,2
0:41.483,14934,(,0,0,0
0:41.533,14952,p,0,0,0
0:41.583,14970,),0,0,0
0:41.611,14980,(,0,0,1
0:41.661,14998,N,0,0,0
0:41.694,15010,),0,0,1
0:41.792,15045,(,0,0,2
0:41.867,15072,t,0,0,1
0:41.947,15101,),0,0,2
0:42.058,15141,(,0,0,0
0:42.106,15158,p,0,0,0
0:42.156,15176,),0,0,0
0:42.186,15187,(,0,0,1
0:42.233,15204,N,0,0,0
0:42.267,15216,),0,0,1
0:42.378,15256,(,0,0,2
0:42.436,15277,t,0,0,1
0:42.514,15305,),0,0,2
0:42.619,15343,(,0,0,0
0:42.672,15362,p,0,0,0
0:42.725,15381,),0,0,0
0:42.756,15392,(,0,0,1
0:42.808,15411,N,0,0,0
0:42.844,15424,),0,0,1
0:42.953,15463,(,0,0,2
0:43.019,15487,t,0,0,1
0:43.100,15516,),0,0,2
0:43.189,15548,(,0,0,1
0:43.286,15583,N,0,0,0
0:43.367,15612,),0,0,1
0:43.567,15684,(,0,0,1
0:43.661,15718,N,0,0,0
0:43.753,15751,),0,0,1
0:43.806,15770,(,0,0,2
0:43.867,15792,t,0,0,0
0:43.975,15831,),0,0,2
0:44.342,15963,(,0,0,0
0:44.378,15976,p,0,0,0
0:44.428,15994,),0,0,0
0:44.458,16005,(,0,0,1
0:44.506,16022,N,0,0,0
0:44.536,16033,),0,0,1
0:44.628,16066,t,0,0,3
0:44.717,16098,),0,0,2
0:44.744,16108,(,0,0,1
0:44.911,16168,N,0,0,0
0:44.975,16191,),0,0,1
0:45.042,16215,(,0,0,2
0:45.081,16229,t,0,0,1
0:45.164,16259,),0,0,2
0:45.472,16370,(,0,0,0
0:45.536,16393,p,0,0,0
0:45.597,16415,),0,0,0
0:45.614,16421,(,0,0,1
0:45.669,16441,N,0,0,0
0:45.706,16454,),0,0,1
0:45.814,16493,(,0,0,2
0:45.883,16518,t,0,0,1
0:45.981,16553,),0,0,2
0:46.056,16580,(,0,0,0
0:46.108,16599,p,0,0,0
0:46.161,16618,),0,0,0
0:46.192,16629,(,0,0,1
0:46.239,16646,N,0,0,0
0:46.275,16659,),0,0,1
0:46.386,16699,(,0,0,2
0:46.450,16722,t,0,0,1
0:46.533,16752,),0,0,2
0:46.619,16783,(,0,0,0
0:46.675,16803,p,0,0,0
0:46.731,16823,),0,0,0
0:46.764,16835,(,0,0,1
0:46.808,16851,N,0,0,0
0:46.842,16863,),0,0,1
0:46.942,16899,(,0,0,2
0:47.003,16921,t,0,0,1
0:47.081,16949,),0,0,2
0:47.189,16988,(,0,0,0
0:47.233,17004,p,0,0,0
0:47.283,17022,),0,0,0
0:47.317,17034,(,0,0,1
0:47.367,17052,N,0,0,0
0:47.397,17063,),0,0,1
0:47.492,17097,(,0,0,2
0:47.567,17124,t,0,0,1
0:47.644,17152,),0,0,2
0:47.753,17191,(,0,0,0
0:47.797,17207,p,0,0,0
0:47.847,17225,),0,0,0
0:47.867,17232,(,0,0,1
0:47.928,17254,N,0,0,0
0:47.964,17267,),0,0,1
0:48.058,17301,t,0,0,3
0:48.136,17329,),0,0,2
0:48.228,17362,(,0,0,1
0:48.328,17398,N,0,0,0
0:48.408,17427,),0,0,1
0:48.469,17449,(,0,0,2
0:48.528,17470,t,0,0,0
0:48.644,17512,),0,0,2
0:48.939,17618,(,0,0,1
0:49.067,17664,N,0,0,0
0:49.103,17677,),0,0,1
0:49.211,17716,(,0,0,2
0:49.286,17743,t,0,0,1
0:49.372,17774,),0,0,2
0:49.469,17809,(,0,0,0
0:49.514,17825,p,0,0,0
0:49.567,17844,),0,0,0
0:49.594,17854,(,0,0,1
0:49.650,17874,N,0,0,0
0:49.683,17886,),0,0,1
0:49.789,17924,(,0,0,2
0:49.858,17949,t,0,0,1
0:49.933,17976,),0,0,2
0:50.042,18015,(,0,0,0
0:50.081,18029,p,0,0,0
0:50.131,18047,),0,0,0
0:50.153,18055,(,0,0,1
0:50.208,18075,N,0,0,0
0:50.244,18088,),0,0,1
0:50.311,18112,t,0,0,3
0:50.414,18149,),0,0,2
0:50.517,18186,(,0,0,1
0:50.617,18222,N,0,0,0
0:50.697,18251,),0,0,1
0:50.722,18260,(,0,0,2
0:50.819,18295,t,0,0,0
0:50.922,18332,),0,0,2
0:51.144,18412,(,0,0,0
0:51.200,18432,p,0,0,0
0:51.233,18444,),0,0,0
0:51.258,18453,(,0,0,1
0:51.331,18479,N,0,0,0
0:51.364,18491,),0,0,1
0:51.469,18529,(,0,0,2
0:51.544,18556,t,0,0,1
0:51.636,18589,),0,0,2
0:51.717,18618,(,0,0,0
0:51.769,18637,p,0,0,0
0:51.822,18656,),0,0,0
0:51.853,18667,(,0,0,1
0:51.903,18685,N,0,0,0
0:51.939,18698,),0,0,1
0:52.036,18733,(,0,0,2
0:52.111,18760,t,0,0,1
0:52.181,18785,),0,0,2
0:52.303,18829,(,0,0,0
0:52.347,18845,p,0,0,0
0:52.403,18865,),0,0,0
0:52.436,18877,(,0,0,1
0:52.486,18895,N,0,0,0
0:52.525,18909,),0,0,1
0:52.633,18948,(,0,0,2
0:52.689,18968,t,0,0,1
0:52.772,18998,),0,0,2
0:52.869,19033,(,0,0,0
0:52.919,19051,p,0,0,0
0:52.969,19069,),0,0,0
0:53.003,19081,(,0,0,1
0:53.050,19098,N,0,0,0
0:53.086,19111,),0,0,1
0:53.217,19158,(,0,0,2
0:53.264,19175,t,0,0,1
0:53.344,19204,),0,0,2
0:53.439,19238,(,0,0,0
0:53.486,19255,p,0,0,0
0:53.542,19275,),0,0,0
0:53.561,19282,(,0,0,1
0:53.617,19302,N,0,0,0
0:53.653,19315,),0,0,1
0:53.739,19346,(,0,0,2
0:53.806,19370,t,0,0,1
0:53.881,19397,),0,0,2
0:53.947,19421,(,0,0,1
0:54.050,19458,N,0,0,0
0:54.136,19489,),0,0,1
0:54.158,19497,(,0,0,2
0:54.242,19527,t,0,0,0
0:54.358,19569,),0,0,2
0:54.547,19637,(,0,0,0
0:54.600,19656,p,0,0,0
0:54.656,19676,),0,0,0
0:54.669,19681,(,0,0,1
0:54.736,19705,N,0,0,0
0:54.772,19718,),0,0,1
0:54.878,19756,(,0,0,2
0:54.956,19784,t,0,0,1
0:55.039,19814,),0,0,2
0:55.125,19845,(,0,0,0
0:55.178,19864,p,0,0,0
0:55.225,19881,),0,0,0
0:55.239,19886,(,0,0,1
0:55.306,19910,N,0,0,0
0:55.336,19921,),0,0,1
0:55.442,19959,(,0,0,2
0:55.508,19983,t,0,0,1
0:55.589,20012,),0,0,2
0:55.703,20053,(,0,0,0
0:55.747,20069,p,0,0,0
0:55.803,20089,),0,0,0
0:55.836,20101,(,0,0,1
0:55.883,20118,N,0,0,0
0:55.919,20131,),0,0,1
0:56.036,20173,(,0,0,2
0:56.089,20192,t,0,0,1
0:56.164,20219,),0,0,2
0:56.267,20256,(,0,0,1
0:56.356,20288,N,0,0,0
0:56.436,20317,),0,0,1
0:56.542,20355,(,0,0,2
0:56.614,20381,t,0,0,0
0:56.664,20399,),0,0,2
0:56.753,20431,(,0,0,0
0:56.775,20439,p,0,0,0
0:56.869,20473,),0,0,0
0:56.908,20487,(,0,0,1
0:57.014,20525,N,0,0,0
0:57.117,20562,),0,0,1
0:57.150,20574,(,0,0,2
0:57.225,20601,t,0,0,1
0:57.300,20628,),0,0,2
0:57.431,20675,(,0,0,0
0:57.456,20684,p,0,0,0
0:57.503,20701,),0,0,0
0:57.506,20702,(,0,0,1
0:57.586,20731,N,0,0,0
0:57.619,20743,),0,0,1
0:57.703,20773,t,0,0,3
0:57.781,20801,),0,0,2
0:57.889,20840,(,0,0,1
0:57.981,20873,N,0,0,0
0:58.072,20906,),0,0,1
0:58.103,20917,(,0,0,2
0:58.178,20944,t,0,0,0
0:58.281,20981,),0,0,2
0:58.547,21077,(,0,0,0
0:58.575,21087,p,0,0,0
0:58.586,21091,),0,0,0
0:58.625,21105,(,0,0,1
0:58.719,21139,N,0,0,0
0:58.839,21182,),0,0,1
0:58.844,21184,(,0,0,2
0:58.928,21214,t,0,0,4
0:59.050,21258,t,0,0,4
0:59.072,21266,),0,0,2
0:59.125,21285,(,0,0,0
0:59.167,21300,p,0,0,0
0:59.228,21322,),0,0,0
0:59.236,21325,(,0,0,1
0:59.308,21351,N,0,0,0
0:59.339,21362,),0,0,1
0:59.464,21407,(,0,0,2
0:59.506,21422,t,0,0,1
0:59.578,21448,),0,0,2
0:59.694,21490,(,0,0,0
0:59.736,21505,p,0,0,0
0:59.786,21523,),0,0,0
0:59.800,21528,(,0,0,1
0:59.872,21554,N,0,0,0
0:59.908,21567,),0,0,1
1:00.053,21619,(,0,0,2
1:00.086,21631,t,0,0,1
1:00.161,21658,),0,0,2
1:00.286,21703,(,0,0,0
1:00.319,21715,p,0,0,0
1:00.364,21731,),0,0,0
1:00.394,21742,(,0,0,1
1:00.447,21761,N,0,0,0
1:00.500,21780,),0,0,1
1:00.567,21804,(,0,0,2
1:00.642,21831,t,0,0,1
1:00.736,21865,),0,0,2
1:00.831,21899,(,0,0,0
1:00.878,21916,p,0,0,0
1:00.933,21936,),0,0,0
1:00.942,21939,(,0,0,1
1:01.011,21964,N,0,0,0
1:01.072,21986,),0,0,1
1:01.119,22003,(,0,0,2
1:01.219,22039,t,0,0,1
1:01.281,22061,),0,0,2
1:01.397,22103,(,0,0,0
1:01.450,22122,p,0,0,0
1:01.497,22139,),0,0,0
1:01.506,22142,(,0,0,1
1:01.581,22169,N,0,0,0
1:01.619,22183,),0,0,1
1:01.697,22211,t,0,0,3
1:01.772,22238,),0,0,2
1:01.894,22282,(,0,0,1
1:01.994,22318,N,0,0,0
1:02.083,22350,),0,0,1
1:02.103,22357,(,0,0,2
1:02.197,22391,t,0,0,0
1:02.311,22432,),0,0,2
1:02.528,22510,(,0,0,0
1:02.581,22529,p,0,0,0
1:02.633,22548,),0,0,0
1:02.636,22549,(,0,0,1
1:02.717,22578,N,0,0,0
1:02.753,22591,),0,0,1
1:02.856,22628,(,0,0,2
1:02.925,22653,t,0,0,1
1:03.028,22690,),0,0,2
1:03.075,22707,(,0,0,1
1:03.244,22768,N,0,0,0
1:03.286,22783,),0,0,1
1:03.386,22819,(,0,0,2
1:03.467,22848,t,0,0,0
1:03.539,22874,),0,0,2
1:03.678,22924,(,0,0,0
1:03.725,22941,p,0,0,0
1:03.778,22960,),0,0,0
1:03.817,22974,(,0,0,1
1:03.861,22990,N,0,0,0
1:03.897,23003,),0,0,1
1:04.003,23041,(,0,0,2
1:04.072,23066,t,0,0,1
1:04.158,23097,),0,0,2
1:04.261,23134,(,0,0,0
1:04.300,23148,p,0,0,0
1:04.353,23167,),0,0,0
1:04.369,23173,(,0,0,1
1:04.431,23195,N,0,0,0
1:04.464,23207,),0,0,1
1:04.531,23231,t,0,0,3
1:04.617,23262,),0,0,2
1:04.714,23297,(,0,0,1
1:04.814,23333,N,0,0,0
1:04.900,23364,),0,0,1
1:04.922,23372,(,0,0,2
1:05.017,23406,t,0,0,0
1:05.128,23446,),0,0,2
1:05.389,23540,(,0,0,0
1:05.425,23553,p,0,0,0
1:05.478,23572,),0,0,0
1:05.514,23585,(,0,0,1
1:05.558,23601,N,0,0,0
1:05.594,23614,),0,0,1
1:05.694,23650,t,0,0,3
1:05.769,23677,),0,0,2
1:05.886,23719,(,0,0,1
1:05.986,23755,N,0,0,0
1:06.069,23785,),0,0,1
1:06.131,23807,(,0,0,2
1:06.186,23827,t,0,0,0
1:06.300,23868,),0,0,2
1:06.528,23950,(,0,0,0
1:06.564,23963,p,0,0,0
1:06.619,23983,),0,0,0
1:06.653,23995,(,0,0,1
1:06.706,24014,N,0,0,0
1:06.744,24028,),0,0,1
1:06.825,24057,(,0,0,2
1:06.933,24096,t,0,0,1
1:07.008,24123,),0,0,2
1:07.097,24155,(,0,0,0
1:07.150,24174,p,0,0,0
1:07.189,24188,),0,0,0
1:07.222,24200,(,0,0,1
1:07.272,24218,N,0,0,0
1:07.306,24230,),0,0,1
1:07.408,24267,(,0,0,2
1:07.478,24292,t,0,0,4
1:07.586,24331,t,0,0,4
1:07.636,24349,),0,0,2
1:07.667,24360,(,0,0,0
1:07.706,24374,p,0,0,0
1:07.758,24393,),0,0,0
1:07.772,24398,(,0,0,1
1:07.844,24424,N,0,0,0
1:07.886,24439,),0,0,1
1:07.981,24473,(,0,0,2
1:08.042,24495,t,0,0,1
1:08.131,24527,),0,0,2
1:08.236,24565,(,0,0,0
1:08.281,24581,p,0,0,0
1:08.328,24598,),0,0,0
1:08.372,24614,(,0,0,1
1:08.419,24631,N,0,0,0
1:08.481,24653,),0,0,1
1:08.556,24680,(,0,0,2
1:08.619,24703,t,0,0,1
1:08.692,24729,),0,0,2
1:08.783,24762,(,0,0,0
1:08.850,24786,p,0,0,0
1:08.892,24801,),0,0,0
1:08.900,24804,(,0,0,1
1:08.975,24831,N,0,0,0
1:09.050,24858,),0,0,1
1:09.144,24892,(,0,0,2
1:09.192,24909,t,0,0,1
1:09.267,24936,),0,0,2
1:09.331,24959,(,0,0,1
1:09.422,24992,N,0,0,0
1:09.503,25021,),0,0,1
1:09.600,25056,(,0,0,2
1:09.694,25090,t,0,0,0
1:09.750,25110,),0,0,2
1:09.933,25176,(,0,0,0
1:10.003,25201,p,0,0,0
1:10.050,25218,),0,0,0
1:10.081,25229,(,0,0,1
1:10.131,25247,N,0,0,0
1:10.167,25260,),0,0,1
1:10.267,25296,(,0,0,2
1:10.336,25321,t,0,0,1
1:10.419,25351,),0,0,2
1:10.522,25388,(,0,0,0
1:10.564,25403,p,0,0,0
1:10.611,25420,),0,0,0
1:10.639,25430,(,0,0,1
1:10.700,25452,N,0,0,0
1:10.789,25484,),0,0,1
1:10.792,25485,t,0,0,3
1:10.897,25523,),0,0,2
1:10.994,25558,(,0,0,1
1:11.103,25597,N,0,0,0
1:11.183,25626,),0,0,1
1:11.222,25640,(,0,0,2
1:11.294,25666,t,0,0,0
1:11.406,25706,),0,0,2
1:11.636,25789,(,0,0,0
1:11.689,25808,p,0,0,0
1:11.744,25828,),0,0,0
1:11.764,25835,(,0,0,1
1:11.822,25856,N,0,0,0
1:11.858,25869,),0,0,1
1:11.969,25909,(,0,0,2
1:12.047,25937,t,0,0,1
1:12.128,25966,),0,0,2
1:12.222,26000,(,0,0,1
1:12.317,26034,N,0,0,0
1:12.400,26064,),0,0,1
1:12.508,26103,(,0,0,2
1:12.586,26131,t,0,0,0
1:12.631,26147,),0,0,2
1:12.814,26213,(,0,0,0
1:12.861,26230,p,0,0,0
1:12.917,26250,),0,0,0
1:12.953,26263,(,0,0,1
1:13.000,26280,N,0,0,0
1:13.031,26291,),0,0,1
1:13.144,26332,(,0,0,2
1:13.211,26356,t,0,0,1
1:13.289,26384,),0,0,2
1:13.394,26422,(,0,0,0
1:13.439,26438,p,0,0,0
1:13.503,26461,),0,0,0
1:13.531,26471,(,0,0,1
1:13.578,26488,N,0,0,0
1:13.611,26500,),0,0,1
1:13.692,26529,t,0,0,3
1:13.764,26555,),0,0,2
1:13.864,26591,(,0,0,1
1:13.981,26633,N,0,0,0
1:14.064,26663,),0,0,1
1:14.086,26671,(,0,0,2
1:14.172,26702,t,0,0,0
1:14.286,26743,),0,0,2
1:14.528,26830,(,0,0,0
1:14.578,26848,p,0,0,0
1:14.631,26867,),0,0,0
1:14.664,26879,(,0,0,1
1:14.711,26896,N,0,0,0
1:14.744,26908,),0,0,1
1:14.833,26940,(,0,0,2
1:14.925,26973,t,0,0,1
1:15.019,27007,),0,0,2
1:15.097,27035,(,0,0,0
1:15.153,27055,p,0,0,0
1:15.203,27073,),0,0,0
1:15.217,27078,(,0,0,1
1:15.286,27103,N,0,0,0
1:15.333,27120,),0,0,1
1:15.450,27162,(,0,0,2
1:15.489,27176,t,0,0,4
1:15.561,27202,t,0,0,4
1:15.594,27214,),0,0,2
1:15.664,27239,(,0,0,0
1:15.722,27260,p,0,0,0
1:15.767,27276,),0,0,0
1:15.800,27288,(,0,0,1
1:15.856,27308,N,0,0,0
1:15.886,27319,),0,0,1
1:15.978,27352,t,0,0,3
1:16.061,27382,),0,0,2
1:16.175,27423,(,0,0,1
1:16.286,27463,N,0,0,0
1:16.369,27493,),0,0,1
1:16.411,27508,(,0,0,2
1:16.483,27534,t,0,0,0
1:16.597,27575,),0,0,2
1:16.839,27662,(,0,0,0
1:16.886,27679,p,0,0,0
1:16.933,27696,),0,0,0
1:16.964,27707,(,0,0,1
1:17.022,27728,N,0,0,0
1:17.061,27742,),0,0,1
1:17.164,27779,(,0,0,2
1:17.239,27806,t,0,0,4
1:17.350,27846,t,0,0,4
1:17.378,27856,),0,0,2
1:17.411,27868,(,0,0,0
1:17.467,27888,p,0,0,0
1:17.508,27903,),0,0,0
1:17.525,27909,(,0,0,1
1:17.594,27934,N,0,0,0
1:17.631,27947,),0,0,1
1:17.725,27981,(,0,0,2
1:17.783,28002,t,0,0,1
1:17.883,28038,),0,0,2
1:17.911,28048,(,0,0,0
1:17.933,28056,p,0,0,0
1:18.006,28082,),0,0,0
1:18.033,28092,(,0,0,1
1:18.147,28133,N,0,0,0
1:18.183,28146,),0,0,1
1:18.286,28183,(,0,0,2
1:18.353,28207,t,0,0,1
1:18.422,28232,),0,0,2
1:18.497,28259,(,0,0,1
1:18.592,28293,N,0,0,0
1:18.672,28322,),0,0,1
1:18.778,28360,(,0,0,2
1:18.875,28395,t,0,0,0
1:18.911,28408,),0,0,2
1:19.089,28472,(,0,0,0
1:19.153,28495,p,0,0,0
1:19.178,28504,),0,0,0
1:19.197,28511,(,0,0,1
1:19.283,28542,N,0,0,0
1:19.386,28579,),0,0,1
1:19.406,28586,(,0,0,2
1:19.500,28620,t,0,0,4
1:19.622,28664,t,0,0,4
1:19.647,28673,),0,0,2
1:19.703,28693,(,0,0,0
1:19.736,28705,p,0,0,0
1:19.786,28723,),0,0,0
1:19.792,28725,(,0,0,1
1:19.872,28754,N,0,0,0
1:19.914,28769,),0,0,1
1:19.967,28788,t,0,0,3
1:20.067,28824,),0,0,2
1:20.178,28864,(,0,0,1
1:20.278,28900,N,0,0,0
1:20.372,28934,),0,0,1
1:20.394,28942,(,0,0,2
1:20.483,28974,t,0,0,0
1:20.592,29013,),0,0,2
1:20.822,29096,(,0,0,0
1:20.869,29113,p,0,0,0
1:20.906,29126,),0,0,0
1:20.917,29130,(,0,0,1
1:20.986,29155,N,0,0,0
1:21.019,29167,),0,0,1
1:21.108,29199,(,0,0,2
1:21.203,29233,t,0,0,1
1:21.278,29260,),0,0,2
1:21.364,29291,(,0,0,1
1:21.386,29299,(,0,0,0
1:21.431,29315,p,0,0,0
1:21.433,29316,N,0,0,0
1:21.464,29327,),0,0,0
1:21.511,29344,),0,0,1
1:21.628,29386,(,0,0,1
1:21.747,29429,N,0,0,0
1:21.786,29443,),0,0,1
1:21.828,29458,(,0,0,2
1:21.925,29493,t,0,0,0
1:22.011,29524,),0,0,2
1:22.436,29677,(,0,0,0
1:22.469,29689,p,0,0,0
1:22.511,29704,),0,0,0
1:22.528,29710,(,0,0,1
1:22.589,29732,N,0,0,0
1:22.625,29745,),0,0,1
1:22.700,29772,(,0,0,2
1:22.828,29818,t,0,0,1
1:22.900,29844,),0,0,2
1:22.978,29872,(,0,0,0
1:22.983,29874,p,0,0,0
1:23.019,29887,),0,0,0
1:23.078,29908,(,0,0,1
1:23.175,29943,N,0,0,0
1:23.208,29955,),0,0,1
1:23.306,29990,(,0,0,2
1:23.344,30004,t,0,0,1
1:23.481,30053,),0,0,2
1:23.556,30080,(,0,0,0
1:23.614,30101,p,0,0,0
1:23.678,30124,),0,0,0
1:23.697,30131,(,0,0,1
1:23.753,30151,N,0,0,0
1:23.792,30165,),0,0,1
1:23.878,30196,(,0,0,2
1:23.964,30227,t,0,0,1
1:24.039,30254,),0,0,2
1:24.158,30297,(,0,0,0
1:24.197,30311,p,0,0,0
1:24.233,30324,),0,0,0
1:24.267,30336,(,0,0,1
1:24.325,30357,N,0,0,0
1:24.411,30388,),0,0,1
1:24.447,30401,(,0,0,2
1:24.531,30431,t,0,0,4
1:24.608,30459,t,0,0,4
1:24.644,30472,),0,0,2
1:24.711,30496,(,0,0,0
1:24.756,30512,p,0,0,0
1:24.806,30530,),0,0,0
1:24.842,30543,(,0,0,1
1:24.886,30559,N,0,0,0
1:24.919,30571,),0,0,1
1:25.044,30616,(,0,0,2
1:25.086,30631,t,0,0,4
1:25.181,30665,t,0,0,4
1:25.203,30673,),0,0,2
1:25.283,30702,(,0,0,0
1:25.319,30715,p,0,0,0
1:25.364,30731,),0,0,0
1:25.383,30738,(,0,0,1
1:25.444,30760,N,0,0,0
1:25.478,30772,),0,0,1
1:25.572,30806,(,0,0,2
1:25.653,30835,t,0,0,1
1:25.719,30859,),0,0,2
1:25.786,30883,(,0,0,0
1:25.806,30890,p,0,0,0
1:25.878,30916,),0,0,0
1:25.914,30929,(,0,0,1
1:26.017,30966,N,0,0,0
1:26.111,31000,),0,0,1
1:26.161,31018,(,0,0,2
1:26.233,31044,t,0,0,1
1:26.306,31070,),0,0,2
1:26.408,31107,(,0,0,0
1:26.458,31125,p,0,0,0
1:26.533,31152,),0,0,0
1:26.553,31159,(,0,0,1
1:26.606,31178,N,0,0,0
1:26.686,31207,),0,0,1
1:26.758,31233,(,0,0,2
1:26.806,31250,t,0,0,1
1:26.892,31281,),0,0,2
1:26.997,31319,(,0,0,0
1:27.031,31331,p,0,0,0
1:27.083,31350,),0,0,0
1:27.100,31356,(,0,0,1
1:27.167,31380,N,0,0,0
1:27.250,31410,),0,0,1
1:27.325,31437,(,0,0,2
1:27.367,31452,t,0,0,1
1:27.464,31487,),0,0,2
1:27.564,31523,(,0,0,0
1:27.606,31538,p,0,0,0
1:27.647,31553,),0,0,0
1:27.686,31567,(,0,0,1
1:27.728,31582,N,0,0,0
1:27.808,31611,),0,0,1
1:27.906,31646,(,0,0,2
1:27.933,31656,t,0,0,4
1:28.003,31681,t,0,0,4
1:28.019,31687,),0,0,2
1:28.092,31713,(,0,0,0
1:28.156,31736,p,0,0,0
1:28.211,31756,),0,0,0
1:28.219,31759,(,0,0,1
1:28.286,31783,N,0,0,0
1:28.361,31810,),0,0,1
1:28.400,31824,t,0,0,3
1:28.483,31854,),0,0,2
1:28.589,31892,(,0,0,1
1:28.678,31924,N,0,0,0
1:28.761,31954,),0,0,1
1:28.806,31970,(,0,0,2
1:28.886,31999,t,0,0,0
1:28.997,32039,),0,0,2
1:29.217,32118,(,0,0,0
1:29.275,32139,p,0,0,0
1:29.322,32156,),0,0,0
1:29.358,32169,(,0,0,1
1:29.403,32185,N,0,0,0
1:29.436,32197,),0,0,1
1:29.533,32232,(,0,0,2
1:29.619,32263,t,0,0,1
1:29.697,32291,),0,0,2
1:29.783,32322,(,0,0,0
1:29.833,32340,p,0,0,0
1:29.892,32361,),0,0,0
1:29.906,32366,(,0,0,1
1:29.967,32388,N,0,0,0
1:30.003,32401,),0,0,1
1:30.103,32437,(,0,0,2
1:30.167,32460,t,0,0,4
1:30.256,32492,t,0,0,4
1:30.283,32502,),0,0,2
1:30.339,32522,(,0,0,0
1:30.386,32539,p,0,0,0
1:30.439,32558,),0,0,0
1:30.458,32565,(,0,0,1
1:30.522,32588,N,0,0,0
1:30.556,32600,),0,0,1
1:30.675,32643,(,0,0,2
1:30.731,32663,t,0,0,1
1:30.811,32692,),0,0,2
1:30.903,32725,(,0,0,0
1:30.956,32744,p,0,0,0
1:31.011,32764,),0,0,0
1:31.022,32768,(,0,0,1
1:31.083,32790,N,0,0,0
1:31.114,32801,),0,0,1
1:31.219,32839,(,0,0,2
1:31.281,32861,t,0,0,1
1:31.364,32891,),0,0,2
1:31.456,32924,(,0,0,0
1:31.511,32944,p,0,0,0
1:31.564,32963,),0,0,0
1:31.592,32973,(,0,0,1
1:31.642,32991,N,0,0,0
1:31.675,33003,),0,0,1
1:31.750,33030,t,0,0,3
1:31.836,33061,),0,0,2
1:31.947,33101,(,0,0,1
1:32.042,33135,N,0,0,0
1:32.125,33165,),0,0,1
1:32.144,33172,(,0,0,2
1:32.242,33207,t,0,0,0
1:32.350,33246,),0,0,2
1:32.564,33323,(,0,0,0
1:32.614,33341,p,0,0,0
1:32.667,33360,),0,0,0
1:32.697,33371,(,0,0,1
1:32.742,33387,N,0,0,0
1:32.775,33399,),0,0,1
1:32.892,33441,(,0,0,2
1:32.961,33466,t,0,0,1
1:33.053,33499,),0,0,2
1:33.128,33526,(,0,0,0
1:33.183,33546,p,0,0,0
1:33.236,33565,),0,0,0
1:33.272,33578,(,0,0,1
1:33.319,33595,N,0,0,0
1:33.353,33607,),0,0,1
1:33.483,33654,(,0,0,2
1:33.525,33669,t,0,0,1
1:33.608,33699,),0,0,2
1:33.694,33730,(,0,0,0
1:33.750,33750,p,0,0,0
1:33.797,33767,),0,0,0
1:33.831,33779,(,0,0,1
1:33.878,33796,N,0,0,0
1:33.911,33808,),0,0,1
1:34.022,33848,(,0,0,2
1:34.086,33871,t,0,0,1
1:34.175,33903,),0,0,2
1:34.203,33913,(,0,0,1
1:34.311,33952,N,0,0,0
1:34.394,33982,),0,0,1
1:34.419,33991,(,0,0,2
1:34.506,34022,t,0,0,0
1:34.614,34061,),0,0,2
1:34.800,34128,(,0,0,0
1:34.847,34145,p,0,0,0
1:34.903,34165,),0,0,0
1:34.933,34176,(,0,0,1
1:34.983,34194,N,0,0,0
1:35.019,34207,),0,0,1
1:35.122,34244,(,0,0,2
1:35.194,34270,t,0,0,1
1:35.275,34299,),0,0,2
1:35.356,34328,(,0,0,0
1:35.406,34346,p,0,0,0
1:35.458,34365,),0,0,0
1:35.489,34376,(,0,0,1
1:35.536,34393,N,0,0,0
1:35.569,34405,),0,0,1
1:35.681,34445,(,0,0,2
1:35.739,34466,t,0,0,4
1:35.836,34501,t,0,0,4
1:35.869,34513,),0,0,2
1:35.925,34533,(,0,0,0
1:35.969,34549,p,0,0,0
1:36.025,34569,),0,0,0
1:36.042,34575,(,0,0,1
1:36.103,34597,N,0,0,0
1:36.139,34610,),0,0,1
1:36.250,34650,(,0,0,2
1:36.308,34671,t,0,0,1
1:36.386,34699,),0,0,2
1:36.478,34732,(,0,0,0
1:36.531,34751,p,0,0,0
1:36.586,34771,),0,0,0
1:36.606,34778,(,0,0,1
1:36.667,34800,N,0,0,0
1:36.703,34813,),0,0,1
1:36.797,34847,(,0,0,2
1:36.869,34873,t,0,0,1
1:36.950,34902,),0,0,2
1:37.039,34934,(,0,0,0
1:37.097,34955,p,0,0,0
1:37.150,34974,),0,0,0
1:37.178,34984,(,0,0,1
1:37.228,35002,N,0,0,0
1:37.264,35015,),0,0,1
1:37.369,35053,(,0,0,2
1:37.436,35077,t,0,0,1
1:37.522,35108,),0,0,2
1:37.572,35126,(,0,0,1
1:37.669,35161,N,0,0,0
1:37.758,35193,),0,0,1
1:37.781,35201,(,0,0,2
1:37.867,35232,t,0,0,0
1:37.981,35273,),0,0,2
1:38.161,35338,(,0,0,0
1:38.214,35357,p,0,0,0
1:38.269,35377,),0,0,0
1:38.303,35389,(,0,0,1
1:38.350,35406,N,0,0,0
1:38.386,35419,),0,0,1
1:38.486,35455,(,0,0,2
1:38.567,35484,t,0,0,1
1:38.650,35514,),0,0,2
1:38.725,35541,(,0,0,0
1:38.775,35559,p,0,0,0
1:38.825,35577,),0,0,0
1:38.853,35587,(,0,0,1
1:38.900,35604,N,0,0,0
1:38.936,35617,),0,0,1
1:39.033,35652,(,0,0,2
1:39.103,35677,t,0,0,1
1:39.178,35704,),0,0,2
1:39.272,35738,(,0,0,0
1:39.322,35756,p,0,0,0
1:39.378,35776,),0,0,0
1:39.403,35785,(,0,0,1
1:39.456,35804,N,0,0,0
1:39.492,35817,),0,0,1
1:39.594,35854,(,0,0,2
1:39.661,35878,t,0,0,1
1:39.744,35908,),0,0,2
1:39.839,35942,(,0,0,0
1:39.886,35959,p,0,0,0
1:39.939,35978,),0,0,0
1:39.972,35990,(,0,0,1
1:40.022,36008,N,0,0,0
1:40.058,36021,),0,0,1
1:40.169,36061,(,0,0,2
1:40.233,36084,t,0,0,1
1:40.317,36114,),0,0,2
1:40.408,36147,(,0,0,0
1:40.456,36164,p,0,0,0
1:40.506,36182,),0,0,0
1:40.517,36186,(,0,0,1
1:40.583,36210,N,0,0,0
1:40.619,36223,),0,0,1
1:40.697,36251,(,0,0,2
1:40.789,36284,t,0,0,1
1:40.861,36310,),0,0,2
1:40.967,36348,(,0,0,0
1:41.011,36364,p,0,0,0
1:41.061,36382,),0,0,0
1:41.081,36389,(,0,0,1
1:41.142,36411,N,0,0,0
1:41.172,36422,),0,0,1
1:41.286,36463,(,0,0,2
1:41.342,36483,t,0,0,1
1:41.417,36510,),0,0,2
1:41.500,36540,(,0,0,0
1:41.556,36560,p,0,0,0
1:41.603,36577,),0,0,0
1:41.636,36589,(,0,0,1
1:41.678,36604,N,0,0,0
1:41.711,36616,),0,0,1
1:41.819,36655,(,0,0,0
1:41.883,36678,p,0,0,0
1:41.950,36702,),0,0,0
1:42.003,36721,(,0,0,1
1:42.094,36754,N,0,0,0
1:42.181,36785,),0,0,1
1:42.200,36792,(,0,0,2
1:42.292,36825,t,0,0,0
1:42.400,36864,),0,0,2
1:42.600,36936,(,0,0,0
1:42.656,36956,p,0,0,0
1:42.706,36974,),0,0,0
1:42.742,36987,(,0,0,1
1:42.786,37003,N,0,0,0
1:42.822,37016,),0,0,1
1:42.919,37051,(,0,0,2
1:42.994,37078,t,0,0,1
1:43.081,37109,),0,0,2
1:43.161,37138,(,0,0,0
1:43.203,37153,p,0,0,0
1:43.253,37171,),0,0,0
1:43.272,37178,(,0,0,1
1:43.339,37202,N,0,0,0
1:43.375,37215,),0,0,1
1:43.464,37247,(,0,0,2
1:43.542,37275,t,0,0,1
1:43.619,37303,),0,0,2
1:43.714,37337,(,0,0,0
1:43.761,37354,p,0,0,0
1:43.811,37372,),0,0,0
1:43.842,37383,(,0,0,1
1:43.892,37401,N,0,0,0
1:43.928,37414,),0,0,1
1:44.022,37448,(,0,0,2
1:44.100,37476,t,0,0,1
1:44.181,37505,),0,0,2
1:44.275,37539,(,0,0,0
1:44.325,37557,p,0,0,0
1:44.378,37576,),0,0,0
1:44.408,37587,(,0,0,1
1:44.458,37605,N,0,0,0
1:44.494,37618,),0,0,1
1:44.586,37651,(,0,0,2
1:44.656,37676,t,0,0,1
1:44.731,37703,),0,0,2
1:44.814,37733,(,0,0,0
1:44.861,37750,p,0,0,0
1:44.914,37769,),0,0,0
1:44.944,37780,(,0,0,1
1:44.997,37799,N,0,0,0
1:45.033,37812,),0,0,1
1:45.133,37848,(,0,0,2
1:45.203,37873,t,0,0,1
1:45.289,37904,),0,0,2
1:45.375,37935,(,0,0,0
1:45.422,37952,p,0,0,0
1:45.472,37970,),0,0,0
1:45.503,37981,(,0,0,1
1:45.550,37998,N,0,0,0
1:45.583,38010,),0,0,1
1:45.683,38046,(,0,0,2
1:45.747,38069,t,0,0,1
1:45.828,38098,),0,0,2
1:45.914,38129,(,0,0,0
1:45.964,38147,p,0,0,0
1:46.017,38166,),0,0,0
1:46.042,38175,(,0,0,1
1:46.097,38195,N,0,0,0
1:46.133,38208,),0,0,1
1:46.231,38243,(,0,0,2
1:46.300,38268,t,0,0,1
1:46.381,38297,),0,0,2
1:46.469,38329,(,0,0,0
1:46.519,38347,p,0,0,0
1:46.575,38367,),0,0,0
1:46.608,38379,(,0,0,1
1:46.658,38397,N,0,0,0
1:46.694,38410,),0,0,1
1:46.792,38445,(,0,0,2
1:46.869,38473,t,0,0,1
1:46.953,38503,),0,0,2
1:47.044,38536,(,0,0,0
1:47.092,38553,p,0,0,0
1:47.144,38572,),0,0,0
1:47.172,38582,(,0,0,1
1:47.222,38600,N,0,0,0
1:47.258,38613,),0,0,1
1:47.358,38649,(,0,0,2
1:47.425,38673,t,0,0,1
1:47.503,38701,),0,0,2
1:47.597,38735,(,0,0,0
1:47.644,38752,p,0,0,0
1:47.700,38772,),0,0,0
1:47.736,38785,(,0,0,1
1:47.786,38803,N,0,0,0
1:47.822,38816,),0,0,1
1:47.925,38853,(,0,0,2
1:47.992,38877,t,0,0,1
1:48.075,38907,),0,0,2
1:48.161,38938,(,0,0,0
1:48.208,38955,p,0,0,0
1:48.258,38973,),0,0,0
1:48.275,38979,(,0,0,1
1:48.342,39003,N,0,0,0
1:48.378,39016,),0,0,1
1:48.472,39050,(,0,0,2
1:48.539,39074,t,0,0,1
1:48.617,39102,),0,0,2
1:48.717,39138,(,0,0,0
1:48.761,39154,p,0,0,0
1:48.814,39173,),0,0,0
1:48.839,39182,(,0,0,1
1:48.897,39203,N,0,0,0
1:48.933,39216,),0,0,1
1:49.025,39249,(,0,0,2
1:49.094,39274,t,0,0,1
1:49.172,39302,),0,0,2
1:49.272,39338,(,0,0,0
1:49.319,39355,p,0,0,0
1:49.375,39375,),0,0,0
1:49.408,39387,(,0,0,1
1:49.458,39405,N,0,0,0
1:49.497,39419,),0,0,1
1:49.592,39453,(,0,0,2
1:49.658,39477,t,0,0,1
1:49.739,39506,),0,0,2
1:49.828,39538,(,0,0,0
1:49.872,39554,p,0,0,0
1:49.928,39574,),0,0,0
1:49.964,39587,(,0,0,1
1:50.008,39603,N,0,0,0
1:50.044,39616,),0,0,1
1:50.147,39653,(,0,0,2
1:50.211,39676,t,0,0,1
1:50.294,39706,),0,0,2
1:50.397,39743,(,0,0,0
1:50.442,39759,p,0,0,0
1:50.497,39779,),0,0,0
1:50.514,39785,(,0,0,1
1:50.578,39808,N,0,0,0
1:50.614,39821,),0,0,1
1:50.717,39858,(,0,0,2
1:50.781,39881,t,0,0,1
1:50.861,39910,),0,0,2
1:50.936,39937,(,0,0,1
1:51.031,39971,N,0,0,0
1:51.119,40003,),0,0,1
1:51.156,40016,(,0,0,2
1:51.231,40043,t,0,0,0
1:51.347,40085,),0,0,2
1:51.525,40149,(,0,0,0
1:51.572,40166,p,0,0,0
1:51.625,40185,),0,0,0
1:51.656,40196,(,0,0,1
1:51.703,40213,N,0,0,0
1:51.742,40227,),0,0,1
1:51.839,40262,(,0,0,2
1:51.917,40290,t,0,0,1
1:52.003,40321,),0,0,2
1:52.100,40356,(,0,0,0
1:52.144,40372,p,0,0,0
1:52.194,40390,),0,0,0
1:52.231,40403,(,0,0,1
1:52.275,40419,N,0,0,0
1:52.308,40431,),0,0,1
1:52.408,40467,(,0,0,2
1:52.472,40490,t,0,0,1
1:52.547,40517,),0,0,2
1:52.650,40554,(,0,0,0
1:52.694,40570,p,0,0,0
1:52.747,40589,),0,0,0
1:52.781,40601,(,0,0,1
1:52.831,40619,N,0,0,0
1:52.869,40633,),0,0,1
1:52.969,40669,(,0,0,2
1:53.039,40694,t,0,0,1
1:53.119,40723,),0,0,2
1:53.222,40760,(,0,0,0
1:53.272,40778,p,0,0,0
1:53.325,40797,),0,0,0
1:53.344,40804,(,0,0,1
1:53.411,40828,N,0,0,0
1:53.447,40841,),0,0,1
1:53.542,40875,(,0,0,2
1:53.614,40901,t,0,0,1
1:53.697,40931,),0,0,2
1:53.808,40971,(,0,0,0
1:53.853,40987,p,0,0,0
1:53.906,41006,),0,0,0
1:53.942,41019,(,0,0,1
1:53.989,41036,N,0,0,0
1:54.025,41049,),0,0,1
1:54.114,41081,(,0,0,2
1:54.183,41106,t,0,0,1
1:54.258,41133,),0,0,2
1:54.367,41172,(,0,0,0
1:54.414,41189,p,0,0,0
1:54.467,41208,),0,0,0
1:54.506,41222,(,0,0,1
1:54.553,41239,N,0,0,0
1:54.589,41252,),0,0,1
1:54.689,41288,(,0,0,2
1:54.756,41312,t,0,0,1
1:54.833,41340,),0,0,2
1:54.942,41379,(,0,0,0
1:54.989,41396,p,0,0,0
1:55.039,41414,),0,0,0
1:55.072,41426,(,0,0,1
1:55.119,41443,N,0,0,0
1:55.153,41455,),0,0,1
1:55.250,41490,(,0,0,2
1:55.314,41513,t,0,0,1
1:55.392,41541,),0,0,2
1:55.453,41563,(,0,0,0
1:55.456,41564,p,0,0,0
1:55.542,41595,),0,0,0
1:55.586,41611,(,0,0,1
1:55.678,41644,N,0,0,0
1:55.714,41657,),0,0,1
1:55.825,41697,(,0,0,2
1:55.892,41721,t,0,0,0
1:55.958,41745,),0,0,2
1:56.075,41787,(,0,0,0
1:56.122,41804,p,0,0,0
1:56.175,41823,),0,0,0
1:56.211,41836,(,0,0,1
1:56.264,41855,N,0,0,0
1:56.300,41868,),0,0,1
1:56.397,41903,(,0,0,2
1:56.467,41928,t,0,0,1
1:56.542,41955,),0,0,2
1:56.644,41992,(,0,0,0
1:56.689,42008,p,0,0,0
1:56.739,42026,),0,0,0
1:56.775,42039,(,0,0,1
1:56.822,42056,N,0,0,0
1:56.858,42069,),0,0,1
1:56.958,42105,(,0,0,2
1:57.031,42131,t,0,0,1
1:57.111,42160,),0,0,2
1:57.228,42202,(,0,0,0
1:57.275,42219,p,0,0,0
1:57.328,42238,),0,0,0
1:57.364,42251,(,0,0,1
1:57.411,42268,N,0,0,0
1:57.447,42281,),0,0,1
1:57.547,42317,(,0,0,2
1:57.617,42342,t,0,0,1
1:57.694,42370,),0,0,2
1:57.811,42412,(,0,0,0
1:57.861,42430,p,0,0,0
1:57.911,42448,),0,0,0
1:57.944,42460,(,0,0,1
1:58.000,42480,N,0,0,0
1:58.036,42493,),0,0,1
1:58.092,42513,t,0,0,3
1:58.200,42552,),0,0,2
1:58.267,42576,(,0,0,1
1:58.386,42619,N,0,0,0
1:58.469,42649,),0,0,1
1:58.506,42662,(,0,0,2
1:58.592,42693,t,0,0,0
1:58.692,42729,),0,0,2
1:58.972,42830,(,0,0,0
1:59.019,42847,p,0,0,0
1:59.072,42866,),0,0,0
1:59.100,42876,(,0,0,1
1:59.144,42892,N,0,0,0
1:59.178,42904,),0,0,1
1:59.292,42945,(,0,0,2
1:59.361,42970,t,0,0,1
1:59.444,43000,),0,0,2
1:59.533,43032,(,0,0,1
1:59.650,43074,N,0,0,0
1:59.731,43103,),0,0,1
1:59.844,43144,(,0,0,2
1:59.914,43169,t,0,0,0
1:59.967,43188,),0,0,2
2:00.119,43243,(,0,0,0
2:00.175,43263,p,0,0,0
2:00.228,43282,),0,0,0
2:00.269,43297,(,0,0,1
2:00.319,43315,N,0,0,0
2:00.356,43328,),0,0,1
2:00.464,43367,(,0,0,2
2:00.533,43392,t,0,0,1
2:00.622,43424,),0,0,2
2:00.714,43457,(,0,0,0
2:00.767,43476,p,0,0,0
2:00.817,43494,),0,0,0
2:00.853,43507,(,0,0,1
2:00.903,43525,N,0,0,0
2:00.939,43538,),0,0,1
2:01.008,43563,t,0,0,3
2:01.097,43595,),0,0,2
2:01.208,43635,(,0,0,1
2:01.306,43670,N,0,0,0
2:01.389,43700,),0,0,1
2:01.408,43707,(,0,0,2
2:01.503,43741,t,0,0,0
2:01.617,43782,),0,0,2
2:01.856,43868,(,0,0,0
2:01.903,43885,p,0,0,0
2:01.956,43904,),0,0,0
2:01.981,43913,(,0,0,1
2:02.031,43931,N,0,0,0
2:02.064,43943,),0,0,1
2:02.167,43980,(,0,0,2
2:02.247,44009,t,0,0,1
2:02.336,44041,),0,0,2
2:02.411,44068,(,0,0,1
2:02.567,44124,N,0,0,0
2:02.608,44139,),0,0,1
2:02.717,44178,(,0,0,2
2:02.786,44203,t,0,0,0
2:02.850,44226,),0,0,2
2:03.006,44282,(,0,0,0
2:03.058,44301,p,0,0,0
2:03.111,44320,),0,0,0
2:03.144,44332,(,0,0,1
2:03.194,44350,N,0,0,0
2:03.228,44362,),0,0,1
2:03.331,44399,(,0,0,2
2:03.400,44424,t,0,0,1
2:03.478,44452,),0,0,2
2:03.581,44489,(,0,0,0
2:03.628,44506,p,0,0,0
2:03.681,44525,),0,0,0
2:03.717,44538,(,0,0,1
2:03.769,44557,N,0,0,0
2:03.803,44569,),0,0,1
2:03.875,44595,t,0,0,3
2:03.969,44629,),0,0,2
2:04.078,44668,(,0,0,1
2:04.178,44704,N,0,0,0
2:04.264,44735,),0,0,1
2:04.292,44745,(,0,0,2
2:04.383,44778,t,0,0,0
2:04.494,44818,),0,0,2
2:04.767,44916,(,0,0,0
2:04.811,44932,p,0,0,0
2:04.867,44952,),0,0,0
2:04.900,44964,(,0,0,1
2:04.947,44981,N,0,0,0
2:04.981,44993,),0,0,1
2:05.042,45015,t,0,0,3
2:05.150,45054,),0,0,2
2:05.239,45086,(,0,0,1
2:05.342,45123,N,0,0,0
2:05.419,45151,),0,0,1
2:05.450,45162,(,0,0,2
2:05.544,45196,t,0,0,0
2:05.656,45236,),0,0,2
2:05.908,45327,(,0,0,0
2:05.961,45346,p,0,0,0
2:06.008,45363,),0,0,0
2:06.039,45374,(,0,0,1
2:06.086,45391,N,0,0,0
2:06.117,45402,),0,0,1
2:06.167,45420,t,0,0,3
2:06.294,45466,),0,0,2
2:06.308,45471,(,0,0,1
2:06.481,45533,N,0,0,0
2:06.556,45560,),0,0,1
2:06.600,45576,(,0,0,2
2:06.689,45608,t,0,0,0
2:06.803,45649,),0,0,2
2:07.094,45754,(,0,0,0
2:07.142,45771,p,0,0,0
2:07.192,45789,),0,0,0
2:07.236,45805,(,0,0,1
2:07.283,45822,N,0,0,0
2:07.314,45833,),0,0,1
2:07.428,45874,(,0,0,2
2:07.506,45902,t,0,0,1
2:07.597,45935,),0,0,2
2:07.650,45954,(,0,0,1
2:07.742,45987,N,0,0,0
2:07.817,46014,),0,0,1
2:07.933,46056,(,0,0,2
2:07.997,46079,t,0,0,0
2:08.069,46105,),0,0,2
2:08.272,46178,(,0,0,0
2:08.325,46197,p,0,0,0
2:08.375,46215,),0,0,0
2:08.414,46229,(,0,0,1
2:08.458,46245,N,0,0,0
2:08.492,46257,),0,0,1
2:08.581,46289,(,0,0,2
2:08.656,46316,t,0,0,1
2:08.736,46345,),0,0,2
2:08.839,46382,(,0,0,0
2:08.892,46401,p,0,0,0
2:08.944,46420,),0,0,0
2:08.981,46433,(,0,0,1
2:09.028,46450,N,0,0,0
2:09.064,46463,),0,0,1
2:09.114,46481,t,0,0,3
2:09.222,46520,),0,0,2
2:09.339,46562,(,0,0,1
2:09.425,46593,N,0,0,0
2:09.514,46625,),0,0,1
2:09.539,46634,(,0,0,2
2:09.633,46668,t,0,0,0
2:09.744,46708,),0,0,2
2:09.994,46798,(,0,0,0
2:10.036,46813,p,0,0,0
2:10.081,46829,),0,0,0
2:10.122,46844,(,0,0,1
2:10.158,46857,N,0,0,0
2:10.222,46880,),0,0,1
2:10.322,46916,(,0,0,0
2:10.372,46934,p,0,0,0
2:10.492,46977,),0,0,0
2:10.525,46989,(,0,0,1
2:10.586,47011,N,0,0,0
2:10.622,47024,),0,0,1
2:10.683,47046,(,0,0,2
2:10.786,47083,t,0,0,1
2:10.867,47112,),0,0,2
2:11.078,47188,(,0,0,0
2:11.139,47210,p,0,0,0
2:11.192,47229,),0,0,0
2:11.231,47243,(,0,0,1
2:11.278,47260,N,0,0,0
2:11.319,47275,),0,0,1
2:11.419,47311,(,0,0,2
2:11.500,47340,t,0,0,1
2:11.589,47372,),0,0,2
2:11.700,47412,(,0,0,0
2:11.744,47428,p,0,0,0
2:11.794,47446,),0,0,0
2:11.814,47453,(,0,0,1
2:11.878,47476,N,0,0,0
2:11.914,47489,),0,0,1
2:11.964,47507,t,0,0,3
2:12.086,47551,),0,0,2
2:12.203,47593,(,0,0,1
2:12.300,47628,N,0,0,0
2:12.389,47660,),0,0,1
2:12.433,47676,(,0,0,2
2:12.508,47703,t,0,0,0
2:12.608,47739,),0,0,2
2:12.842,47823,(,0,0,0
2:12.900,47844,p,0,0,0
2:12.947,47861,),0,0,0
2:12.981,47873,(,0,0,1
2:13.031,47891,N,0,0,0
2:13.069,47905,),0,0,1
2:13.164,47939,(,0,0,2
2:13.250,47970,t,0,0,1
2:13.336,48001,),0,0,2
2:13.450,48042,(,0,0,1
2:13.592,48093,N,0,0,0
2:13.636,48109,),0,0,1
2:13.750,48150,(,0,0,2
2:13.819,48175,t,0,0,0
2:13.886,48199,),0,0,2
2:14.011,48244,(,0,0,0
2:14.061,48262,p,0,0,0
2:14.117,48282,),0,0,0
2:14.150,48294,(,0,0,1
2:14.200,48312,N,0,0,0
2:14.239,48326,),0,0,1
2:14.300,48348,t,0,0,3
2:14.406,48386,),0,0,2
2:14.514,48425,(,0,0,1
2:14.622,48464,N,0,0,0
2:14.703,48493,),0,0,1
2:14.736,48505,(,0,0,2
2:14.825,48537,t,0,0,0
2:14.936,48577,),0,0,2
2:15.158,48657,(,0,0,0
2:15.211,48676,p,0,0,0
2:15.264,48695,),0,0,0
2:15.300,48708,(,0,0,1
2:15.344,48724,N,0,0,0
2:15.381,48737,),0,0,1
2:15.444,48760,t,0,0,3
2:15.542,48795,),0,0,2
2:15.675,48843,(,0,0,1
2:15.775,48879,N,0,0,0
2:15.853,48907,),0,0,1
2:15.897,48923,(,0,0,2
2:15.975,48951,t,0,0,0
2:16.086,48991,),0,0,2
2:16.303,49069,(,0,0,0
2:16.350,49086,p,0,0,0
2:16.403,49105,),0,0,0
2:16.439,49118,(,0,0,1
2:16.486,49135,N,0,0,0
2:16.522,49148,),0,0,1
2:16.625,49185,(,0,0,2
2:16.708,49215,t,0,0,1
2:16.789,49244,),0,0,2
2:16.883,49278,(,0,0,0
2:16.931,49295,p,0,0,0
2:16.983,49314,),0,0,0
2:17.014,49325,(,0,0,1
2:17.064,49343,N,0,0,0
2:17.097,49355,),0,0,1
2:17.203,49393,(,0,0,2
2:17.267,49416,t,0,0,1
2:17.350,49446,),0,0,2
2:17.469,49489,(,0,0,0
2:17.514,49505,p,0,0,0
2:17.564,49523,),0,0,0
2:17.583,49530,(,0,0,1
2:17.653,49555,N,0,0,0
2:17.686,49567,),0,0,1
2:17.786,49603,(,0,0,2
2:17.847,49625,t,0,0,1
2:17.928,49654,),0,0,2
2:18.006,49682,(,0,0,1
2:18.097,49715,N,0,0,0
2:18.172,49742,),0,0,1
2:18.286,49783,(,0,0,2
2:18.361,49810,t,0,0,0
2:18.414,49829,),0,0,2
2:18.622,49904,(,0,0,0
2:18.667,49920,p,0,0,0
2:18.717,49938,),0,0,0
2:18.750,49950,(,0,0,1
2:18.803,49969,N,0,0,0
2:18.839,49982,),0,0,1
2:18.942,50019,(,0,0,2
2:19.014,50045,t,0,0,1
2:19.097,50075,),0,0,2
2:19.208,50115,(,0,0,0
2:19.253,50131,p,0,0,0
2:19.306,50150,),0,0,0
2:19.342,50163,(,0,0,1
2:19.386,50179,N,0,0,0
2:19.419,50191,),0,0,1
2:19.481,50213,t,0,0,3
2:19.575,50247,),0,0,2
2:19.675,50283,(,0,0,1
2:19.772,50318,N,0,0,0
2:19.847,50345,),0,0,1
2:19.869,50353,(,0,0,2
2:19.969,50389,t,0,0,0
2:20.078,50428,),0,0,2
2:20.347,50525,(,0,0,0
2:20.397,50543,p,0,0,0
2:20.450,50562,),0,0,0
2:20.481,50573,(,0,0,1
2:20.531,50591,N,0,0,0
2:20.567,50604,),0,0,1
2:20.644,50632,t,0,0,3
2:20.747,50669,),0,0,2
2:20.758,50673,(,0,0,1
2:20.942,50739,N,0,0,0
2:21.019,50767,),0,0,1
2:21.056,50780,(,0,0,2
2:21.153,50815,t,0,0,0
2:21.261,50854,),0,0,2
2:21.531,50951,(,0,0,0
2:21.578,50968,p,0,0,0
2:21.633,50988,),0,0,0
2:21.650,50994,(,0,0,1
2:21.717,51018,N,0,0,0
2:21.756,51032,),0,0,1
2:21.869,51073,(,0,0,0
2:21.933,51096,p,0,0,0
2:22.011,51124,),0,0,0
2:22.047,51137,(,0,0,1
2:22.144,51172,N,0,0,0
2:22.219,51199,),0,0,1
2:22.239,51206,(,0,0,2
2:22.339,51242,t,0,0,0
2:22.447,51281,),0,0,2
2:22.697,51371,(,0,0,0
2:22.744,51388,p,0,0,0
2:22.797,51407,),0,0,0
2:22.814,51413,(,0,0,1
2:22.878,51436,N,0,0,0
2:22.914,51449,),0,0,1
2:23.011,51484,(,0,0,2
2:23.092,51513,t,0,0,1
2:23.178,51544,),0,0,2
2:23.242,51567,(,0,0,1
2:23.333,51600,N,0,0,0
2:23.408,51627,),0,0,1
2:23.519,51667,(,0,0,2
2:23.589,51692,t,0,0,0
2:23.650,51714,),0,0,2
2:23.869,51793,(,0,0,0
2:23.914,51809,p,0,0,0
2:23.967,51828,),0,0,0
2:23.989,51836,(,0,0,1
2:24.053,51859,N,0,0,0
2:24.089,51872,),0,0,1
2:24.200,51912,(,0,0,2
2:24.278,51940,t,0,0,1
2:24.364,51971,),0,0,2
2:24.475,52011,(,0,0,0
2:24.522,52028,p,0,0,0
2:24.572,52046,),0,0,0
2:24.611,52060,(,0,0,1
2:24.658,52077,N,0,0,0
2:24.692,52089,),0,0,1
2:24.756,52112,t,0,0,3
2:24.858,52149,),0,0,2
2:24.978,52192,(,0,0,1
2:25.075,52227,N,0,0,0
2:25.164,52259,),0,0,1
2:25.183,52266,(,0,0,2
2:25.281,52301,t,0,0,0
2:25.389,52340,),0,0,2
2:25.642,52431,(,0,0,0
2:25.689,52448,p,0,0,0
2:25.744,52468,),0,0,0
2:25.778,52480,(,0,0,1
2:25.825,52497,N,0,0,0
2:25.861,52510,),0,0,1
2:25.944,52540,t,0,0,3
2:26.039,52574,),0,0,2
2:26.139,52610,(,0,0,1
2:26.231,52643,N,0,0,0
2:26.306,52670,),0,0,1
2:26.342,52683,(,0,0,2
2:26.439,52718,t,0,0,0
2:26.544,52756,),0,0,2
2:26.811,52852,(,0,0,0
2:26.858,52869,p,0,0,0
2:26.914,52889,),0,0,0
2:26.947,52901,(,0,0,1
2:26.994,52918,N,0,0,0
2:27.033,52932,),0,0,1
2:27.094,52954,t,0,0,3
2:27.208,52995,),0,0,2
2:27.319,53035,(,0,0,1
2:27.419,53071,N,0,0,0
2:27.497,53099,),0,0,1
2:27.525,53109,(,0,0,2
2:27.628,53146,t,0,0,0
2:27.742,53187,),0,0,2
2:28.014,53285,(,0,0,0
2:28.058,53301,p,0,0,0
2:28.108,53319,),0,0,0
2:28.144,53332,(,0,0,1
2:28.189,53348,N,0,0,0
2:28.225,53361,),0,0,1
2:28.331,53399,(,0,0,2
2:28.411,53428,t,0,0,1
2:28.497,53459,),0,0,2
2:28.547,53477,(,0,0,1
2:28.647,53513,N,0,0,0
2:28.722,53540,),0,0,1
2:28.764,53555,(,0,0,2
2:28.803,53569,t,0,0,1
2:28.897,53603,),0,0,2
2:28.939,53618,(,0,0,1
2:29.028,53650,N,0,0,0
2:29.111,53680,),0,0,1
2:29.142,53691,(,0,0,2
2:29.219,53719,t,0,0,0
2:29.331,53759,),0,0,2
2:29.739,53906,(,0,0,0
2:29.783,53922,p,0,0,0
2:29.833,53940,),0,0,0
2:29.853,53947,(,0,0,1
2:29.908,53967,N,0,0,0
2:29.947,53981,),0,0,1
2:30.017,54006,t,0,0,3
2:30.125,54045,),0,0,2
2:30.142,54051,(,0,0,1
2:30.322,54116,N,0,0,0
2:30.392,54141,),0,0,1
2:30.400,54144,(,0,0,2
2:30.467,54168,t,0,0,4
2:30.572,54206,t,0,0,4
2:30.625,54225,),0,0,2
2:30.908,54327,(,0,0,0
2:30.956,54344,p,0,0,0
2:31.008,54363,),0,0,0
2:31.047,54377,(,0,0,1
2:31.094,54394,N,0,0,0
2:31.131,54407,),0,0,1
2:31.233,54444,(,0,0,2
2:31.308,54471,t,0,0,1
2:31.392,54501,),0,0,2
2:31.511,54544,(,0,0,0
2:31.556,54560,p,0,0,0
2:31.608,54579,),0,0,0
2:31.647,54593,(,0,0,1
2:31.694,54610,N,0,0,0
2:31.731,54623,),0,0,1
2:31.789,54644,t,0,0,3
2:31.897,54683,),0,0,2
2:32.008,54723,(,0,0,1
2:32.100,54756,N,0,0,0
2:32.178,54784,),0,0,1
2:32.200,54792,(,0,0,2
2:32.294,54826,t,0,0,0
2:32.406,54866,),0,0,2
2:32.678,54964,(,0,0,0
2:32.731,54983,p,0,0,0
2:32.783,55002,),0,0,0
2:32.817,55014,(,0,0,1
2:32.867,55032,N,0,0,0
2:32.903,55045,),0,0,1
2:32.958,55065,t,0,0,3
2:33.075,55107,),0,0,2
2:33.175,55143,(,0,0,1
2:33.272,55178,N,0,0,0
2:33.353,55207,),0,0,1
2:33.378,55216,(,0,0,2
2:33.481,55253,t,0,0,0
2:33.592,55293,),0,0,2
2:33.864,55391,(,0,0,0
2:33.908,55407,p,0,0,0
2:33.964,55427,),0,0,0
2:33.983,55434,(,0,0,1
2:34.050,55458,N,0,0,0
2:34.086,55471,),0,0,1
2:34.189,55508,(,0,0,2
2:34.269,55537,t,0,0,1
2:34.364,55571,),0,0,2
2:34.481,55613,(,0,0,0
2:34.525,55629,p,0,0,0
2:34.578,55648,),0,0,0
2:34.617,55662,(,0,0,1
2:34.664,55679,N,0,0,0
2:34.697,55691,),0,0,1
2:34.778,55720,t,0,0,3
2:34.858,55749,),0,0,2
2:34.956,55784,(,0,0,1
2:35.064,55823,N,0,0,0
2:35.147,55853,),0,0,1
2:35.169,55861,(,0,0,2
2:35.269,55897,t,0,0,0
2:35.378,55936,),0,0,2
2:35.653,56035,(,0,0,0
2:35.700,56052,p,0,0,0
2:35.747,56069,),0,0,0
2:35.781,56081,(,0,0,1
2:35.825,56097,N,0,0,0
2:35.861,56110,),0,0,1
2:35.922,56132,t,0,0,3
2:36.044,56176,),0,0,2
2:36.144,56212,(,0,0,1
2:36.247,56249,N,0,0,0
2:36.322,56276,),0,0,1
2:36.358,56289,(,0,0,2
2:36.453,56323,t,0,0,0
2:36.556,56360,),0,0,2
2:36.819,56455,(,0,0,0
2:36.872,56474,p,0,0,0
2:36.925,56493,),0,0,0
2:36.961,56506,(,0,0,1
2:37.011,56524,N,0,0,0
2:37.047,56537,),0,0,1
2:37.117,56562,t,0,0,3
2:37.219,56599,),0,0,2
2:37.303,56629,(,0,0,1
2:37.428,56674,N,0,0,0
2:37.483,56694,),0,0,1
2:37.539,56714,(,0,0,2
2:37.625,56745,t,0,0,0
2:37.719,56779,),0,0,2
2:37.939,56858,(,0,0,0
2:37.992,56877,p,0,0,0
2:38.044,56896,),0,0,0
2:38.078,56908,(,0,0,1
2:38.122,56924,N,0,0,0
2:38.158,56937,),0,0,1
2:38.264,56975,(,0,0,2
2:38.342,57003,t,0,0,1
2:38.428,57034,),0,0,2
2:38.544,57076,(,0,0,0
2:38.594,57094,p,0,0,0
2:38.647,57113,),0,0,0
2:38.683,57126,(,0,0,1
2:38.736,57145,N,0,0,0
2:38.775,57159,),0,0,1
2:38.867,57192,(,0,0,2
2:38.936,57217,t,0,0,1
2:39.031,57251,),0,0,2
2:39.056,57260,(,0,0,1
2:39.150,57294,N,0,0,0
2:39.236,57325,),0,0,1
2:39.272,57338,(,0,0,2
2:39.350,57366,t,0,0,0
2:39.461,57406,),0,0,2
2:39.711,57496,(,0,0,0
2:39.756,57512,p,0,0,0
2:39.808,57531,),0,0,0
2:39.825,57537,(,0,0,1
2:39.889,57560,N,0,0,0
2:39.928,57574,),0,0,1
2:40.031,57611,(,0,0,2
2:40.106,57638,t,0,0,1
2:40.189,57668,),0,0,2
2:40.283,57702,(,0,0,1
2:40.428,57754,N,0,0,0
2:40.469,57769,),0,0,1
2:40.572,57806,(,0,0,2
2:40.644,57832,t,0,0,0
2:40.714,57857,),0,0,2
2:40.886,57919,(,0,0,0
2:40.936,57937,p,0,0,0
2:40.992,57957,),0,0,0
2:41.028,57970,(,0,0,1
2:41.081,57989,N,0,0,0
2:41.119,58003,),0,0,1
2:41.231,58043,(,0,0,2
2:41.300,58068,t,0,0,1
2:41.386,58099,),0,0,2
2:41.506,58142,(,0,0,0
2:41.550,58158,p,0,0,0
2:41.600,58176,),0,0,0
2:41.636,58189,(,0,0,1
2:41.683,58206,N,0,0,0
2:41.719,58219,),0,0,1
2:41.775,58239,t,0,0,3
2:41.875,58275,),0,0,2
2:41.981,58313,(,0,0,1
2:42.072,58346,N,0,0,0
2:42.156,58376,),0,0,1
2:42.178,58384,(,0,0,2
2:42.272,58418,t,0,0,0
2:42.386,58459,),0,0,2
2:42.661,58558,(,0,0,0
2:42.706,58574,p,0,0,0
2:42.761,58594,),0,0,0
2:42.792,58605,(,0,0,1
2:42.842,58623,N,0,0,0
2:42.878,58636,),0,0,1
2:42.925,58653,t,0,0,3
2:43.058,58701,),0,0,2
2:43.075,58707,(,0,0,1
2:43.256,58772,N,0,0,0
2:43.328,58798,),0,0,1
2:43.367,58812,(,0,0,2
2:43.456,58844,t,0,0,0
2:43.558,58881,),0,0,2
2:43.850,58986,(,0,0,0
2:43.903,59005,p,0,0,0
2:43.956,59024,),0,0,0
2:43.989,59036,(,0,0,1
2:44.036,59053,N,0,0,0
2:44.072,59066,),0,0,1
2:44.122,59084,t,0,0,3
2:44.242,59127,),0,0,2
2:44.353,59167,(,0,0,1
2:44.453,59203,N,0,0,0
2:44.528,59230,),0,0,1
2:44.561,59242,(,0,0,2
2:44.664,59279,t,0,0,0
2:44.778,59320,),0,0,2
2:45.028,59410,(,0,0,0
2:45.081,59429,p,0,0,0
2:45.136,59449,),0,0,0
2:45.172,59462,(,0,0,1
2:45.222,59480,N,0,0,0
2:45.258,59493,),0,0,1
2:45.372,59534,(,0,0,2
2:45.450,59562,t,0,0,1
2:45.539,59594,),0,0,2
2:45.592,59613,(,0,0,1
2:45.728,59662,N,0,0,0
2:45.764,59675,),0,0,1
2:45.872,59714,(,0,0,2
2:45.939,59738,t,0,0,0
2:46.003,59761,),0,0,2
2:46.225,59841,(,0,0,0
2:46.272,59858,p,0,0,0
2:46.325,59877,),0,0,0
2:46.361,59890,(,0,0,1
2:46.411,59908,N,0,0,0
2:46.450,59922,),0,0,1
2:46.547,59957,(,0,0,2
2:46.625,59985,t,0,0,1
2:46.706,60014,),0,0,2
2:46.817,60054,(,0,0,0
2:46.864,60071,p,0,0,0
2:46.914,60089,),0,0,0
2:46.944,60100,(,0,0,1
2:46.994,60118,N,0,0,0
2:47.033,60132,),0,0,1
2:47.111,60160,t,0,0,3
2:47.192,60189,),0,0,2
2:47.311,60232,(,0,0,1
2:47.403,60265,N,0,0,0
2:47.489,60296,),0,0,1
2:47.514,60305,(,0,0,2
2:47.608,60339,t,0,0,0
2:47.728,60382,),0,0,2
2:48.011,60484,(,0,0,0
2:48.064,60503,p,0,0,0
2:48.117,60522,),0,0,0
2:48.153,60535,(,0,0,1
2:48.203,60553,N,0,0,0
2:48.247,60569,),0,0,1
2:48.342,60603,(,0,0,2
2:48.428,60634,t,0,0,1
2:48.514,60665,),0,0,2
2:48.561,60682,(,0,0,0
2:48.572,60686,p,0,0,0
2:48.658,60717,),0,0,0
2:48.692,60729,(,0,0,1
2:48.800,60768,N,0,0,0
2:48.844,60784,),0,0,1
2:48.969,60829,(,0,0,0
2:49.017,60846,p,0,0,0
2:49.047,60857,),0,0,0
2:49.058,60861,(,0,0,1
2:49.144,60892,N,0,0,0
2:49.228,60922,),0,0,1
2:49.261,60934,(,0,0,2
2:49.347,60965,t,0,0,0
2:49.453,61003,),0,0,2
2:49.789,61124,(,0,0,0
2:49.836,61141,p,0,0,0
2:49.889,61160,),0,0,0
2:49.919,61171,(,0,0,1
2:49.969,61189,N,0,0,0
2:50.008,61203,),0,0,1
2:50.100,61236,(,0,0,2
2:50.183,61266,t,0,0,1
2:50.278,61300,),0,0,2
2:50.375,61335,(,0,0,0
2:50.425,61353,p,0,0,0
2:50.475,61371,),0,0,0
2:50.492,61377,(,0,0,1
2:50.561,61402,N,0,0,0
2:50.597,61415,),0,0,1
2:50.694,61450,(,0,0,2
2:50.772,61478,t,0,0,1
2:50.853,61507,),0,0,2
2:50.950,61542,(,0,0,0
2:51.000,61560,p,0,0,0
2:51.053,61579,),0,0,0
2:51.086,61591,(,0,0,1
2:51.136,61609,N,0,0,0
2:51.172,61622,),0,0,1
2:51.233,61644,t,0,0,3
2:51.336,61681,),0,0,2
2:51.439,61718,(,0,0,1
2:51.542,61755,N,0,0,0
2:51.619,61783,),0,0,1
2:51.667,61800,(,0,0,2
2:51.742,61827,t,0,0,0
2:51.850,61866,),0,0,2
2:52.111,61960,(,0,0,0
2:52.161,61978,p,0,0,0
2:52.214,61997,),0,0,0
2:52.253,62011,(,0,0,1
2:52.300,62028,N,0,0,0
2:52.342,62043,),0,0,1
2:52.447,62081,(,0,0,2
2:52.522,62108,t,0,0,1
2:52.603,62137,),0,0,2
2:52.703,62173,(,0,0,0
2:52.747,62189,p,0,0,0
2:52.797,62207,),0,0,0
2:52.822,62216,(,0,0,1
2:52.878,62236,N,0,0,0
2:52.922,62252,),0,0,1
2:52.983,62274,t,0,0,3
2:53.078,62308,),0,0,2
2:53.194,62350,(,0,0,1
2:53.294,62386,N,0,0,0
2:53.378,62416,),0,0,1
2:53.400,62424,(,0,0,2
2:53.494,62458,t,0,0,0
2:53.603,62497,),0,0,2
2:53.842,62583,(,0,0,0
2:53.889,62600,p,0,0,0
2:53.939,62618,),0,0,0
2:53.975,62631,(,0,0,1
2:54.019,62647,N,0,0,0
2:54.053,62659,),0,0,1
2:54.161,62698,(,0,0,2
2:54.239,62726,t,0,0,1
2:54.328,62758,),0,0,2
2:54.436,62797,(,0,0,0
2:54.483,62814,p,0,0,0
2:54.536,62833,),0,0,0
2:54.556,62840,(,0,0,1
2:54.622,62864,N,0,0,0
2:54.658,62877,),0,0,1
2:54.747,62909,t,0,0,3
2:54.825,62937,),0,0,2
2:54.953,62983,(,0,0,1
2:55.056,63020,N,0,0,0
2:55.139,63050,),0,0,1
2:55.164,63059,(,0,0,2
2:55.256,63092,t,0,0,0
2:55.364,63131,),0,0,2
2:55.617,63222,(,0,0,0
2:55.664,63239,p,0,0,0
2:55.714,63257,),0,0,0
2:55.750,63270,(,0,0,1
2:55.797,63287,N,0,0,0
2:55.833,63300,),0,0,1
2:55.894,63322,t,0,0,3
2:56.017,63366,),0,0,2
2:56.028,63370,(,0,0,1
2:56.197,63431,N,0,0,0
2:56.269,63457,),0,0,1
2:56.306,63470,(,0,0,2
2:56.400,63504,t,0,0,0
2:56.503,63541,),0,0,2
2:56.764,63635,(,0,0,0
2:56.817,63654,p,0,0,0
2:56.864,63671,),0,0,0
2:56.892,63681,(,0,0,1
2:56.944,63700,N,0,0,0
2:56.981,63713,),0,0,1
2:57.089,63752,(,0,0,2
2:57.164,63779,t,0,0,1
2:57.253,63811,),0,0,2
2:57.353,63847,(,0,0,0
2:57.406,63866,p,0,0,0
2:57.458,63885,),0,0,0
2:57.492,63897,(,0,0,1
2:57.544,63916,N,0,0,0
2:57.581,63929,),0,0,1
2:57.675,63963,(,0,0,2
2:57.744,63988,t,0,0,1
2:57.822,64016,),0,0,2
2:57.928,64054,(,0,0,0
2:57.978,64072,p,0,0,0
2:58.031,64091,),0,0,0
2:58.058,64101,(,0,0,1
2:58.111,64120,N,0,0,0
2:58.147,64133,),0,0,1
2:58.258,64173,(,0,0,2
2:58.325,64197,t,0,0,1
2:58.408,64227,),0,0,2
2:58.517,64266,(,0,0,0
2:58.564,64283,p,0,0,0
2:58.611,64300,),0,0,0
2:58.653,64315,(,0,0,1
2:58.697,64331,N,0,0,0
2:58.792,64365,),0,0,1
2:58.831,64379,(,0,0,2
2:58.903,64405,t,0,0,1
2:58.983,64434,),0,0,2
2:59.103,64477,(,0,0,0
2:59.156,64496,p,0,0,0
2:59.206,64514,),0,0,0
2:59.247,64529,(,0,0,1
2:59.292,64545,N,0,0,0
2:59.325,64557,),0,0,1
2:59.425,64593,(,0,0,2
2:59.494,64618,t,0,0,1
2:59.575,64647,),0,0,2
2:59.678,64684,(,0,0,0
2:59.728,64702,p,0,0,0
2:59.781,64721,),0,0,0
2:59.817,64734,(,0,0,1
2:59.867,64752,N,0,0,0
2:59.906,64766,),0,0,1
2:59.961,64786,t,0,0,3
3:00.072,64826,),0,0,2
3:00.161,64858,(,0,0,1
3:00.272,64898,N,0,0,0
3:00.347,64925,),0,0,1
3:00.367,64932,(,0,0,2
3:00.467,64968,t,0,0,0
3:00.572,65006,),0,0,2
3:00.811,65092,(,0,0,0
3:00.861,65110,p,0,0,0
3:00.914,65129,),0,0,0
3:00.950,65142,(,0,0,1
3:00.997,65159,N,0,0,0
3:01.033,65172,),0,0,1
3:01.142,65211,(,0,0,2
3:01.217,65238,t,0,0,1
3:01.306,65270,),0,0,2
3:01.383,65298,(,0,0,1
3:01.533,65352,N,0,0,0
3:01.575,65367,),0,0,1
3:01.686,65407,(,0,0,2
3:01.761,65434,t,0,0,0
3:01.822,65456,),0,0,2
3:01.975,65511,(,0,0,0
3:02.025,65529,p,0,0,0
3:02.078,65548,),0,0,0
3:02.114,65561,(,0,0,1
3:02.156,65576,N,0,0,0
3:02.192,65589,),0,0,1
3:02.297,65627,(,0,0,2
3:02.367,65652,t,0,0,1
3:02.447,65681,),0,0,2
3:02.544,65716,(,0,0,0
3:02.600,65736,p,0,0,0
3:02.653,65755,),0,0,0
3:02.686,65767,(,0,0,1
3:02.739,65786,N,0,0,0
3:02.775,65799,),0,0,1
3:02.872,65834,(,0,0,2
3:02.936,65857,t,0,0,1
3:03.011,65884,),0,0,2
3:03.114,65921,(,0,0,0
3:03.161,65938,p,0,0,0
3:03.208,65955,),0,0,0
3:03.225,65961,(,0,0,1
3:03.292,65985,N,0,0,0
3:03.328,65998,),0,0,1
3:03.425,66033,(,0,0,2
3:03.494,66058,t,0,0,1
3:03.575,66087,),0,0,2
3:03.656,66116,(,0,0,1
3:03.778,66160,N,0,0,0
3:03.817,66174,),0,0,1
3:03.931,66215,(,0,0,2
3:03.997,66239,t,0,0,0
3:04.069,66265,),0,0,2
3:04.250,66330,(,0,0,0
3:04.294,66346,p,0,0,0
3:04.350,66366,),0,0,0
3:04.383,66378,(,0,0,1
3:04.431,66395,N,0,0,0
3:04.467,66408,),0,0,1
3:04.561,66442,(,0,0,2
3:04.636,66469,t,0,0,1
3:04.717,66498,),0,0,2
3:04.811,66532,(,0,0,0
3:04.856,66548,p,0,0,0
3:04.911,66568,),0,0,0
3:04.944,66580,(,0,0,1
3:04.994,66598,N,0,0,0
3:05.028,66610,),0,0,1
3:05.133,66648,(,0,0,2
3:05.203,66673,t,0,0,1
3:05.283,66702,),0,0,2
3:05.386,66739,(,0,0,0
3:05.433,66756,p,0,0,0
3:05.486,66775,),0,0,0
3:05.522,66788,(,0,0,1
3:05.567,66804,N,0,0,0
3:05.603,66817,),0,0,1
3:05.683,66846,t,0,0,3
3:05.769,66877,),0,0,2
3:05.853,66907,(,0,0,1
3:05.969,66949,N,0,0,0
3:06.044,66976,),0,0,1
3:06.067,66984,(,0,0,2
3:06.172,67022,t,0,0,0
3:06.278,67060,),0,0,2
3:06.314,67073,(,0,0,0
3:06.356,67088,p,0,0,0
3:06.400,67104,),0,0,0
3:06.453,67123,(,0,0,1
3:06.500,67140,N,0,0,0
3:06.533,67152,),0,0,1
3:06.639,67190,(,0,0,2
3:06.714,67217,t,0,0,1
3:06.794,67246,),0,0,2
3:06.983,67314,(,0,0,0
3:07.042,67335,p,0,0,0
3:07.094,67354,),0,0,0
3:07.122,67364,(,0,0,1
3:07.172,67382,N,0,0,0
3:07.206,67394,),0,0,1
3:07.306,67430,(,0,0,2
3:07.372,67454,t,0,0,1
3:07.450,67482,),0,0,2
3:07.556,67520,(,0,0,0
3:07.611,67540,p,0,0,0
3:07.664,67559,),0,0,0
3:07.700,67572,(,0,0,1
3:07.747,67589,N,0,0,0
3:07.786,67603,),0,0,1
3:07.883,67638,(,0,0,2
3:07.953,67663,t,0,0,1
3:08.028,67690,),0,0,2
3:08.144,67732,(,0,0,0
3:08.192,67749,p,0,0,0
3:08.244,67768,),0,0,0
3:08.261,67774,(,0,0,1
3:08.331,67799,N,0,0,0
3:08.367,67812,),0,0,1
3:08.469,67849,(,0,0,2
3:08.536,67873,t,0,0,1
3:08.622,67904,),0,0,2
3:08.733,67944,(,0,0,0
3:08.781,67961,p,0,0,0
3:08.831,67979,),0,0,0
3:08.861,67990,(,0,0,1
3:08.914,68009,N,0,0,0
3:08.950,68022,),0,0,1
3:09.042,68055,(,0,0,2
3:09.117,68082,t,0,0,1
3:09.197,68111,),0,0,2
3:09.303,68149,(,0,0,0
3:09.350,68166,p,0,0,0
3:09.408,68187,),0,0,0
3:09.425,68193,(,0,0,1
3:09.492,68217,N,0,0,0
3:09.528,68230,),0,0,1
3:09.606,68258,t,0,0,3
3:09.692,68289,),0,0,2
3:09.792,68325,(,0,0,1
3:09.886,68359,N,0,0,0
3:09.964,68387,),0,0,1
3:09.983,68394,(,0,0,2
3:10.081,68429,t,0,0,0
3:10.186,68467,),0,0,2
3:10.431,68555,(,0,0,0
3:10.483,68574,p,0,0,0
3:10.536,68593,),0,0,0
3:10.564,68603,(,0,0,1
3:10.614,68621,N,0,0,0
3:10.647,68633,),0,0,1
3:10.742,68667,(,0,0,2
3:10.822,68696,t,0,0,1
3:10.914,68729,),0,0,2
3:10.997,68759,(,0,0,1
3:11.100,68796,N,0,0,0
3:11.189,68828,),0,0,1
3:11.211,68836,(,0,0,2
3:11.306,68870,t,0,0,0
3:11.417,68910,),0,0,2
3:11.581,68969,(,0,0,0
3:11.625,68985,p,0,0,0
3:11.681,69005,),0,0,0
3:11.717,69018,(,0,0,1
3:11.767,69036,N,0,0,0
3:11.803,69049,),0,0,1
3:11.914,69089,(,0,0,2
3:11.992,69117,t,0,0,1
3:12.075,69147,),0,0,2
3:12.172,69182,(,0,0,0
3:12.222,69200,p,0,0,0
3:12.269,69217,),0,0,0
3:12.292,69225,(,0,0,1
3:12.358,69249,N,0,0,0
3:12.394,69262,),0,0,1
3:12.458,69285,t,0,0,3
3:12.553,69319,),0,0,2
3:12.672,69362,(,0,0,1
3:12.769,69397,N,0,0,0
3:12.856,69428,),0,0,1
3:12.881,69437,(,0,0,2
3:12.978,69472,t,0,0,0
3:13.089,69512,),0,0,2
3:13.322,69596,(,0,0,0
3:13.372,69614,p,0,0,0
3:13.428,69634,),0,0,0
3:13.458,69645,(,0,0,1
3:13.508,69663,N,0,0,0
3:13.544,69676,),0,0,1
3:13.625,69705,t,0,0,3
3:13.722,69740,),0,0,2
3:13.819,69775,(,0,0,1
3:13.919,69811,N,0,0,0
3:13.994,69838,),0,0,1
3:14.014,69845,(,0,0,2
3:14.119,69883,t,0,0,0
3:14.225,69921,),0,0,2
3:14.481,70013,(,0,0,0
3:14.525,70029,p,0,0,0
3:14.578,70048,),0,0,0
3:14.594,70054,(,0,0,1
3:14.661,70078,N,0,0,0
3:14.697,70091,),0,0,1
3:14.803,70129,(,0,0,2
3:14.878,70156,t,0,0,1
3:14.967,70188,),0,0,2
3:15.069,70225,(,0,0,0
3:15.117,70242,p,0,0,0
3:15.164,70259,),0,0,0
3:15.183,70266,(,0,0,1
3:15.242,70287,N,0,0,0
3:15.247,70289,(,0,0,0
3:15.283,70302,p,0,0,0
3:15.294,70306,),0,0,1
3:15.300,70308,),0,0,0
3:15.458,70365,(,0,0,1
3:15.631,70427,N,0,0,0
3:15.711,70456,),0,0,1
3:15.733,70464,(,0,0,2
3:15.833,70500,t,0,0,0
3:15.947,70541,),0,0,2
3:16.231,70643,(,0,0,0
3:16.281,70661,p,0,0,0
3:16.336,70681,),0,0,0
3:16.361,70690,(,0,0,1
3:16.417,70710,N,0,0,0
3:16.453,70723,),0,0,1
3:16.561,70762,(,0,0,2
3:16.636,70789,t,0,0,1
3:16.728,70822,),0,0,2
3:16.794,70846,(,0,0,1
3:16.936,70897,N,0,0,0
3:16.975,70911,),0,0,1
3:17.086,70951,(,0,0,2
3:17.153,70975,t,0,0,0
3:17.217,70998,),0,0,2
3:17.381,71057,(,0,0,0
3:17.431,71075,p,0,0,0
3:17.481,71093,),0,0,0
3:17.497,71099,(,0,0,1
3:17.561,71122,N,0,0,0
3:17.594,71134,),0,0,1
3:17.694,71170,(,0,0,2
3:17.772,71198,t,0,0,1
3:17.850,71226,),0,0,2
3:17.964,71267,(,0,0,0
3:18.014,71285,p,0,0,0
3:18.064,71303,),0,0,0
3:18.094,71314,(,0,0,1
3:18.147,71333,N,0,0,0
3:18.181,71345,),0,0,1
3:18.272,71378,(,0,0,2
3:18.342,71403,t,0,0,1
3:18.422,71432,),0,0,2
3:18.531,71471,(,0,0,0
3:18.581,71489,p,0,0,0
3:18.633,71508,),0,0,0
3:18.669,71521,(,0,0,1
3:18.719,71539,N,0,0,0
3:18.756,71552,),0,0,1
3:18.861,71590,(,0,0,2
3:18.933,71616,t,0,0,1
3:19.014,71645,),0,0,2
3:19.097,71675,(,0,0,1
3:19.228,71722,N,0,0,0
3:19.267,71736,),0,0,1
3:19.383,71778,(,0,0,2
3:19.453,71803,t,0,0,0
3:19.511,71824,),0,0,2
3:19.686,71887,(,0,0,0
3:19.736,71905,p,0,0,0
3:19.792,71925,),0,0,0
3:19.825,71937,(,0,0,1
3:19.872,71954,N,0,0,0
3:19.908,71967,),0,0,1
3:20.006,72002,(,0,0,2
3:20.081,72029,t,0,0,1
3:20.164,72059,),0,0,2
3:20.258,72093,(,0,0,0
3:20.308,72111,p,0,0,0
3:20.358,72129,),0,0,0
3:20.392,72141,(,0,0,1
3:20.442,72159,N,0,0,0
3:20.478,72172,),0,0,1
3:20.581,72209,(,0,0,2
3:20.647,72233,t,0,0,1
3:20.728,72262,),0,0,2
3:20.831,72299,(,0,0,0
3:20.875,72315,p,0,0,0
3:20.928,72334,),0,0,0
3:20.958,72345,(,0,0,1
3:21.011,72364,N,0,0,0
3:21.050,72378,),0,0,1
3:21.144,72412,(,0,0,2
3:21.214,72437,t,0,0,1
3:21.294,72466,),0,0,2
3:21.386,72499,(,0,0,1
3:21.519,72547,N,0,0,0
3:21.561,72562,),0,0,1
3:21.675,72603,(,0,0,2
3:21.742,72627,t,0,0,0
3:21.808,72651,),0,0,2
3:21.983,72714,(,0,0,0
3:22.031,72731,p,0,0,0
3:22.086,72751,),0,0,0
3:22.103,72757,(,0,0,1
3:22.175,72783,N,0,0,0
3:22.214,72797,),0,0,1
3:22.322,72836,(,0,0,2
3:22.394,72862,t,0,0,1
3:22.475,72891,),0,0,2
3:22.581,72929,(,0,0,0
3:22.625,72945,p,0,0,0
3:22.675,72963,),0,0,0
3:22.708,72975,(,0,0,1
3:22.758,72993,N,0,0,0
3:22.794,73006,),0,0,1
3:22.864,73031,t,0,0,3
3:22.953,73063,),0,0,2
3:23.061,73102,(,0,0,1
3:23.164,73139,N,0,0,0
3:23.253,73171,),0,0,1
3:23.275,73179,(,0,0,2
3:23.367,73212,t,0,0,0
3:23.475,73251,),0,0,2
3:23.725,73341,(,0,0,0
3:23.772,73358,p,0,0,0
3:23.825,73377,),0,0,0
3:23.856,73388,(,0,0,1
3:23.908,73407,N,0,0,0
3:23.944,73420,),0,0,1
3:24.025,73449,t,0,0,3
3:24.119,73483,),0,0,2
3:24.228,73522,(,0,0,1
3:24.319,73555,N,0,0,0
3:24.381,73577,),0,0,1
3:24.444,73600,(,0,0,2
3:24.511,73624,t,0,0,0
3:24.608,73659,),0,0,2
3:24.833,73740,(,0,0,0
3:24.883,73758,p,0,0,0
3:24.936,73777,),0,0,0
3:24.961,73786,(,0,0,1
3:25.014,73805,N,0,0,0
3:25.056,73820,),0,0,1
3:25.144,73852,(,0,0,2
3:25.225,73881,t,0,0,1
3:25.311,73912,),0,0,2
3:25.419,73951,(,0,0,0
3:25.472,73970,p,0,0,0
3:25.522,73988,),0,0,0
3:25.558,74001,(,0,0,1
3:25.614,74021,N,0,0,0
3:25.658,74037,),0,0,1
3:25.756,74072,(,0,0,2
3:25.822,74096,t,0,0,1
3:25.900,74124,),0,0,2
3:26.011,74164,(,0,0,0
3:26.061,74182,p,0,0,0
3:26.111,74200,),0,0,0
3:26.131,74207,(,0,0,1
3:26.203,74233,N,0,0,0
3:26.250,74250,),0,0,1
3:26.336,74281,(,0,0,2
3:26.417,74310,t,0,0,1
3:26.500,74340,),0,0,2
3:26.619,74383,(,0,0,0
3:26.667,74400,p,0,0,0
3:26.714,74417,),0,0,0
3:26.736,74425,(,0,0,1
3:26.800,74448,N,0,0,0
3:26.842,74463,),0,0,1
3:26.908,74487,(,0,0,2
3:26.997,74519,t,0,0,1
3:27.086,74551,),0,0,2
3:27.192,74589,(,0,0,0
3:27.242,74607,p,0,0,0
3:27.294,74626,),0,0,0
3:27.319,74635,(,0,0,1
3:27.378,74656,N,0,0,0
3:27.425,74673,),0,0,1
3:27.506,74702,(,0,0,2
3:27.581,74729,t,0,0,1
3:27.667,74760,),0,0,2
3:27.778,74800,(,0,0,0
3:27.822,74816,p,0,0,0
3:27.872,74834,),0,0,0
3:27.892,74841,(,0,0,1
3:27.956,74864,N,0,0,0
3:28.003,74881,),0,0,1
3:28.086,74911,(,0,0,2
3:28.161,74938,t,0,0,1
3:28.244,74968,),0,0,2
3:28.358,75009,(,0,0,0
3:28.408,75027,p,0,0,0
3:28.458,75045,),0,0,0
3:28.483,75054,(,0,0,1
3:28.542,75075,N,0,0,0
3:28.592,75093,),0,0,1
3:28.681,75125,(,0,0,2
3:28.756,75152,t,0,0,1
3:28.836,75181,),0,0,2
3:28.953,75223,(,0,0,0
3:29.003,75241,p,0,0,0
3:29.053,75259,),0,0,0
3:29.083,75270,(,0,0,1
3:29.139,75290,N,0,0,0
3:29.189,75308,),0,0,1
3:29.275,75339,(,0,0,2
3:29.350,75366,t,0,0,1
3:29.433,75396,),0,0,2
3:29.531,75431,(,0,0,0
3:29.581,75449,p,0,0,0
3:29.631,75467,),0,0,0
3:29.658,75477,(,0,0,1
3:29.717,75498,N,0,0,0
3:29.761,75514,),0,0,1
3:29.847,75545,(,0,0,2
3:29.919,75571,t,0,0,1
3:30.000,75600,),0,0,2
3:30.106,75638,(,0,0,0
3:30.156,75656,p,0,0,0
3:30.206,75674,),0,0,0
3:30.222,75680,(,0,0,1
3:30.283,75702,N,0,0,0
3:30.333,75720,),0,0,1
3:30.492,75777,(,0,0,1
3:30.628,75826,N,0,0,0
3:30.711,75856,),0,0,1
3:30.783,75882,(,0,0,2
3:30.839,75902,t,0,0,0
3:30.953,75943,),0,0,2
3:31.250,76050,(,0,0,0
3:31.306,76070,p,0,0,0
3:31.358,76089,),0,0,0
3:31.389,76100,(,0,0,1
3:31.439,76118,N,0,0,0
3:31.475,76131,),0,0,1
3:31.575,76167,(,0,0,2
3:31.661,76198,t,0,0,1
3:31.756,76232,),0,0,2
3:31.819,76255,(,0,0,1
3:31.944,76300,N,0,0,0
3:31.981,76313,),0,0,1
3:32.083,76350,(,0,0,2
3:32.156,76376,t,0,0,0
3:32.219,76399,),0,0,2
3:32.428,76474,(,0,0,0
3:32.478,76492,p,0,0,0
3:32.531,76511,),0,0,0
3:32.558,76521,(,0,0,1
3:32.617,76542,N,0,0,0
3:32.653,76555,),0,0,1
3:32.753,76591,(,0,0,2
3:32.828,76618,t,0,0,1
3:32.914,76649,),0,0,2
3:33.031,76691,(,0,0,0
3:33.078,76708,p,0,0,0
3:33.128,76726,),0,0,0
3:33.164,76739,(,0,0,1
3:33.217,76758,N,0,0,0
3:33.253,76771,),0,0,1
3:33.331,76799,t,0,0,3
3:33.425,76833,),0,0,2
3:33.533,76872,(,0,0,1
3:33.625,76905,N,0,0,0
3:33.711,76936,),0,0,1
3:33.731,76943,(,0,0,2
3:33.825,76977,t,0,0,0
3:33.936,77017,),0,0,2
3:34.206,77114,(,0,0,0
3:34.253,77131,p,0,0,0
3:34.303,77149,),0,0,0
3:34.333,77160,(,0,0,1
3:34.383,77178,N,0,0,0
3:34.419,77191,),0,0,1
3:34.464,77207,t,0,0,3
3:34.592,77253,),0,0,2
3:34.603,77257,(,0,0,1
3:34.778,77320,N,0,0,0
3:34.856,77348,),0,0,1
3:34.903,77365,(,0,0,2
3:34.989,77396,t,0,0,0
3:35.103,77437,),0,0,2
3:35.383,77538,(,0,0,0
3:35.436,77557,p,0,0,0
3:35.481,77573,),0,0,0
3:35.497,77579,(,0,0,1
3:35.567,77604,N,0,0,0
3:35.600,77616,),0,0,1
3:35.689,77648,t,0,0,3
3:35.792,77685,),0,0,2
3:35.806,77690,(,0,0,1
3:35.986,77755,N,0,0,0
3:36.064,77783,),0,0,1
3:36.119,77803,(,0,0,2
3:36.200,77832,t,0,0,0
3:36.317,77874,),0,0,2
3:36.586,77971,(,0,0,0
3:36.633,77988,p,0,0,0
3:36.686,78007,),0,0,0
3:36.703,78013,(,0,0,1
3:36.767,78036,N,0,0,0
3:36.800,78048,),0,0,1
3:36.925,78093,(,0,0,2
3:36.989,78116,t,0,0,1
3:37.078,78148,),0,0,2
3:37.169,78181,(,0,0,0
3:37.219,78199,p,0,0,0
3:37.269,78217,),0,0,0
3:37.297,78227,(,0,0,1
3:37.350,78246,N,0,0,0
3:37.383,78258,),0,0,1
3:37.494,78298,(,0,0,2
3:37.556,78320,t,0,0,1
3:37.633,78348,),0,0,2
3:37.756,78392,(,0,0,0
3:37.800,78408,p,0,0,0
3:37.850,78426,),0,0,0
3:37.864,78431,(,0,0,1
3:37.931,78455,N,0,0,0
3:37.964,78467,),0,0,1
3:38.089,78512,(,0,0,2
3:38.144,78532,t,0,0,1
3:38.228,78562,),0,0,2
3:38.336,78601,(,0,0,0
3:38.389,78620,p,0,0,0
3:38.444,78640,),0,0,0
3:38.461,78646,(,0,0,1
3:38.531,78671,N,0,0,0
3:38.561,78682,),0,0,1
3:38.653,78715,(,0,0,2
3:38.731,78743,t,0,0,1
3:38.808,78771,),0,0,2
3:38.925,78813,(,0,0,0
3:38.975,78831,p,0,0,0
3:39.031,78851,),0,0,0
3:39.061,78862,(,0,0,1
3:39.114,78881,N,0,0,0
3:39.147,78893,),0,0,1
3:39.250,78930,(,0,0,2
3:39.322,78956,t,0,0,1
3:39.400,78984,),0,0,2
3:39.514,79025,(,0,0,0
3:39.558,79041,p,0,0,0
3:39.614,79061,),0,0,0
3:39.633,79068,(,0,0,1
3:39.700,79092,N,0,0,0
3:39.733,79104,),0,0,1
3:39.842,79143,(,0,0,2
3:39.917,79170,t,0,0,1
3:39.994,79198,),0,0,2
3:40.114,79241,(,0,0,0
3:40.167,79260,p,0,0,0
3:40.219,79279,),0,0,0
3:40.256,79292,(,0,0,1
3:40.303,79309,N,0,0,0
3:40.336,79321,),0,0,1
3:40.431,79355,(,0,0,2
3:40.503,79381,t,0,0,1
3:40.581,79409,),0,0,2
3:40.689,79448,(,0,0,0
3:40.739,79466,p,0,0,0
3:40.786,79483,),0,0,0
3:40.803,79489,(,0,0,1
3:40.872,79514,N,0,0,0
3:40.908,79527,),0,0,1
3:41.019,79567,(,0,0,2
3:41.086,79591,t,0,0,1
3:41.161,79618,),0,0,2
3:41.578,79768,(,0,0,0
3:41.639,79790,p,0,0,0
3:41.686,79807,),0,0,0
3:41.703,79813,(,0,0,1
3:41.797,79847,N,0,0,0
3:41.878,79876,),0,0,1
3:41.897,79883,(,0,0,2
3:41.997,79919,t,0,0,0
3:42.108,79959,),0,0,2
3:42.431,80075,(,0,0,0
3:42.486,80095,p,0,0,0
3:42.536,80113,),0,0,0
3:42.569,80125,(,0,0,1
3:42.622,80144,N,0,0,0
3:42.658,80157,),0,0,1
3:42.769,80197,(,0,0,2
3:42.850,80226,t,0,0,1
3:42.939,80258,),0,0,2
3:43.050,80298,(,0,0,0
3:43.089,80312,p,0,0,0
3:43.139,80330,),0,0,0
3:43.181,80345,(,0,0,1
3:43.222,80360,N,0,0,0
3:43.253,80371,),0,0,1
3:43.361,80410,(,0,0,2
3:43.425,80433,t,0,0,1
3:43.500,80460,),0,0,2
3:43.608,80499,(,0,0,1
3:43.758,80553,N,0,0,0
3:43.803,80569,),0,0,1
3:43.903,80605,(,0,0,2
3:43.978,80632,t,0,0,0
3:44.047,80657,),0,0,2
3:44.056,80660,(,0,0,0
3:44.108,80679,p,0,0,0
3:44.228,80722,),0,0,0
3:44.253,80731,(,0,0,1
3:44.372,80774,N,0,0,0
3:44.414,80789,),0,0,1
3:44.525,80829,(,0,0,2
3:44.589,80852,t,0,0,0
3:44.667,80880,),0,0,2
3:44.764,80915,(,0,0,0
3:44.814,80933,p,0,0,0
3:44.864,80951,),0,0,0
3:44.897,80963,(,0,0,1
3:44.947,80981,N,0,0,0
3:44.986,80995,),0,0,1
3:45.064,81023,t,0,0,3
3:45.158,81057,),0,0,2
3:45.269,81097,(,0,0,1
3:45.372,81134,N,0,0,0
3:45.453,81163,),0,0,1
3:45.481,81173,(,0,0,2
3:45.569,81205,t,0,0,0
3:45.678,81244,),0,0,2
3:45.925,81333,(,0,0,0
3:45.972,81350,p,0,0,0
3:46.014,81365,),0,0,0
3:46.028,81370,(,0,0,1
3:46.097,81395,N,0,0,0
3:46.144,81412,),0,0,1
3:46.231,81443,(,0,0,2
3:46.303,81469,t,0,0,1
3:46.400,81504,),0,0,2
3:46.508,81543,(,0,0,0
3:46.556,81560,p,0,0,0
3:46.611,81580,),0,0,0
3:46.631,81587,(,0,0,1
3:46.697,81611,N,0,0,0
3:46.733,81624,),0,0,1
3:46.842,81663,(,0,0,2
3:46.911,81688,t,0,0,1
3:46.992,81717,),0,0,2
3:47.103,81757,(,0,0,0
3:47.153,81775,p,0,0,0
3:47.200,81792,),0,0,0
3:47.233,81804,(,0,0,1
3:47.283,81822,N,0,0,0
3:47.317,81834,),0,0,1
3:47.417,81870,(,0,0,2
3:47.489,81896,t,0,0,1
3:47.567,81924,),0,0,2
3:47.686,81967,(,0,0,0
3:47.736,81985,p,0,0,0
3:47.786,82003,),0,0,0
3:47.822,82016,(,0,0,1
3:47.872,82034,N,0,0,0
3:47.903,82045,),0,0,1
3:48.003,82081,(,0,0,2
3:48.075,82107,t,0,0,1
3:48.153,82135,),0,0,2
3:48.258,82173,(,0,0,1
3:48.408,82227,N,0,0,0
3:48.450,82242,),0,0,1
3:48.483,82254,(,0,0,2
3:48.531,82271,t,0,0,1
3:48.622,82304,),0,0,2
3:48.719,82339,(,0,0,1
3:48.819,82375,N,0,0,0
3:48.897,82403,),0,0,1
3:48.944,82420,(,0,0,2
3:49.022,82448,t,0,0,0
3:49.125,82485,),0,0,2
3:49.431,82595,(,0,0,0
3:49.481,82613,p,0,0,0
3:49.536,82633,),0,0,0
3:49.564,82643,(,0,0,1
3:49.617,82662,N,0,0,0
3:49.653,82675,),0,0,1
3:49.753,82711,(,0,0,2
3:49.836,82741,t,0,0,1
3:49.919,82771,),0,0,2
3:50.019,82807,(,0,0,0
3:50.067,82824,p,0,0,0
3:50.117,82842,),0,0,0
3:50.133,82848,(,0,0,1
3:50.203,82873,N,0,0,0
3:50.236,82885,),0,0,1
3:50.339,82922,(,0,0,2
3:50.414,82949,t,0,0,1
3:50.492,82977,),0,0,2
3:50.606,83018,(,0,0,0
3:50.650,83034,p,0,0,0
3:50.703,83053,),0,0,0
3:50.733,83064,(,0,0,1
3:50.786,83083,N,0,0,0
3:50.819,83095,),0,0,1
3:50.911,83128,(,0,0,2
3:50.986,83155,t,0,0,1
3:51.067,83184,),0,0,2
3:51.183,83226,(,0,0,0
3:51.228,83242,p,0,0,0
3:51.281,83261,),0,0,0
3:51.300,83268,(,0,0,1
3:51.358,83289,N,0,0,0
3:51.392,83301,),0,0,1
3:51.492,83337,(,0,0,2
3:51.558,83361,t,0,0,1
3:51.636,83389,),0,0,2
3:51.758,83433,(,0,0,0
3:51.803,83449,p,0,0,0
3:51.856,83468,),0,0,0
3:51.872,83474,(,0,0,1
3:51.944,83500,N,0,0,0
3:51.978,83512,),0,0,1
3:52.086,83551,(,0,0,2
3:52.153,83575,t,0,0,1
3:52.228,83602,),0,0,2
3:52.333,83640,(,0,0,0
3:52.383,83658,p,0,0,0
3:52.436,83677,),0,0,0
3:52.469,83689,(,0,0,1
3:52.519,83707,N,0,0,0
3:52.553,83719,),0,0,1
3:52.653,83755,(,0,0,2
3:52.725,83781,t,0,0,1
3:52.808,83811,),0,0,2
3:52.919,83851,(,0,0,0
3:52.964,83867,p,0,0,0
3:53.017,83886,),0,0,0
3:53.053,83899,(,0,0,1
3:53.100,83916,N,0,0,0
3:53.133,83928,),0,0,1
3:53.236,83965,(,0,0,2
3:53.308,83991,t,0,0,1
3:53.386,84019,),0,0,2
3:53.497,84059,(,0,0,0
3:53.547,84077,p,0,0,0
3:53.600,84096,),0,0,0
3:53.633,84108,(,0,0,1
3:53.686,84127,N,0,0,0
3:53.722,84140,),0,0,1
3:53.817,84174,(,0,0,2
3:53.886,84199,t,0,0,1
3:53.967,84228,),0,0,2
3:54.031,84251,(,0,0,1
3:54.156,84296,N,0,0,0
3:54.192,84309,),0,0,1
3:54.308,84351,(,0,0,2
3:54.378,84376,t,0,0,0
3:54.444,84400,),0,0,2
3:54.450,84402,(,0,0,0
3:54.525,84429,p,0,0,0
3:54.617,84462,),0,0,0
3:54.700,84492,(,0,0,1
3:54.792,84525,N,0,0,0
3:54.856,84548,),0,0,1
3:54.936,84577,(,0,0,2
3:55.011,84604,t,0,0,0
3:55.106,84638,),0,0,2
3:55.219,84679,(,0,0,0
3:55.264,84695,p,0,0,0
3:55.319,84715,),0,0,0
3:55.356,84728,(,0,0,1
3:55.403,84745,N,0,0,0
3:55.439,84758,),0,0,1
3:55.539,84794,(,0,0,2
3:55.611,84820,t,0,0,1
3:55.689,84848,),0,0,2
3:55.797,84887,(,0,0,0
3:55.847,84905,p,0,0,0
3:55.897,84923,),0,0,0
3:55.933,84936,(,0,0,1
3:55.986,84955,N,0,0,0
3:56.025,84969,),0,0,1
3:56.122,85004,(,0,0,2
3:56.194,85030,t,0,0,1
3:56.275,85059,),0,0,2
3:56.389,85100,(,0,0,0
3:56.436,85117,p,0,0,0
3:56.492,85137,),0,0,0
3:56.528,85150,(,0,0,1
3:56.572,85166,N,0,0,0
3:56.608,85179,),0,0,1
3:56.706,85214,(,0,0,2
3:56.769,85237,t,0,0,1
3:56.847,85265,),0,0,2
3:56.961,85306,(,0,0,0
3:57.008,85323,p,0,0,0
3:57.061,85342,),0,0,0
3:57.075,85347,(,0,0,1
3:57.142,85371,N,0,0,0
3:57.189,85388,),0,0,1
3:57.361,85450,(,0,0,1
3:57.522,85508,N,0,0,0
3:57.597,85535,),0,0,1
3:57.633,85548,(,0,0,2
3:57.717,85578,t,0,0,0
3:57.828,85618,),0,0,2
3:58.103,85717,(,0,0,0
3:58.150,85734,p,0,0,0
3:58.200,85752,),0,0,0
3:58.225,85761,(,0,0,1
3:58.272,85778,N,0,0,0
3:58.308,85791,),0,0,1
3:58.419,85831,(,0,0,2
3:58.494,85858,t,0,0,1
3:58.586,85891,),0,0,2
3:58.675,85923,(,0,0,0
3:58.725,85941,p,0,0,0
3:58.778,85960,),0,0,0
3:58.814,85973,(,0,0,1
3:58.861,85990,N,0,0,0
3:58.897,86003,),0,0,1
3:59.000,86040,(,0,0,2
3:59.061,86062,t,0,0,1
3:59.133,86088,),0,0,2
3:59.244,86128,(,0,0,0
3:59.292,86145,p,0,0,0
3:59.347,86165,),0,0,0
3:59.369,86173,(,0,0,1
3:59.433,86196,N,0,0,0
3:59.472,86210,),0,0,1
3:59.594,86254,(,0,0,2
3:59.650,86274,t,0,0,1
3:59.731,86303,),0,0,2
3:59.839,86342,(,0,0,0
3:59.886,86359,p,0,0,0
3:59.939,86378,),0,0,0
3:59.961,86386,(,0,0,1
4:00.028,86410,N,0,0,0
4:00.064,86423,),0,0,1
4:00.175,86463,(,0,0,2
4:00.242,86487,t,0,0,1
4:00.314,86513,),0,0,2
4:00.436,86557,(,0,0,0
4:00.486,86575,p,0,0,0
4:00.539,86594,),0,0,0
4:00.575,86607,(,0,0,1
4:00.622,86624,N,0,0,0
4:00.658,86637,),0,0,1
4:00.753,86671,(,0,0,2
4:00.822,86696,t,0,0,1
4:00.897,86723,),0,0,2
4:01.011,86764,(,0,0,0
4:01.053,86779,p,0,0,0
4:01.103,86797,),0,0,0
4:01.139,86810,(,0,0,1
4:01.189,86828,N,0,0,0
4:01.228,86842,),0,0,1
4:01.322,86876,(,0,0,2
4:01.397,86903,t,0,0,1
4:01.475,86931,),0,0,2
4:01.583,86970,(,0,0,0
4:01.628,86986,p,0,0,0
4:01.681,87005,),0,0,0
4:01.700,87012,(,0,0,1
4:01.764,87035,N,0,0,0
4:01.800,87048,),0,0,1
4:01.847,87065,t,0,0,3
4:01.958,87105,),0,0,2
4:02.058,87141,(,0,0,1
4:02.156,87176,N,0,0,0
4:02.236,87205,),0,0,1
4:02.281,87221,(,0,0,2
4:02.358,87249,t,0,0,0
4:02.475,87291,),0,0,2
4:02.742,87387,(,0,0,0
4:02.789,87404,p,0,0,0
4:02.844,87424,),0,0,0
4:02.869,87433,(,0,0,1
4:02.928,87454,N,0,0,0
4:02.967,87468,),0,0,1
4:03.075,87507,(,0,0,2
4:03.153,87535,t,0,0,1
4:03.239,87566,),0,0,2
4:03.308,87591,(,0,0,1
4:03.442,87639,N,0,0,0
4:03.481,87653,),0,0,1
4:03.592,87693,(,0,0,2
4:03.661,87718,t,0,0,0
4:03.719,87739,),0,0,2
4:03.917,87810,(,0,0,0
4:03.964,87827,p,0,0,0
4:04.022,87848,),0,0,0
4:04.061,87862,(,0,0,1
4:04.106,87878,N,0,0,0
4:04.142,87891,),0,0,1
4:04.242,87927,(,0,0,2
4:04.311,87952,t,0,0,1
4:04.392,87981,),0,0,2
4:04.494,88018,(,0,0,0
4:04.539,88034,p,0,0,0
4:04.592,88053,),0,0,0
4:04.631,88067,(,0,0,1
4:04.678,88084,N,0,0,0
4:04.714,88097,),0,0,1
4:04.778,88120,t,0,0,3
4:04.872,88154,),0,0,2
4:04.975,88191,(,0,0,1
4:05.069,88225,N,0,0,0
4:05.150,88254,),0,0,1
4:05.181,88265,(,0,0,2
4:05.272,88298,t,0,0,0
4:05.386,88339,),0,0,2
4:05.644,88432,(,0,0,0
4:05.697,88451,p,0,0,0
4:05.744,88468,),0,0,0
4:05.772,88478,(,0,0,1
4:05.819,88495,N,0,0,0
4:05.856,88508,),0,0,1
4:05.903,88525,t,0,0,3
4:06.028,88570,),0,0,2
4:06.036,88573,(,0,0,1
4:06.217,88638,N,0,0,0
4:06.297,88667,),0,0,1
4:06.336,88681,(,0,0,2
4:06.431,88715,t,0,0,0
4:06.542,88755,),0,0,2
4:06.808,88851,(,0,0,0
4:06.858,88869,p,0,0,0
4:06.917,88890,),0,0,0
4:06.947,88901,(,0,0,1
4:06.997,88919,N,0,0,0
4:07.036,88933,),0,0,1
4:07.147,88973,(,0,0,2
4:07.222,89000,t,0,0,1
4:07.311,89032,),0,0,2
4:07.408,89067,(,0,0,0
4:07.456,89084,p,0,0,0
4:07.506,89102,),0,0,0
4:07.536,89113,(,0,0,1
4:07.586,89131,N,0,0,0
4:07.622,89144,),0,0,1
4:07.717,89178,(,0,0,2
4:07.792,89205,t,0,0,1
4:07.869,89233,),0,0,2
4:07.989,89276,(,0,0,0
4:08.033,89292,p,0,0,0
4:08.083,89310,),0,0,0
4:08.103,89317,(,0,0,1
4:08.169,89341,N,0,0,0
4:08.206,89354,),0,0,1
4:08.297,89387,(,0,0,2
4:08.372,89414,t,0,0,1
4:08.447,89441,),0,0,2
4:08.564,89483,(,0,0,0
4:08.608,89499,p,0,0,0
4:08.658,89517,),0,0,0
4:08.697,89531,(,0,0,1
4:08.744,89548,N,0,0,0
4:08.778,89560,),0,0,1
4:08.878,89596,(,0,0,2
4:08.947,89621,t,0,0,1
4:09.028,89650,),0,0,2
4:09.150,89694,(,0,0,0
4:09.197,89711,p,0,0,0
4:09.253,89731,),0,0,0
4:09.272,89738,(,0,0,1
4:09.339,89762,N,0,0,0
4:09.375,89775,),0,0,1
4:09.475,89811,(,0,0,2
4:09.550,89838,t,0,0,1
4:09.633,89868,),0,0,2
4:09.753,89911,(,0,0,0
4:09.806,89930,p,0,0,0
4:09.858,89949,),0,0,0
4:09.894,89962,(,0,0,1
4:09.942,89979,N,0,0,0
4:09.981,89993,),0,0,1
4:10.083,90030,(,0,0,2
4:10.142,90051,t,0,0,1
4:10.219,90079,),0,0,2
4:10.339,90122,(,0,0,0
4:10.383,90138,p,0,0,0
4:10.433,90156,),0,0,0
4:10.467,90168,(,0,0,1
4:10.519,90187,N,0,0,0
4:10.558,90201,),0,0,1
4:10.661,90238,(,0,0,2
4:10.731,90263,t,0,0,1
4:10.811,90292,),0,0,2
4:10.928,90334,(,0,0,0
4:10.975,90351,p,0,0,0
4:11.028,90370,),0,0,0
4:11.042,90375,(,0,0,1
4:11.106,90398,N,0,0,0
4:11.142,90411,),0,0,1
4:11.244,90448,(,0,0,2
4:11.308,90471,t,0,0,1
4:11.386,90499,),0,0,2
4:11.514,90545,(,0,0,0
4:11.561,90562,p,0,0,0
4:11.611,90580,),0,0,0
4:11.650,90594,(,0,0,1
4:11.694,90610,N,0,0,0
4:11.731,90623,),0,0,1
4:11.828,90658,(,0,0,2
4:11.903,90685,t,0,0,1
4:11.983,90714,),0,0,2
4:12.097,90755,(,0,0,0
4:12.144,90772,p,0,0,0
4:12.200,90792,),0,0,0
4:12.239,90806,(,0,0,1
4:12.286,90823,N,0,0,0
4:12.331,90839,),0,0,1
4:12.442,90879,(,0,0,2
4:12.500,90900,t,0,0,1
4:12.575,90927,),0,0,2
4:12.672,90962,(,0,0,0
4:12.719,90979,p,0,0,0
4:12.772,90998,),0,0,0
4:12.803,91009,(,0,0,1
4:12.853,91027,N,0,0,0
4:12.892,91041,),0,0,1
4:12.994,91078,(,0,0,2
4:13.064,91103,t,0,0,1
4:13.147,91133,),0,0,2
4:13.264,91175,(,0,0,0
4:13.317,91194,p,0,0,0
4:13.367,91212,),0,0,0
4:13.400,91224,(,0,0,1
4:13.453,91243,N,0,0,0
4:13.489,91256,),0,0,1
4:13.583,91290,(,0,0,2
4:13.661,91318,t,0,0,1
4:13.744,91348,),0,0,2
4:13.861,91390,(,0,0,0
4:13.908,91407,p,0,0,0
4:13.967,91428,),0,0,0
4:14.006,91442,(,0,0,1
4:14.053,91459,N,0,0,0
4:14.089,91472,),0,0,1
4:14.189,91508,(,0,0,2
4:14.253,91531,t,0,0,1
4:14.331,91559,),0,0,2
4:14.442,91599,(,0,0,0
4:14.489,91616,p,0,0,0
4:14.539,91634,),0,0,0
4:14.575,91647,(,0,0,1
4:14.625,91665,N,0,0,0
4:14.661,91678,),0,0,1
4:14.772,91718,(,0,0,2
4:14.836,91741,t,0,0,1
4:14.914,91769,),0,0,2
4:15.017,91806,(,0,0,0
4:15.067,91824,p,0,0,0
4:15.119,91843,),0,0,0
4:15.150,91854,(,0,0,1
4:15.200,91872,N,0,0,0
4:15.236,91885,),0,0,1
4:15.300,91908,t,0,0,3
4:15.392,91941,),0,0,2
4:15.503,91981,(,0,0,1
4:15.597,92015,N,0,0,0
4:15.681,92045,),0,0,1
4:15.725,92061,(,0,0,2
4:15.806,92090,t,0,0,0
4:15.922,92132,),0,0,2
4:16.169,92221,(,0,0,0
4:16.219,92239,p,0,0,0
4:16.278,92260,),0,0,0
4:16.303,92269,(,0,0,1
4:16.361,92290,N,0,0,0
4:16.400,92304,),0,0,1
4:16.508,92343,(,0,0,2
4:16.589,92372,t,0,0,1
4:16.678,92404,),0,0,2
4:16.850,92466,(,0,0,1
4:16.936,92497,N,0,0,0
4:16.978,92512,),0,0,1
4:17.083,92550,(,0,0,2
4:17.153,92575,t,0,0,0
4:17.219,92599,),0,0,2
4:17.353,92647,(,0,0,0
4:17.403,92665,p,0,0,0
4:17.456,92684,),0,0,0
4:17.472,92690,(,0,0,1
4:17.542,92715,N,0,0,0
4:17.578,92728,),0,0,1
4:17.683,92766,(,0,0,2
4:17.747,92789,t,0,0,1
4:17.825,92817,),0,0,2
4:17.936,92857,(,0,0,0
4:17.981,92873,p,0,0,0
4:18.033,92892,),0,0,0
4:18.067,92904,(,0,0,1
4:18.114,92921,N,0,0,0
4:18.147,92933,),0,0,1
4:18.247,92969,(,0,0,2
4:18.319,92995,t,0,0,1
4:18.400,93024,),0,0,2
4:18.511,93064,(,0,0,0
4:18.556,93080,p,0,0,0
4:18.606,93098,),0,0,0
4:18.639,93110,(,0,0,1
4:18.692,93129,N,0,0,0
4:18.728,93142,),0,0,1
4:18.831,93179,(,0,0,2
4:18.903,93205,t,0,0,1
4:18.983,93234,),0,0,2
4:19.069,93265,(,0,0,1
4:19.144,93292,N,0,0,0
4:19.217,93318,),0,0,1
4:19.261,93334,(,0,0,2
4:19.281,93341,t,0,0,0
4:19.292,93345,),0,0,2
4:19.417,93390,(,0,0,1
4:19.503,93421,N,0,0,0
4:19.592,93453,),0,0,1
4:19.633,93468,(,0,0,2
4:19.708,93495,t,0,0,0
4:19.817,93534,),0,0,2
4:20.236,93685,(,0,0,0
4:20.283,93702,p,0,0,0
4:20.333,93720,),0,0,0
4:20.364,93731,(,0,0,1
4:20.414,93749,N,0,0,0
4:20.453,93763,),0,0,1
4:20.556,93800,(,0,0,2
4:20.647,93833,t,0,0,1
4:20.744,93868,),0,0,2
4:20.797,93887,(,0,0,1
4:20.911,93928,N,0,0,0
4:20.947,93941,),0,0,1
4:21.061,93982,(,0,0,2
4:21.128,94006,t,0,0,0
4:21.192,94029,),0,0,2
4:21.428,94114,(,0,0,0
4:21.472,94130,p,0,0,0
4:21.525,94149,),0,0,0
4:21.542,94155,(,0,0,1
4:21.608,94179,N,0,0,0
4:21.642,94191,),0,0,1
4:21.753,94231,(,0,0,2
4:21.825,94257,t,0,0,1
4:21.906,94286,),0,0,2
4:22.019,94327,(,0,0,0
4:22.067,94344,p,0,0,0
4:22.114,94361,),0,0,0
4:22.144,94372,(,0,0,1
4:22.192,94389,N,0,0,0
4:22.228,94402,),0,0,1
4:22.322,94436,(,0,0,2
4:22.397,94463,t,0,0,1
4:22.469,94489,),0,0,2
4:22.583,94530,(,0,0,0
4:22.631,94547,p,0,0,0
4:22.689,94568,),0,0,0
4:22.728,94582,(,0,0,1
4:22.775,94599,N,0,0,0
4:22.808,94611,),0,0,1
4:22.919,94651,(,0,0,2
4:22.986,94675,t,0,0,1
4:23.067,94704,),0,0,2
4:23.186,94747,(,0,0,0
4:23.233,94764,p,0,0,0
4:23.289,94784,),0,0,0
4:23.306,94790,(,0,0,1
4:23.378,94816,N,0,0,0
4:23.414,94829,),0,0,1
4:23.525,94869,(,0,0,2
4:23.594,94894,t,0,0,1
4:23.678,94924,),0,0,2
4:23.794,94966,(,0,0,0
4:23.836,94981,p,0,0,0
4:23.889,95000,),0,0,0
4:23.906,95006,(,0,0,1
4:23.975,95031,N,0,0,0
4:24.008,95043,),0,0,1
4:24.075,95067,t,0,0,3
4:24.181,95105,),0,0,2
4:24.197,95111,(,0,0,1
4:24.381,95177,N,0,0,0
4:24.461,95206,),0,0,1
4:24.489,95216,(,0,0,2
4:24.583,95250,t,0,0,0
4:24.692,95289,),0,0,2
4:24.956,95384,(,0,0,0
4:25.006,95402,p,0,0,0
4:25.056,95420,),0,0,0
4:25.094,95434,(,0,0,1
4:25.142,95451,N,0,0,0
4:25.175,95463,),0,0,1
4:25.283,95502,(,0,0,2
4:25.364,95531,t,0,0,1
4:25.447,95561,),0,0,2
4:25.558,95601,(,0,0,0
4:25.606,95618,p,0,0,0
4:25.656,95636,),0,0,0
4:25.669,95641,(,0,0,1
4:25.733,95664,N,0,0,0
4:25.739,95666,(,0,0,0
4:25.775,95679,p,0,0,0
4:25.786,95683,),0,0,1
4:25.794,95686,),0,0,0
4:25.950,95742,(,0,0,1
4:26.108,95799,N,0,0,0
4:26.189,95828,),0,0,1
4:26.222,95840,(,0,0,2
4:26.306,95870,t,0,0,0
4:26.411,95908,),0,0,2
4:26.736,96025,(,0,0,0
4:26.786,96043,p,0,0,0
4:26.842,96063,),0,0,0
4:26.867,96072,(,0,0,1
4:26.917,96090,N,0,0,0
4:26.953,96103,),0,0,1
4:27.058,96141,(,0,0,2
4:27.142,96171,t,0,0,1
4:27.233,96204,),0,0,2
4:27.339,96242,(,0,0,0
4:27.386,96259,p,0,0,0
4:27.436,96277,),0,0,0
4:27.472,96290,(,0,0,1
4:27.522,96308,N,0,0,0
4:27.558,96321,),0,0,1
4:27.669,96361,(,0,0,2
4:27.736,96385,t,0,0,1
4:27.819,96415,),0,0,2
4:27.942,96459,(,0,0,0
4:27.986,96475,p,0,0,0
4:28.036,96493,),0,0,0
4:28.069,96505,(,0,0,1
4:28.119,96523,N,0,0,0
4:28.156,96536,),0,0,1
4:28.258,96573,(,0,0,2
4:28.331,96599,t,0,0,1
4:28.411,96628,),0,0,2
4:28.528,96670,(,0,0,0
4:28.581,96689,p,0,0,0
4:28.631,96707,),0,0,0
4:28.667,96720,(,0,0,1
4:28.714,96737,N,0,0,0
4:28.747,96749,),0,0,1
4:28.847,96785,(,0,0,2
4:28.908,96807,t,0,0,1
4:28.989,96836,),0,0,2
4:29.106,96878,(,0,0,0
4:29.153,96895,p,0,0,0
4:29.206,96914,),0,0,0
4:29.239,96926,(,0,0,1
4:29.289,96944,N,0,0,0
4:29.325,96957,),0,0,1
4:29.375,96975,t,0,0,3
4:29.489,97016,),0,0,2
4:29.589,97052,(,0,0,1
4:29.689,97088,N,0,0,0
4:29.769,97117,),0,0,1
4:29.794,97126,(,0,0,2
4:29.897,97163,t,0,0,0
4:30.008,97203,),0,0,2
4:30.297,97307,(,0,0,0
4:30.344,97324,p,0,0,0
4:30.400,97344,),0,0,0
4:30.433,97356,(,0,0,1
4:30.481,97373,N,0,0,0
4:30.517,97386,),0,0,1
4:30.622,97424,(,0,0,2
4:30.703,97453,t,0,0,1
4:30.786,97483,),0,0,2
4:30.897,97523,(,0,0,0
4:30.942,97539,p,0,0,0
4:30.994,97558,),0,0,0
4:31.031,97571,(,0,0,1
4:31.081,97589,N,0,0,0
4:31.117,97602,),0,0,1
4:31.217,97638,(,0,0,2
4:31.286,97663,t,0,0,1
4:31.364,97691,),0,0,2
4:31.483,97734,(,0,0,0
4:31.531,97751,p,0,0,0
4:31.578,97768,),0,0,0
4:31.608,97779,(,0,0,1
4:31.658,97797,N,0,0,0
4:31.692,97809,),0,0,1
4:31.803,97849,(,0,0,2
4:31.869,97873,t,0,0,1
4:31.947,97901,),0,0,2
4:32.069,97945,(,0,0,0
4:32.117,97962,p,0,0,0
4:32.167,97980,),0,0,0
4:32.203,97993,(,0,0,1
4:32.250,98010,N,0,0,0
4:32.286,98023,),0,0,1
4:32.383,98058,(,0,0,2
4:32.453,98083,t,0,0,1
4:32.536,98113,),0,0,2
4:32.653,98155,(,0,0,0
4:32.703,98173,p,0,0,0
4:32.756,98192,),0,0,0
4:32.794,98206,(,0,0,1
4:32.842,98223,N,0,0,0
4:32.878,98236,),0,0,1
4:32.939,98258,t,0,0,3
4:33.033,98292,),0,0,2
4:33.144,98332,(,0,0,1
4:33.242,98367,N,0,0,0
4:33.325,98397,),0,0,1
4:33.347,98405,(,0,0,2
4:33.453,98443,t,0,0,0
4:33.567,98484,),0,0,2
4:33.833,98580,(,0,0,0
4:33.881,98597,p,0,0,0
4:33.933,98616,),0,0,0
4:33.967,98628,(,0,0,1
4:34.017,98646,N,0,0,0
4:34.053,98659,),0,0,1
4:34.153,98695,(,0,0,2
4:34.236,98725,t,0,0,1
4:34.328,98758,),0,0,2
4:34.439,98798,(,0,0,0
4:34.489,98816,p,0,0,0
4:34.539,98834,),0,0,0
4:34.564,98843,(,0,0,1
4:34.619,98863,N,0,0,0
4:34.667,98880,),0,0,1
4:34.778,98920,(,0,0,2
4:34.825,98937,t,0,0,1
4:34.894,98962,),0,0,2
4:35.044,99016,(,0,0,0
4:35.083,99030,p,0,0,0
4:35.131,99047,),0,0,0
4:35.169,99061,(,0,0,1
4:35.214,99077,N,0,0,0
4:35.250,99090,),0,0,1
4:35.367,99132,(,0,0,2
4:35.431,99155,t,0,0,1
4:35.508,99183,),0,0,2
4:37.136,99769,(,0,0,0
4:37.200,99792,p,0,0,0
4:37.267,99816,),0,0,0
4:37.311,99832,(,0,0,1
4:37.403,99865,N,0,0,0
4:37.489,99896,),0,0,1
4:38.122   100124,(,0,0,2
4:38.158   100137,t,0,0,0
4:38.208   100155,),0,0,2
4:39.481   100613,(,0,0,0
4:39.542   100635,p,0,0,0
4:39.614   100661,),0,0,0
4:39.642   100671,(,0,0,1
4:39.739   100706,N,0,0,0
4:39.817   100734,),0,0,1
4:40.472   100970,(,0,0,2
4:40.511   100984,t,0,0,0
4:40.561   101002,),0,0,2
4:40.669   101041,(,0,0,0
4:40.733   101064,p,0,0,0
4:40.808   101091,),0,0,0
4:40.903   101125,(,0,0,1
4:40.972   101150,N,0,0,0
4:41.050   101178,),0,0,1
4:41.658   101397,(,0,0,2
4:41.697   101411,t,0,0,0
4:41.744   101428,),0,0,2
4:45.986   102955,(,0,0,0
4:46.044   102976,p,0,0,0
4:46.117   103002,),0,0,0
4:46.144   103012,(,0,0,1
4:46.239   103046,N,0,0,0
4:46.317   103074,),0,0,1
4:46.972   103310,(,0,0,2
4:47.011   103324,t,0,0,0
4:47.064   103343,),0,0,2
4:48.406   103826,(,0,0,0
4:48.456   103844,p,0,0,0
4:48.531   103871,),0,0,0
4:48.547   103877,(,0,0,1
4:48.644   103912,N,0,0,0
4:48.722   103940,),0,0,1
4:49.389   104180,(,0,0,2
4:49.425   104193,t,0,0,0
4:49.475   104211,),0,0,2
4:49.583   104250,(,0,0,0
4:49.642   104271,p,0,0,0
4:49.719   104299,),0,0,0
4:49.806   104330,(,0,0,1
4:49.867   104352,N,0,0,0
4:49.933   104376,),0,0,1
4:50.594   104614,(,0,0,2
4:50.633   104628,t,0,0,0
4:50.686   104647,),0,0,2
4:53.167   105540,(,0,0,0
4:53.214   105557,p,0,0,0
4:53.294   105586,),0,0,0
4:53.322   105596,(,0,0,1
4:53.419   105631,N,0,0,0
4:53.494   105658,),0,0,1
4:54.147   105893,(,0,0,2
4:54.186   105907,t,0,0,0
4:54.239   105926,),0,0,2
4:56.694   106810,(,0,0,0
4:56.758   106833,p,0,0,0
4:56.828   106858,),0,0,0
4:56.853   106867,(,0,0,1
4:56.947   106901,N,0,0,0
4:57.033   106932,),0,0,1
4:57.697   107171,(,0,0,2
4:57.736   107185,t,0,0,0
4:57.789   107204,),0,0,2
4:59.067   107664,(,0,0,0
4:59.125   107685,p,0,0,0
4:59.189   107708,),0,0,0
4:59.219   107719,(,0,0,1
4:59.314   107753,N,0,0,0
4:59.400   107784,),0,0,1
5:00.050   108018,(,0,0,2
5:00.086   108031,t,0,0,0
5:00.142   108051,),0,0,2
5:01.442   108519,(,0,0,0
5:01.497   108539,p,0,0,0
5:01.567   108564,),0,0,0
5:01.603   108577,(,0,0,1
5:01.703   108613,N,0,0,0
5:01.786   108643,),0,0,1
5:02.419   108871,(,0,0,2
5:02.458   108885,t,0,0,0
5:02.511   108904,),0,0,2
5:03.794   109366,(,0,0,0
5:03.856   109388,p,0,0,0
5:03.925   109413,),0,0,0
5:03.950   109422,(,0,0,1
5:04.061   109462,N,0,0,0
5:04.147   109493,),0,0,1
5:04.381   109577,),0,0,2
5:04.597   109655,t,0,0,0
5:04.811   109732,(,0,0,2
5:11.025   111969,(,0,0,0
5:11.086   111991,p,0,0,0
5:11.158   112017,),0,0,0
5:11.186   112027,(,0,0,1
5:11.289   112064,N,0,0,0
5:11.378   112096,),0,0,1
5:12.044   112336,(,0,0,2
5:12.083   112350,t,0,0,0
5:12.133   112368,),0,0,2
5:13.425   112833,(,0,0,0
5:13.492   112857,p,0,0,0
5:13.558   112881,),0,0,0
5:13.586   112891,(,0,0,1
5:13.689   112928,N,0,0,0
5:13.781   112961,),0,0,1
5:14.428   113194,(,0,0,2
5:14.467   113208,t,0,0,0
5:14.519   113227,),0,0,2
5:14.628   113266,(,0,0,0
5:14.700   113292,p,0,0,0
5:14.775   113319,),0,0,0
5:14.836   113341,(,0,0,1
5:14.903   113365,N,0,0,0
5:14.972   113390,),0,0,1
5:15.650   113634,(,0,0,2
5:15.686   113647,t,0,0,0
5:15.739   113666,),0,0,2
5:17.022   114128,(,0,0,0
5:17.092   114153,p,0,0,0
5:17.167   114180,),0,0,0
5:17.247   114209,(,0,0,1
5:17.325   114237,N,0,0,0
5:17.400   114264,),0,0,1
5:18.036   114493,(,0,0,2
5:18.075   114507,t,0,0,0
5:18.128   114526,),0,0,2
5:20.617   115422,(,0,0,0
5:20.667   115440,p,0,0,0
5:20.733   115464,),0,0,0
5:20.750   115470,(,0,0,1
5:20.856   115508,N,0,0,0
5:20.939   115538,),0,0,1
5:21.606   115778,(,0,0,2
5:21.642   115791,t,0,0,0
5:21.694   115810,),0,0,2
5:23.006   116282,(,0,0,0
5:23.072   116306,p,0,0,0
5:23.139   116330,),0,0,0
5:23.167   116340,(,0,0,1
5:23.253   116371,N,0,0,0
5:23.336   116401,),0,0,1
5:24.000   116640,(,0,0,2
5:24.039   116654,t,0,0,0
5:24.092   116673,),0,0,2
5:27.736   117985,(,0,0,0
5:27.800   118008,p,0,0,0
5:27.881   118037,),0,0,0
5:27.900   118044,(,0,0,1
5:28.000   118080,N,0,0,0
5:28.083   118110,),0,0,1
5:28.742   118347,(,0,0,2
5:28.781   118361,t,0,0,0
5:28.831   118379,),0,0,2
5:30.106   118838,(,0,0,0
5:30.172   118862,p,0,0,0
5:30.244   118888,),0,0,0
5:30.275   118899,(,0,0,1
5:30.367   118932,N,0,0,0
5:30.447   118961,),0,0,1
5:31.111   119200,(,0,0,2
5:31.147   119213,t,0,0,0
5:31.200   119232,),0,0,2
5:32.525   119709,(,0,0,0
5:32.586   119731,p,0,0,0
5:32.656   119756,),0,0,0
5:32.686   119767,(,0,0,1
5:32.778   119800,N,0,0,0
5:32.856   119828,),0,0,1
5:33.511   120064,(,0,0,2
5:33.547   120077,t,0,0,0
5:33.597   120095,),0,0,2
5:34.919   120571,(,0,0,0
5:34.975   120591,p,0,0,0
5:35.056   120620,),0,0,0
5:35.072   120626,(,0,0,1
5:35.164   120659,N,0,0,0
5:35.244   120688,),0,0,1
5:35.928   120934,(,0,0,2
5:35.964   120947,t,0,0,0
5:36.017   120966,),0,0,2
5:37.297   121427,(,0,0,0
5:37.372   121454,p,0,0,0
5:37.447   121481,),0,0,0
5:37.558   121521,(,0,0,1
5:37.650   121554,N,0,0,0
5:37.733   121584,),0,0,1
5:38.331   121799,(,0,0,2
5:38.369   121813,t,0,0,0
5:38.422   121832,),0,0,2
5:39.697   122291,(,0,0,0
5:39.767   122316,p,0,0,0
5:39.831   122339,),0,0,0
5:39.953   122383,(,0,0,1
5:40.042   122415,N,0,0,0
5:40.119   122443,),0,0,1
5:40.700   122652,(,0,0,2
5:40.736   122665,t,0,0,0
5:40.789   122684,),0,0,2
5:41.553   122959,(,0,0,1
5:41.650   122994,N,0,0,0
5:41.742   123027,),0,0,1
5:45.089   124232,(,0,0,0
5:45.153   124255,p,0,0,0
5:45.225   124281,),0,0,0
5:45.250   124290,(,0,0,1
5:45.344   124324,N,0,0,0
5:45.428   124354,),0,0,1
5:46.092   124593,(,0,0,2
5:46.128   124606,t,0,0,0
5:46.178   124624,),0,0,2
5:47.492   125097,(,0,0,0
5:47.553   125119,p,0,0,0
5:47.633   125148,),0,0,0
5:47.650   125154,(,0,0,1
5:47.742   125187,N,0,0,0
5:47.822   125216,),0,0,1
5:48.503   125461,(,0,0,2
5:48.542   125475,t,0,0,0
5:48.589   125492,),0,0,2
5:49.933   125976,(,0,0,0
5:49.983   125994,p,0,0,0
5:50.058   126021,),0,0,0
5:50.086   126031,(,0,0,1
5:50.181   126065,N,0,0,0
5:50.264   126095,),0,0,1
5:50.933   126336,(,0,0,2
5:50.969   126349,t,0,0,0
5:51.022   126368,),0,0,2
5:53.528   127270,(,0,0,0
5:53.594   127294,p,0,0,0
5:53.664   127319,),0,0,0
5:53.692   127329,(,0,0,1
5:53.786   127363,N,0,0,0
5:53.861   127390,),0,0,1
5:54.522   127628,(,0,0,2
5:54.558   127641,t,0,0,0
5:54.608   127659,),0,0,2
5:55.906   128126,(,0,0,0
5:55.981   128153,p,0,0,0
5:56.050   128178,),0,0,0
5:56.083   128190,(,0,0,1
5:56.178   128224,N,0,0,0
5:56.258   128253,),0,0,1
5:56.919   128491,(,0,0,2
5:56.956   128504,t,0,0,0
5:57.008   128523,),0,0,2
5:58.297   128987,(,0,0,0
5:58.361   129010,p,0,0,0
5:58.433   129036,),0,0,0
5:58.472   129050,(,0,0,1
5:58.567   129084,N,0,0,0
5:58.653   129115,),0,0,1
5:59.317   129354,(,0,0,2
5:59.356   129368,t,0,0,0
5:59.408   129387,),0,0,2
6:00.697   129851,(,0,0,0
6:00.756   129872,p,0,0,0
6:00.825   129897,),0,0,0
6:00.856   129908,(,0,0,1
6:00.953   129943,N,0,0,0
6:01.036   129973,),0,0,1
6:01.678   130204,(,0,0,2
6:01.717   130218,t,0,0,0
6:01.767   130236,),0,0,2
6:10.119   133243,(,0,0,0
6:10.178   133264,p,0,0,0
6:10.244   133288,),0,0,0
6:10.281   133301,(,0,0,1
6:10.378   133336,N,0,0,0
6:10.458   133365,),0,0,1
6:11.097   133595,(,0,0,2
6:11.133   133608,t,0,0,0
6:11.183   133626,),0,0,2
6:12.506   134102,(,0,0,0
6:12.561   134122,p,0,0,0
6:12.631   134147,),0,0,0
6:12.669   134161,(,0,0,1
6:12.761   134194,N,0,0,0
6:12.839   134222,),0,0,1
6:13.489   134456,(,0,0,2
6:13.525   134469,t,0,0,0
6:13.575   134487,),0,0,2
6:14.867   134952,(,0,0,0
6:14.922   134972,p,0,0,0
6:14.994   134998,),0,0,0
6:15.022   135008,(,0,0,1
6:15.119   135043,N,0,0,0
6:15.197   135071,),0,0,1
6:15.858   135309,(,0,0,2
6:15.897   135323,t,0,0,0
6:15.947   135341,),0,0,2
6:17.258   135813,(,0,0,0
6:17.311   135832,p,0,0,0
6:17.383   135858,),0,0,0
6:17.419   135871,(,0,0,1
6:17.514   135905,N,0,0,0
6:17.594   135934,),0,0,1
6:18.231   136163,(,0,0,2
6:18.269   136177,t,0,0,0
6:18.322   136196,),0,0,2
6:19.642   136671,(,0,0,0
6:19.697   136691,p,0,0,0
6:19.769   136717,),0,0,0
6:19.794   136726,(,0,0,1
6:19.900   136764,N,0,0,0
6:19.986   136795,),0,0,1
6:20.625   137025,(,0,0,2
6:20.661   137038,t,0,0,0
6:20.714   137057,),0,0,2
6:22.008   137523,(,0,0,0
6:22.064   137543,p,0,0,0
6:22.133   137568,),0,0,0
6:22.167   137580,(,0,0,1
6:22.264   137615,N,0,0,0
6:22.347   137645,),0,0,1
6:23.006   137882,(,0,0,2
6:23.047   137897,t,0,0,0
6:23.100   137916,),0,0,2
6:24.411   138388,(,0,0,0
6:24.472   138410,p,0,0,0
6:24.542   138435,),0,0,0
6:24.558   138441,(,0,0,1
6:24.656   138476,N,0,0,0
6:24.733   138504,),0,0,1
6:25.403   138745,(,0,0,2
6:25.442   138759,t,0,0,0
6:25.494   138778,),0,0,2
6:26.828   139258,(,0,0,0
6:26.881   139277,p,0,0,0
6:26.956   139304,),0,0,0
6:26.981   139313,(,0,0,1
6:27.075   139347,N,0,0,0
6:27.156   139376,),0,0,1
6:27.814   139613,(,0,0,2
6:27.850   139626,t,0,0,0
6:27.900   139644,),0,0,2
6:31.553   140959,(,0,0,0
6:31.617   140982,p,0,0,0
6:31.689   141008,),0,0,0
6:31.717   141018,(,0,0,1
6:31.808   141051,N,0,0,0
6:31.889   141080,),0,0,1
6:32.561   141322,(,0,0,2
6:32.600   141336,t,0,0,0
6:32.656   141356,),0,0,2
6:33.953   141823,(,0,0,0
6:34.006   141842,p,0,0,0
6:34.078   141868,),0,0,0
6:34.106   141878,(,0,0,1
6:34.194   141910,N,0,0,0
6:34.269   141937,),0,0,1
6:34.917   142170,(,0,0,2
6:34.953   142183,t,0,0,0
6:35.008   142203,),0,0,2
6:36.303   142669,(,0,0,0
6:36.364   142691,p,0,0,0
6:36.433   142716,),0,0,0
6:36.456   142724,(,0,0,1
6:36.547   142757,N,0,0,0
6:36.631   142787,),0,0,1
6:37.300   143028,(,0,0,2
6:37.336   143041,t,0,0,0
6:37.386   143059,),0,0,2
6:38.692   143529,(,0,0,0
6:38.742   143547,p,0,0,0
6:38.814   143573,),0,0,0
6:38.844   143584,(,0,0,1
6:38.942   143619,N,0,0,0
6:39.025   143649,),0,0,1
6:39.169   143701,(,0,0,2
6:39.489   143816,t,0,0,1
6:39.742   143907,),0,0,2
6:45.283   145902,(,0,0,0
6:45.344   145924,p,0,0,0
6:45.414   145949,),0,0,0
6:45.456   145964,(,0,0,1
6:45.544   145996,N,0,0,0
6:45.628   146026,),0,0,1
6:46.294   146266,(,0,0,2
6:46.333   146280,t,0,0,0
6:46.386   146299,),0,0,2
6:46.500   146340,(,0,0,0
6:46.569   146365,p,0,0,0
6:46.642   146391,),0,0,0
6:46.764   146435,(,0,0,1
6:46.875   146475,N,0,0,0
6:46.956   146504,),0,0,1
6:47.086   146551,(,0,0,0
6:47.147   146573,p,0,0,0
6:47.183   146586,),0,0,0
6:47.203   146593,(,0,0,1
6:47.297   146627,N,0,0,0
6:47.383   146658,),0,0,1
6:47.519   146707,(,0,0,2
6:47.864   146831,t,0,0,1
6:48.144   146932,),0,0,2
6:48.308   146991,(,0,0,0
6:48.372   147014,p,0,0,0
6:48.453   147043,),0,0,0
6:48.489   147056,(,0,0,1
6:48.581   147089,N,0,0,0
6:48.664   147119,),0,0,1
6:49.322   147356,(,0,0,2
6:49.361   147370,t,0,0,0
6:49.414   147389,),0,0,2
6:49.528   147430,(,0,0,0
6:49.594   147454,p,0,0,0
6:49.672   147482,),0,0,0
6:49.797   147527,(,0,0,1
6:49.897   147563,N,0,0,0
6:49.975   147591,),0,0,1
6:50.564   147803,(,0,0,2
6:50.603   147817,t,0,0,0
6:50.656   147836,),0,0,2
6:51.361   148090,(,0,0,0
6:51.422   148112,p,0,0,0
6:51.489   148136,),0,0,0
6:51.525   148149,(,0,0,1
6:51.619   148183,N,0,0,0
6:51.703   148213,),0,0,1
6:52.364   148451,(,0,0,2
6:52.400   148464,t,0,0,0
6:52.453   148483,),0,0,2
6:52.625   148545,(,0,0,0
6:52.631   148547,p,0,0,0
6:52.708   148575,),0,0,0
6:52.828   148618,(,0,0,1
6:52.928   148654,N,0,0,0
6:53.011   148684,),0,0,1
6:53.589   148892,(,0,0,2
6:53.628   148906,t,0,0,0
6:53.681   148925,),0,0,2
6:54.967   149388,(,0,0,0
6:55.042   149415,p,0,0,0
6:55.106   149438,),0,0,0
6:55.228   149482,(,0,0,1
6:55.336   149521,N,0,0,0
6:55.417   149550,),0,0,1
6:55.975   149751,(,0,0,2
6:56.011   149764,t,0,0,0
6:56.061   149782,),0,0,2
6:56.850   150066,(,0,0,0
6:56.908   150087,p,0,0,0
6:56.989   150116,),0,0,0
6:57.031   150131,(,0,0,1
6:57.122   150164,N,0,0,0
6:57.214   150197,),0,0,1
6:57.500   150300,(,0,0,2
6:57.531   150311,t,0,0,5
6:57.586   150331,t,0,0,5
6:57.681   150365,),0,0,2
6:58.558   150681,(,0,0,0
6:58.628   150706,p,0,0,0
6:58.703   150733,),0,0,0
6:58.744   150748,(,0,0,1
6:58.842   150783,N,0,0,0
6:58.917   150810,),0,0,1
6:59.581   151049,(,0,0,2
6:59.619   151063,t,0,0,0
6:59.669   151081,),0,0,2
7:04.014   152645,(,0,0,0
7:04.064   152663,p,0,0,0
7:04.133   152688,),0,0,0
7:04.181   152705,(,0,0,1
7:04.275   152739,N,0,0,0
7:04.356   152768,),0,0,1
7:04.969   152989,(,0,0,2
7:05.008   153003,t,0,0,0
7:05.061   153022,),0,0,2
7:06.342   153483,(,0,0,0
7:06.400   153504,p,0,0,0
7:06.475   153531,),0,0,0
7:06.619   153583,(,0,0,1
7:06.711   153616,N,0,0,0
7:06.792   153645,),0,0,1
7:07.050   153738,(,0,0,2
7:07.083   153750,t,0,0,5
7:07.139   153770,t,0,0,5
7:07.228   153802,),0,0,2
7:08.111   154120,(,0,0,0
7:08.169   154141,p,0,0,0
7:08.253   154171,),0,0,0
7:08.267   154176,(,0,0,1
7:08.367   154212,N,0,0,0
7:08.439   154238,),0,0,1
7:09.092   154473,(,0,0,2
7:09.131   154487,t,0,0,0
7:09.186   154507,),0,0,2
7:18.628   157906,(,0,0,0
7:18.678   157924,p,0,0,0
7:18.747   157949,),0,0,0
7:18.850   157986,(,0,0,1
7:18.947   158021,N,0,0,0
7:19.025   158049,),0,0,1
7:19.556   158240,(,0,0,2
7:19.592   158253,t,0,0,0
7:19.642   158271,),0,0,2
7:20.336   158521,(,0,0,0
7:20.408   158547,p,0,0,0
7:20.481   158573,),0,0,0
7:20.506   158582,(,0,0,1
7:20.594   158614,N,0,0,0
7:20.675   158643,),0,0,1
7:21.303   158869,(,0,0,2
7:21.342   158883,t,0,0,0
7:21.392   158901,),0,0,2
7:27.328   161038,(,0,0,0
7:27.392   161061,p,0,0,0
7:27.458   161085,),0,0,0
7:27.492   161097,(,0,0,1
7:27.583   161130,N,0,0,0
7:27.664   161159,),0,0,1
7:28.294   161386,(,0,0,2
7:28.331   161399,t,0,0,0
7:28.378   161416,),0,0,2
7:30.778   162280,(,0,0,0
7:30.872   162314,p,0,0,0
7:30.942   162339,),0,0,0
7:31.067   162384,(,0,0,1
7:31.175   162423,N,0,0,0
7:31.256   162452,),0,0,1
7:31.372   162494,(,0,0,2
7:31.439   162518,t,0,0,0
7:31.500   162540,),0,0,2
7:31.522   162548,(,0,0,0
7:31.617   162582,p,0,0,0
7:31.692   162609,),0,0,0
7:31.736   162625,(,0,0,1
7:31.814   162653,N,0,0,0
7:31.864   162671,),0,0,1
7:32.392   162861,(,0,0,2
7:32.431   162875,t,0,0,0
7:32.478   162892,),0,0,2
7:34.983   163794,(,0,0,0
7:35.039   163814,p,0,0,0
7:35.106   163838,),0,0,0
7:35.133   163848,(,0,0,1
7:35.225   163881,N,0,0,0
7:35.303   163909,),0,0,1
7:35.956   164144,(,0,0,2
7:35.992   164157,t,0,0,0
7:36.044   164176,),0,0,2
7:36.139   164210,(,0,0,0
7:36.225   164241,p,0,0,0
7:36.300   164268,),0,0,0
7:36.414   164309,(,0,0,1
7:36.492   164337,N,0,0,0
7:36.564   164363,),0,0,1
7:37.169   164581,(,0,0,2
7:37.208   164595,t,0,0,0
7:37.258   164613,),0,0,2
7:39.761   165514,(,0,0,0
7:39.817   165534,p,0,0,0
7:39.892   165561,),0,0,0
7:39.914   165569,(,0,0,1
7:40.014   165605,N,0,0,0
7:40.094   165634,),0,0,1
7:40.328   165718,),0,0,2
7:40.553   165799,t,0,0,0
7:40.778   165880,(,0,0,2
7:42.158   166377,(,0,0,0
7:42.219   166399,p,0,0,0
7:42.292   166425,),0,0,0
7:42.314   166433,(,0,0,1
7:42.419   166471,N,0,0,0
7:42.500   166500,),0,0,1
7:43.169   166741,(,0,0,2
7:43.208   166755,t,0,0,0
7:43.258   166773,),0,0,2
7:44.600   167256,(,0,0,0
7:44.656   167276,p,0,0,0
7:44.728   167302,),0,0,0
7:44.742   167307,(,0,0,1
7:44.850   167346,N,0,0,0
7:44.936   167377,),0,0,1
7:45.078   167428,(,0,0,2
7:45.469   167569,t,0,0,1
7:45.653   167635,),0,0,2
7:49.497   169019,(,0,0,0
7:49.553   169039,p,0,0,0
7:49.619   169063,),0,0,0
7:49.650   169074,(,0,0,1
7:49.750   169110,N,0,0,0
7:49.831   169139,),0,0,1
7:50.481   169373,(,0,0,2
7:50.517   169386,t,0,0,0
7:50.569   169405,),0,0,2
7:51.894   169882,(,0,0,0
7:51.964   169907,p,0,0,0
7:52.031   169931,),0,0,0
7:52.061   169942,(,0,0,1
7:52.156   169976,N,0,0,0
7:52.233   170004,),0,0,1
7:52.883   170238,(,0,0,2
7:52.917   170250,t,0,0,0
7:52.964   170267,),0,0,2
7:54.275   170739,(,0,0,0
7:54.333   170760,p,0,0,0
7:54.414   170789,),0,0,0
7:54.436   170797,(,0,0,1
7:54.525   170829,N,0,0,0
7:54.603   170857,),0,0,1
7:55.261   171094,(,0,0,2
7:55.300   171108,t,0,0,0
7:55.347   171125,),0,0,2
7:56.628   171586,(,0,0,0
7:56.692   171609,p,0,0,0
7:56.764   171635,),0,0,0
7:56.806   171650,(,0,0,1
7:56.897   171683,N,0,0,0
7:56.978   171712,),0,0,1
7:57.603   171937,(,0,0,2
7:57.642   171951,t,0,0,0
7:57.692   171969,),0,0,2
8:01.392   173301,(,0,0,0
8:01.453   173323,p,0,0,0
8:01.519   173347,),0,0,0
8:01.550   173358,(,0,0,1
8:01.644   173392,N,0,0,0
8:01.725   173421,),0,0,1
8:02.367   173652,(,0,0,2
8:02.403   173665,t,0,0,0
8:02.453   173683,),0,0,2
8:03.747   174149,(,0,0,0
8:03.800   174168,p,0,0,0
8:03.872   174194,),0,0,0
8:03.906   174206,(,0,0,1
8:03.994   174238,N,0,0,0
8:04.075   174267,),0,0,1
8:04.717   174498,(,0,0,2
8:04.756   174512,t,0,0,0
8:04.806   174530,),0,0,2
8:06.097   174995,(,0,0,0
8:06.153   175015,p,0,0,0
8:06.228   175042,),0,0,0
8:06.250   175050,(,0,0,1
8:06.344   175084,N,0,0,0
8:06.425   175113,),0,0,1
8:07.056   175340,(,0,0,2
8:07.094   175354,t,0,0,0
8:07.144   175372,),0,0,2
8:10.806   176690,(,0,0,0
8:10.861   176710,p,0,0,0
8:10.933   176736,),0,0,0
8:10.975   176751,(,0,0,1
8:11.069   176785,N,0,0,0
8:11.153   176815,),0,0,1
8:11.794   177046,(,0,0,2
8:11.833   177060,t,0,0,0
8:11.883   177078,),0,0,2
8:13.136   177529,(,0,0,0
8:13.231   177563,p,0,0,0
8:13.267   177576,),0,0,0
8:13.347   177605,(,0,0,1
8:13.436   177637,N,0,0,0
8:13.525   177669,),0,0,1
8:14.167   177900,(,0,0,2
8:14.203   177913,t,0,0,0
8:14.253   177931,),0,0,2
8:14.367   177972,(,0,0,0
8:14.431   177995,p,0,0,0
8:14.511   178024,),0,0,0
8:14.514   178025,(,0,0,1
8:14.622   178064,N,0,0,0
8:14.706   178094,),0,0,1
8:15.375   178335,(,0,0,2
8:15.411   178348,t,0,0,0
8:15.461   178366,),0,0,2
8:17.936   179257,(,0,0,0
8:17.983   179274,p,0,0,0
8:18.050   179298,),0,0,0
8:18.086   179311,(,0,0,1
8:18.186   179347,N,0,0,0
8:18.267   179376,),0,0,1
8:18.911   179608,(,0,0,2
8:18.947   179621,t,0,0,0
8:18.997   179639,),0,0,2
8:20.283   180102,(,0,0,0
8:20.328   180118,p,0,0,0
8:20.403   180145,),0,0,0
8:20.425   180153,(,0,0,1
8:20.522   180188,N,0,0,0
8:20.603   180217,),0,0,1
8:21.253   180451,(,0,0,2
8:21.294   180466,t,0,0,0
8:21.344   180484,),0,0,2
8:22.667   180960,(,0,0,0
8:22.708   180975,p,0,0,0
8:22.781   181001,),0,0,0
8:22.817   181014,(,0,0,1
8:22.908   181047,N,0,0,0
8:22.989   181076,),0,0,1
8:23.617   181302,(,0,0,2
8:23.656   181316,t,0,0,0
8:23.703   181333,),0,0,2
8:25.028   181810,(,0,0,0
8:25.064   181823,p,0,0,0
8:25.136   181849,),0,0,0
8:25.147   181853,(,0,0,1
8:25.264   181895,N,0,0,0
8:25.347   181925,),0,0,1
8:26.006   182162,(,0,0,2
8:26.042   182175,t,0,0,0
8:26.089   182192,),0,0,2
8:27.361   182650,(,0,0,0
8:27.422   182672,p,0,0,0
8:27.494   182698,),0,0,0
8:27.536   182713,(,0,0,1
8:27.631   182747,N,0,0,0
8:27.711   182776,),0,0,1
8:28.369   183013,(,0,0,2
8:28.406   183026,t,0,0,0
8:28.456   183044,),0,0,2
8:29.722   183500,(,0,0,0
8:29.781   183521,p,0,0,0
8:29.847   183545,),0,0,0
8:29.883   183558,(,0,0,1
8:29.981   183593,N,0,0,0
8:30.058   183621,),0,0,1
8:30.697   183851,(,0,0,2
8:30.736   183865,t,0,0,0
8:30.786   183883,),0,0,2
8:32.069   184345,(,0,0,0
8:32.136   184369,p,0,0,0
8:32.208   184395,),0,0,0
8:32.236   184405,(,0,0,1
8:32.347   184445,N,0,0,0
8:32.428   184474,),0,0,1
8:32.644   184552,(,0,0,2
8:32.689   184568,t,0,0,1
8:32.742   184587,),0,0,2
8:34.994   185398,(,0,0,0
8:35.042   185415,p,0,0,0
8:35.122   185444,),0,0,0
8:35.156   185456,(,0,0,1
8:35.256   185492,N,0,0,0
8:35.331   185519,),0,0,1
8:35.983   185754,(,0,0,2
8:36.022   185768,t,0,0,0
8:36.072   185786,),0,0,2
8:37.361   186250,(,0,0,0
8:37.431   186275,p,0,0,0
8:37.506   186302,),0,0,0
8:37.542   186315,(,0,0,1
8:37.633   186348,N,0,0,0
8:37.711   186376,),0,0,1
8:38.347   186605,(,0,0,2
8:38.386   186619,t,0,0,0
8:38.436   186637,),0,0,2
8:39.744   187108,(,0,0,0
8:39.814   187133,p,0,0,0
8:39.881   187157,),0,0,0
8:39.919   187171,(,0,0,1
8:40.011   187204,N,0,0,0
8:40.092   187233,),0,0,1
8:40.739   187466,(,0,0,2
8:40.775   187479,t,0,0,0
8:40.825   187497,),0,0,2
8:42.158   187977,(,0,0,0
8:42.208   187995,p,0,0,0
8:42.278   188020,),0,0,0
8:42.303   188029,(,0,0,1
8:42.403   188065,N,0,0,0
8:42.483   188094,),0,0,1
8:43.131   188327,(,0,0,2
8:43.167   188340,t,0,0,0
8:43.217   188358,),0,0,2
8:44.531   188831,(,0,0,0
8:44.586   188851,p,0,0,0
8:44.653   188875,),0,0,0
8:44.683   188886,(,0,0,1
8:44.775   188919,N,0,0,0
8:44.853   188947,),0,0,1
8:45.511   189184,(,0,0,2
8:45.550   189198,t,0,0,0
8:45.600   189216,),0,0,2
8:48.714   190337,(,0,0,0
8:48.775   190359,p,0,0,0
8:48.842   190383,),0,0,0
8:48.872   190394,(,0,0,1
8:48.969   190429,N,0,0,0
8:49.050   190458,),0,0,1
8:49.700   190692,(,0,0,2
8:49.739   190706,t,0,0,0
8:49.789   190724,),0,0,2
8:51.072   191186,(,0,0,0
8:51.136   191209,p,0,0,0
8:51.206   191234,),0,0,0
8:51.242   191247,(,0,0,1
8:51.333   191280,N,0,0,0
8:51.414   191309,),0,0,1
8:52.064   191543,(,0,0,2
8:52.103   191557,t,0,0,0
8:52.156   191576,),0,0,2
8:53.464   192047,(,0,0,0
8:53.517   192066,p,0,0,0
8:53.586   192091,),0,0,0
8:53.628   192106,(,0,0,1
8:53.719   192139,N,0,0,0
8:53.797   192167,),0,0,1
8:54.431   192395,(,0,0,2
8:54.469   192409,t,0,0,0
8:54.519   192427,),0,0,2
8:57.006   193322,(,0,0,0
8:57.094   193354,p,0,0,0
8:57.169   193381,),0,0,0
8:57.281   193421,(,0,0,1
8:57.375   193455,N,0,0,0
8:57.453   193483,),0,0,1
8:58.028   193690,(,0,0,2
8:58.064   193703,t,0,0,0
8:58.114   193721,),0,0,2
8:59.406   194186,(,0,0,0
8:59.489   194216,p,0,0,0
8:59.561   194242,),0,0,0
8:59.683   194286,(,0,0,1
8:59.761   194314,N,0,0,0
8:59.842   194343,),0,0,1
9:00.425   194553,(,0,0,2
9:00.467   194568,t,0,0,0
9:00.517   194586,),0,0,2
9:01.811   195052,(,0,0,0
9:01.872   195074,p,0,0,0
9:01.947   195101,),0,0,0
9:02.061   195142,(,0,0,1
9:02.156   195176,N,0,0,0
9:02.236   195205,),0,0,1
9:02.356   195248,(,0,0,2
9:02.425   195273,t,0,0,0
9:02.489   195296,),0,0,2
9:02.661   195358,(,0,0,1
9:02.794   195406,N,0,0,0
9:02.883   195438,),0,0,1
9:03.414   195629,(,0,0,2
9:03.450   195642,t,0,0,0
9:03.497   195659,),0,0,2
9:11.842   198663,(,0,0,0
9:11.908   198687,p,0,0,0
9:11.978   198712,),0,0,0
9:12.006   198722,(,0,0,1
9:12.106   198758,N,0,0,0
9:12.186   198787,),0,0,1
9:12.847   199025,(,0,0,2
9:12.886   199039,t,0,0,0
9:12.939   199058,),0,0,2
9:14.231   199523,(,0,0,0
9:14.283   199542,p,0,0,0
9:14.347   199565,),0,0,0
9:14.389   199580,(,0,0,1
9:14.481   199613,N,0,0,0
9:14.561   199642,),0,0,1
9:15.211   199876,(,0,0,2
9:15.247   199889,t,0,0,0
9:15.300   199908,),0,0,2
9:16.589   200372,(,0,0,0
9:16.675   200403,p,0,0,0
9:16.742   200427,),0,0,0
9:16.861   200470,(,0,0,1
9:16.942   200499,N,0,0,0
9:17.019   200527,),0,0,1
9:17.589   200732,(,0,0,2
9:17.625   200745,t,0,0,0
9:17.678   200764,),0,0,2
9:18.919   201211,(,0,0,0
9:18.986   201235,p,0,0,0
9:19.053   201259,),0,0,0
9:19.167   201300,(,0,0,1
9:19.256   201332,N,0,0,0
9:19.331   201359,),0,0,1
9:19.906   201566,(,0,0,2
9:19.944   201580,t,0,0,0
9:19.997   201599,),0,0,2
9:21.253   202051,(,0,0,0
9:21.311   202072,p,0,0,0
9:21.381   202097,),0,0,0
9:21.478   202132,(,0,0,1
9:21.575   202167,N,0,0,0
9:21.653   202195,),0,0,1
9:22.222   202400,(,0,0,2
9:22.261   202414,t,0,0,0
9:22.311   202432,),0,0,2
9:23.614   202901,(,0,0,0
9:23.664   202919,p,0,0,0
9:23.731   202943,),0,0,0
9:23.839   202982,(,0,0,1
9:23.936   203017,N,0,0,0
9:24.014   203045,),0,0,1
9:24.128   203086,(,0,0,2
9:24.203   203113,t,0,0,0
9:24.264   203135,),0,0,2
9:24.433   203196,(,0,0,1
9:24.556   203240,N,0,0,0
9:24.639   203270,),0,0,1
9:25.175   203463,(,0,0,2
9:25.214   203477,t,0,0,0
9:25.264   203495,),0,0,2
9:27.736   204385,(,0,0,0
9:27.792   204405,p,0,0,0
9:27.867   204432,),0,0,0
9:27.906   204446,(,0,0,1
9:28.000   204480,N,0,0,0
9:28.081   204509,),0,0,1
9:28.703   204733,(,0,0,2
9:28.742   204747,t,0,0,0
9:28.792   204765,),0,0,2
9:29.164   204899,(,0,0,0
9:29.219   204919,p,0,0,0
9:29.247   204929,),0,0,0
9:29.261   204934,(,0,0,1
9:29.319   204955,N,0,0,0
9:29.386   204979,),0,0,1
9:29.458   205005,(,0,0,0
9:29.511   205024,p,0,0,0
9:29.592   205053,),0,0,0
9:29.597   205055,(,0,0,1
9:29.711   205096,N,0,0,0
9:29.794   205126,),0,0,1
9:29.822   205136,(,0,0,2
9:29.911   205168,t,0,0,0
9:30.017   205206,),0,0,2
9:30.372   205334,(,0,0,0
9:30.417   205350,p,0,0,0
9:30.472   205370,),0,0,0
9:30.506   205382,(,0,0,1
9:30.550   205398,N,0,0,0
9:30.583   205410,),0,0,1
9:30.681   205445,(,0,0,2
9:30.767   205476,t,0,0,1
9:30.853   205507,),0,0,2
9:30.950   205542,(,0,0,0
9:31.006   205562,p,0,0,0
9:31.056   205580,),0,0,0
9:31.100   205596,(,0,0,1
9:31.144   205612,N,0,0,0
9:31.178   205624,),0,0,1
9:31.283   205662,(,0,0,2
9:31.347   205685,t,0,0,1
9:31.422   205712,),0,0,2
9:31.542   205755,(,0,0,0
9:31.592   205773,p,0,0,0
9:31.644   205792,),0,0,0
9:31.689   205808,(,0,0,1
9:31.733   205824,N,0,0,0
9:31.769   205837,),0,0,1
9:31.819   205855,t,0,0,3
9:31.942   205899,),0,0,2
9:32.058   205941,(,0,0,1
9:32.150   205974,N,0,0,0
9:32.228   206002,),0,0,1
9:32.247   206009,(,0,0,2
9:32.353   206047,t,0,0,0
9:32.464   206087,),0,0,2
9:32.742   206187,(,0,0,0
9:32.792   206205,p,0,0,0
9:32.844   206224,),0,0,0
9:32.883   206238,(,0,0,1
9:32.925   206253,N,0,0,0
9:32.961   206266,),0,0,1
9:33.058   206301,(,0,0,2
9:33.147   206333,t,0,0,1
9:33.239   206366,),0,0,2
9:33.350   206406,(,0,0,0
9:33.400   206424,p,0,0,0
9:33.453   206443,),0,0,0
9:33.497   206459,(,0,0,1
9:33.542   206475,N,0,0,0
9:33.578   206488,),0,0,1
9:33.692   206529,(,0,0,2
9:33.756   206552,t,0,0,1
9:33.839   206582,),0,0,2
9:33.958   206625,(,0,0,0
9:34.008   206643,p,0,0,0
9:34.064   206663,),0,0,0
9:34.103   206677,(,0,0,1
9:34.144   206692,N,0,0,0
9:34.181   206705,),0,0,1
9:34.247   206729,t,0,0,3
9:34.347   206765,),0,0,2
9:34.450   206802,(,0,0,1
9:34.550   206838,N,0,0,0
9:34.633   206868,),0,0,1
9:34.669   206881,(,0,0,2
9:34.758   206913,t,0,0,0
9:34.869   206953,),0,0,2
9:35.167   207060,(,0,0,0
9:35.208   207075,p,0,0,0
9:35.258   207093,),0,0,0
9:35.297   207107,(,0,0,1
9:35.336   207121,N,0,0,0
9:35.372   207134,),0,0,1
9:35.478   207172,(,0,0,2
9:35.564   207203,t,0,0,1
9:35.656   207236,),0,0,2
9:35.758   207273,(,0,0,1
9:35.831   207299,N,0,0,0
9:35.906   207326,),0,0,1
9:36.033   207372,(,0,0,2
9:36.108   207399,t,0,0,0
9:36.172   207422,),0,0,2
9:36.397   207503,(,0,0,0
9:36.442   207519,p,0,0,0
9:36.497   207539,),0,0,0
9:36.539   207554,(,0,0,1
9:36.581   207569,N,0,0,0
9:36.614   207581,),0,0,1
9:36.719   207619,(,0,0,2
9:36.803   207649,t,0,0,1
9:36.883   207678,),0,0,2
9:37.000   207720,(,0,0,0
9:37.053   207739,p,0,0,0
9:37.106   207758,),0,0,0
9:37.150   207774,(,0,0,1
9:37.194   207790,N,0,0,0
9:37.233   207804,),0,0,1
9:37.328   207838,(,0,0,2
9:37.400   207864,t,0,0,1
9:37.478   207892,),0,0,2
9:37.597   207935,(,0,0,0
9:37.647   207953,p,0,0,0
9:37.697   207971,),0,0,0
9:37.739   207986,(,0,0,1
9:37.783   208002,N,0,0,0
9:37.817   208014,),0,0,1
9:37.919   208051,(,0,0,2
9:37.989   208076,t,0,0,1
9:38.069   208105,),0,0,2
9:38.178   208144,(,0,0,1
9:38.242   208167,N,0,0,0
9:38.319   208195,),0,0,1
9:38.436   208237,(,0,0,2
9:38.508   208263,t,0,0,0
9:38.567   208284,),0,0,2
9:38.794   208366,(,0,0,0
9:38.844   208384,p,0,0,0
9:38.897   208403,),0,0,0
9:38.936   208417,(,0,0,1
9:38.978   208432,N,0,0,0
9:39.014   208445,),0,0,1
9:39.119   208483,(,0,0,2
9:39.192   208509,t,0,0,1
9:39.278   208540,),0,0,2
9:39.389   208580,(,0,0,0
9:39.444   208600,p,0,0,0
9:39.497   208619,),0,0,0
9:39.542   208635,(,0,0,1
9:39.586   208651,N,0,0,0
9:39.622   208664,),0,0,1
9:39.728   208702,(,0,0,2
9:39.797   208727,t,0,0,1
9:39.872   208754,),0,0,2
9:40.003   208801,(,0,0,0
9:40.050   208818,p,0,0,0
9:40.103   208837,),0,0,0
9:40.147   208853,(,0,0,1
9:40.192   208869,N,0,0,0
9:40.231   208883,),0,0,1
9:40.339   208922,(,0,0,2
9:40.408   208947,t,0,0,1
9:40.489   208976,),0,0,2
9:40.600   209016,(,0,0,1
9:40.664   209039,N,0,0,0
9:40.742   209067,),0,0,1
9:40.781   209081,(,0,0,2
9:40.836   209101,t,0,0,4
9:40.928   209134,t,0,0,4
9:40.981   209153,),0,0,2
9:41.203   209233,(,0,0,0
9:41.250   209250,p,0,0,0
9:41.303   209269,),0,0,0
9:41.347   209285,(,0,0,1
9:41.392   209301,N,0,0,0
9:41.425   209313,),0,0,1
9:41.533   209352,(,0,0,2
9:41.603   209377,t,0,0,1
9:41.689   209408,),0,0,2
9:41.811   209452,(,0,0,0
9:41.856   209468,p,0,0,0
9:41.903   209485,),0,0,0
9:41.944   209500,(,0,0,1
9:41.986   209515,N,0,0,0
9:42.019   209527,),0,0,1
9:42.117   209562,(,0,0,2
9:42.194   209590,t,0,0,1
9:42.269   209617,),0,0,2
9:42.400   209664,(,0,0,0
9:42.447   209681,p,0,0,0
9:42.500   209700,),0,0,0
9:42.542   209715,(,0,0,1
9:42.586   209731,N,0,0,0
9:42.619   209743,),0,0,1
9:42.733   209784,(,0,0,2
9:42.803   209809,t,0,0,1
9:42.883   209838,),0,0,2
9:42.997   209879,(,0,0,1
9:43.078   209908,N,0,0,0
9:43.158   209937,),0,0,1
9:43.278   209980,(,0,0,2
9:43.344   210004,t,0,0,0
9:43.406   210026,),0,0,2
9:43.597   210095,(,0,0,0
9:43.647   210113,p,0,0,0
9:43.700   210132,),0,0,0
9:43.747   210149,(,0,0,1
9:43.792   210165,N,0,0,0
9:43.828   210178,),0,0,1
9:43.933   210216,(,0,0,2
9:44.011   210244,t,0,0,1
9:44.094   210274,),0,0,2
9:44.208   210315,(,0,0,0
9:44.258   210333,p,0,0,0
9:44.311   210352,),0,0,0
9:44.353   210367,(,0,0,1
9:44.394   210382,N,0,0,0
9:44.431   210395,),0,0,1
9:44.522   210428,(,0,0,2
9:44.594   210454,t,0,0,1
9:44.669   210481,),0,0,2
9:44.806   210530,(,0,0,0
9:44.850   210546,p,0,0,0
9:44.900   210564,),0,0,0
9:44.942   210579,(,0,0,1
9:44.983   210594,N,0,0,0
9:45.017   210606,),0,0,1
9:45.128   210646,(,0,0,2
9:45.192   210669,t,0,0,1
9:45.267   210696,),0,0,2
9:45.378   210736,(,0,0,1
9:45.469   210769,N,0,0,0
9:45.547   210797,),0,0,1
9:45.594   210814,(,0,0,2
9:45.647   210833,t,0,0,4
9:45.742   210867,t,0,0,4
9:45.803   210889,),0,0,2
9:45.997   210959,(,0,0,0
9:46.042   210975,p,0,0,0
9:46.089   210992,),0,0,0
9:46.136   211009,(,0,0,1
9:46.178   211024,N,0,0,0
9:46.211   211036,),0,0,1
9:46.325   211077,(,0,0,2
9:46.406   211106,t,0,0,1
9:46.489   211136,),0,0,2
9:46.617   211182,(,0,0,0
9:46.664   211199,p,0,0,0
9:46.714   211217,),0,0,0
9:46.758   211233,(,0,0,1
9:46.803   211249,N,0,0,0
9:46.836   211261,),0,0,1
9:46.944   211300,(,0,0,2
9:47.011   211324,t,0,0,1
9:47.094   211354,),0,0,2
9:47.231   211403,(,0,0,0
9:47.275   211419,p,0,0,0
9:47.328   211438,),0,0,0
9:47.372   211454,(,0,0,1
9:47.417   211470,N,0,0,0
9:47.447   211481,),0,0,1
9:47.531   211511,(,0,0,2
9:47.617   211542,t,0,0,1
9:47.694   211570,),0,0,2
9:47.803   211609,(,0,0,1
9:47.894   211642,N,0,0,0
9:47.975   211671,),0,0,1
9:48.097   211715,(,0,0,2
9:48.169   211741,t,0,0,0
9:48.219   211759,),0,0,2
9:48.414   211829,(,0,0,1
9:48.517   211866,N,0,0,0
9:48.600   211896,),0,0,1
9:48.786   211963,(,0,0,1
9:48.858   211989,N,0,0,0
9:48.936   212017,),0,0,1
9:48.981   212033,(,0,0,2
9:49.069   212065,t,0,0,0
9:49.178   212104,),0,0,2
9:49.619   212263,(,0,0,0
9:49.672   212282,p,0,0,0
9:49.725   212301,),0,0,0
9:49.761   212314,(,0,0,1
9:49.806   212330,N,0,0,0
9:49.844   212344,),0,0,1
9:49.953   212383,(,0,0,2
9:50.042   212415,t,0,0,1
9:50.150   212454,),0,0,2
9:50.211   212476,(,0,0,1
9:50.269   212497,N,0,0,0
9:50.344   212524,),0,0,1
9:50.464   212567,(,0,0,2
9:50.536   212593,t,0,0,0
9:50.592   212613,),0,0,2
9:50.844   212704,(,0,0,0
9:50.894   212722,p,0,0,0
9:50.944   212740,),0,0,0
9:50.983   212754,(,0,0,1
9:51.028   212770,N,0,0,0
9:51.058   212781,),0,0,1
9:51.172   212822,(,0,0,2
9:51.242   212847,t,0,0,1
9:51.328   212878,),0,0,2
9:51.456   212924,(,0,0,0
9:51.500   212940,p,0,0,0
9:51.547   212957,),0,0,0
9:51.592   212973,(,0,0,1
9:51.636   212989,N,0,0,0
9:51.667   213000,),0,0,1
9:51.772   213038,(,0,0,2
9:51.836   213061,t,0,0,1
9:51.919   213091,),0,0,2
9:52.044   213136,(,0,0,0
9:52.100   213156,p,0,0,0
9:52.150   213174,),0,0,0
9:52.194   213190,(,0,0,1
9:52.236   213205,N,0,0,0
9:52.269   213217,),0,0,1
9:52.367   213252,(,0,0,2
9:52.450   213282,t,0,0,1
9:52.531   213311,),0,0,2
9:52.644   213352,(,0,0,0
9:52.692   213369,p,0,0,0
9:52.747   213389,),0,0,0
9:52.786   213403,(,0,0,1
9:52.828   213418,N,0,0,0
9:52.861   213430,),0,0,1
9:52.958   213465,(,0,0,2
9:53.039   213494,t,0,0,1
9:53.119   213523,),0,0,2
9:53.233   213564,(,0,0,0
9:53.281   213581,p,0,0,0
9:53.336   213601,),0,0,0
9:53.378   213616,(,0,0,1
9:53.422   213632,N,0,0,0
9:53.456   213644,),0,0,1
9:53.519   213667,t,0,0,3
9:53.628   213706,),0,0,2
9:53.731   213743,(,0,0,1
9:53.828   213778,N,0,0,0
9:53.908   213807,),0,0,1
9:53.939   213818,(,0,0,2
9:54.042   213855,t,0,0,0
