Elapsedtime,sample,Type,Sub,Chan,Num
0:00.844,304,(,0,0,0
0:00.886,319,p,0,0,0
0:00.933,336,),0,0,0
0:00.978,352,(,0,0,1
0:01.014,365,N,0,0,0
0:01.044,376,),0,0,1
0:01.256,452,(,0,0,2
0:01.300,468,t,0,0,0
0:01.350,486,),0,0,2
0:01.503,541,(,0,0,0
0:01.544,556,p,0,0,0
0:01.600,576,),0,0,0
0:01.644,592,(,0,0,1
0:01.681,605,N,0,0,0
0:01.708,615,),0,0,1
0:01.814,653,(,0,0,2
0:01.961,706,t,0,0,0
0:02.011,724,),0,0,2
0:02.150,774,(,0,0,0
0:02.200,792,p,0,0,0
0:02.250,810,),0,0,0
0:02.294,826,(,0,0,1
0:02.333,840,N,0,0,0
0:02.361,850,),0,0,1
0:02.469,889,(,0,0,2
0:02.633,948,t,0,0,0
0:02.678,964,),0,0,2
0:02.828,1018,(,0,0,0
0:02.867,1032,p,0,0,0
0:02.917,1050,),0,0,0
0:02.967,1068,(,0,0,1
0:03.003,1081,N,0,0,0
0:03.033,1092,),0,0,1
0:03.261,1174,(,0,0,2
0:03.306,1190,t,0,0,0
0:03.375,1215,),0,0,2
0:03.517,1266,(,0,0,0
0:03.553,1279,p,0,0,0
0:03.606,1298,),0,0,0
0:03.647,1313,(,0,0,1
0:03.683,1326,N,0,0,0
0:03.708,1335,),0,0,1
0:03.919,1411,(,0,0,2
0:03.964,1427,t,0,0,0
0:04.008,1443,),0,0,2
0:04.161,1498,(,0,0,0
0:04.203,1513,p,0,0,0
0:04.256,1532,),0,0,0
0:04.300,1548,(,0,0,1
0:04.336,1561,N,0,0,0
0:04.364,1571,),0,0,1
0:04.569,1645,(,0,0,2
0:04.614,1661,t,0,0,0
0:04.647,1673,),0,0,2
0:04.811,1732,(,0,0,0
0:04.856,1748,p,0,0,0
0:04.903,1765,),0,0,0
0:04.944,1780,(,0,0,1
0:04.983,1794,N,0,0,0
0:05.022,1808,),0,0,1
0:05.233,1884,(,0,0,2
0:05.269,1897,t,0,0,0
0:05.325,1917,),0,0,2
0:05.489,1976,(,0,0,0
0:05.531,1991,p,0,0,0
0:05.583,2010,),0,0,0
0:05.631,2027,(,0,0,1
0:05.669,2041,N,0,0,0
0:05.697,2051,),0,0,1
0:05.806,2090,(,0,0,2
0:05.978,2152,t,0,0,0
0:06.014,2165,),0,0,2
0:06.175,2223,(,0,0,0
0:06.225,2241,p,0,0,0
0:06.278,2260,),0,0,0
0:06.319,2275,(,0,0,1
0:06.356,2288,N,0,0,0
0:06.383,2298,),0,0,1
0:06.603,2377,(,0,0,2
0:06.642,2391,t,0,0,0
0:06.686,2407,),0,0,2
0:06.853,2467,(,0,0,0
0:06.892,2481,p,0,0,0
0:06.942,2499,),0,0,0
0:06.983,2514,(,0,0,1
0:07.019,2527,N,0,0,0
0:07.058,2541,),0,0,1
0:07.247,2609,(,0,0,2
0:07.294,2626,t,0,0,0
0:07.339,2642,),0,0,2
0:07.478,2692,(,0,0,0
0:07.528,2710,p,0,0,0
0:07.575,2727,),0,0,0
0:07.619,2743,(,0,0,1
0:07.661,2758,N,0,0,0
0:07.700,2772,),0,0,1
0:07.892,2841,(,0,0,2
0:07.942,2859,t,0,0,0
0:07.975,2871,),0,0,2
0:08.142,2931,(,0,0,0
0:08.181,2945,p,0,0,0
0:08.231,2963,),0,0,0
0:08.275,2979,(,0,0,1
0:08.314,2993,N,0,0,0
0:08.342,3003,),0,0,1
0:08.453,3043,(,0,0,2
0:08.600,3096,t,0,0,0
0:08.647,3113,),0,0,2
0:08.789,3164,(,0,0,0
0:08.831,3179,p,0,0,0
0:08.881,3197,),0,0,0
0:08.922,3212,(,0,0,1
0:08.961,3226,N,0,0,0
0:08.989,3236,),0,0,1
0:09.211,3316,(,0,0,2
0:09.261,3334,t,0,0,0
0:09.314,3353,),0,0,2
0:09.450,3402,(,0,0,0
0:09.492,3417,p,0,0,0
0:09.542,3435,),0,0,0
0:09.581,3449,(,0,0,1
0:09.617,3462,N,0,0,0
0:09.647,3473,),0,0,1
0:09.864,3551,(,0,0,2
0:09.914,3569,t,0,0,0
0:09.950,3582,),0,0,2
0:10.117,3642,(,0,0,0
0:10.158,3657,p,0,0,0
0:10.208,3675,),0,0,0
0:10.247,3689,(,0,0,1
0:10.286,3703,N,0,0,0
0:10.314,3713,),0,0,1
0:10.533,3792,(,0,0,2
0:10.572,3806,t,0,0,0
0:10.614,3821,),0,0,2
0:10.761,3874,(,0,0,0
0:10.806,3890,p,0,0,0
0:10.858,3909,),0,0,0
0:10.897,3923,(,0,0,1
0:10.936,3937,N,0,0,0
0:10.964,3947,),0,0,1
0:11.178,4024,(,0,0,2
0:11.222,4040,t,0,0,0
0:11.269,4057,),0,0,2
0:11.403,4105,(,0,0,0
0:11.444,4120,p,0,0,0
0:11.492,4137,),0,0,0
0:11.531,4151,(,0,0,1
0:11.569,4165,N,0,0,0
0:11.597,4175,),0,0,1
0:11.814,4253,(,0,0,2
0:11.864,4271,t,0,0,0
0:11.900,4284,),0,0,2
0:12.047,4337,(,0,0,0
0:12.092,4353,p,0,0,0
0:12.142,4371,),0,0,0
0:12.183,4386,(,0,0,1
0:12.222,4400,N,0,0,0
0:12.264,4415,),0,0,1
0:12.469,4489,(,0,0,2
0:12.525,4509,t,0,0,0
0:12.572,4526,),0,0,2
0:12.728,4582,(,0,0,0
0:12.767,4596,p,0,0,0
0:12.819,4615,),0,0,0
0:12.861,4630,(,0,0,1
0:12.903,4645,N,0,0,0
0:12.931,4655,),0,0,1
0:13.144,4732,(,0,0,2
0:13.186,4747,t,0,0,0
0:13.244,4768,),0,0,2
0:13.383,4818,(,0,0,0
0:13.422,4832,p,0,0,0
0:13.475,4851,),0,0,0
0:13.514,4865,(,0,0,1
0:13.556,4880,N,0,0,0
0:13.583,4890,),0,0,1
0:13.800,4968,(,0,0,2
0:13.847,4985,t,0,0,0
0:13.883,4998,),0,0,2
0:14.017,5046,(,0,0,0
0:14.058,5061,p,0,0,0
0:14.111,5080,),0,0,0
0:14.150,5094,(,0,0,1
0:14.186,5107,N,0,0,0
0:14.214,5117,),0,0,1
0:14.433,5196,(,0,0,2
0:14.478,5212,t,0,0,0
0:14.519,5227,),0,0,2
0:14.661,5278,(,0,0,0
0:14.700,5292,p,0,0,0
0:14.747,5309,),0,0,0
0:14.789,5324,(,0,0,1
0:14.828,5338,N,0,0,0
0:14.867,5352,),0,0,1
0:15.075,5427,(,0,0,2
0:15.117,5442,t,0,0,0
0:15.181,5465,),0,0,2
0:15.311,5512,(,0,0,0
0:15.353,5527,p,0,0,0
0:15.406,5546,),0,0,0
0:15.442,5559,(,0,0,1
0:15.475,5571,N,0,0,0
0:15.503,5581,),0,0,1
0:15.711,5656,(,0,0,2
0:15.761,5674,t,0,0,0
0:15.817,5694,),0,0,2
0:15.939,5738,(,0,0,0
0:15.989,5756,p,0,0,0
0:16.042,5775,),0,0,0
0:16.058,5781,(,0,0,1
0:16.122,5804,N,0,0,0
0:16.161,5818,),0,0,1
0:16.361,5890,(,0,0,2
0:16.408,5907,t,0,0,0
0:16.442,5919,),0,0,2
0:16.594,5974,(,0,0,0
0:16.639,5990,p,0,0,0
0:16.683,6006,),0,0,0
0:16.725,6021,(,0,0,1
0:16.767,6036,N,0,0,0
0:16.806,6050,),0,0,1
0:17.019,6127,(,0,0,2
0:17.064,6143,t,0,0,0
0:17.119,6163,),0,0,2
0:17.247,6209,(,0,0,0
0:17.289,6224,p,0,0,0
0:17.339,6242,),0,0,0
0:17.381,6257,(,0,0,1
0:17.417,6270,N,0,0,0
0:17.447,6281,),0,0,1
0:17.544,6316,(,0,0,2
0:17.708,6375,t,0,0,0
0:17.753,6391,),0,0,2
0:17.894,6442,(,0,0,0
0:17.939,6458,p,0,0,0
0:17.992,6477,),0,0,0
0:18.028,6490,(,0,0,1
0:18.069,6505,N,0,0,0
0:18.097,6515,),0,0,1
0:18.308,6591,(,0,0,2
0:18.356,6608,t,0,0,0
0:18.397,6623,),0,0,2
0:18.536,6673,(,0,0,0
0:18.578,6688,p,0,0,0
0:18.625,6705,),0,0,0
0:18.672,6722,(,0,0,1
0:18.711,6736,N,0,0,0
0:18.739,6746,),0,0,1
0:18.950,6822,(,0,0,2
0:19.000,6840,t,0,0,0
0:19.042,6855,),0,0,2
0:19.189,6908,(,0,0,0
0:19.231,6923,p,0,0,0
0:19.286,6943,),0,0,0
0:19.328,6958,(,0,0,1
0:19.369,6973,N,0,0,0
0:19.397,6983,),0,0,1
0:19.622,7064,(,0,0,2
0:19.669,7081,t,0,0,0
0:19.747,7109,),0,0,2
0:19.856,7148,(,0,0,0
0:19.900,7164,p,0,0,0
0:19.947,7181,),0,0,0
0:19.989,7196,(,0,0,1
0:20.025,7209,N,0,0,0
0:20.067,7224,),0,0,1
0:20.278,7300,(,0,0,2
0:20.322,7316,t,0,0,0
0:20.356,7328,),0,0,2
0:20.514,7385,(,0,0,0
0:20.553,7399,p,0,0,0
0:20.597,7415,),0,0,0
0:20.642,7431,(,0,0,1
0:20.678,7444,N,0,0,0
0:20.706,7454,),0,0,1
0:20.906,7526,(,0,0,2
0:20.953,7543,t,0,0,0
0:20.983,7554,),0,0,2
0:21.153,7615,(,0,0,0
0:21.189,7628,p,0,0,0
0:21.244,7648,),0,0,0
0:21.283,7662,(,0,0,1
0:21.319,7675,N,0,0,0
0:21.350,7686,),0,0,1
0:21.550,7758,(,0,0,2
0:21.600,7776,t,0,0,0
0:21.633,7788,),0,0,2
0:21.789,7844,(,0,0,0
0:21.833,7860,p,0,0,0
0:21.886,7879,),0,0,0
0:21.928,7894,(,0,0,1
0:21.967,7908,N,0,0,0
0:21.997,7919,),0,0,1
0:22.092,7953,(,0,0,2
0:22.256,8012,t,0,0,0
0:22.314,8033,),0,0,2
0:22.444,8080,(,0,0,0
0:22.483,8094,p,0,0,0
0:22.533,8112,),0,0,0
0:22.578,8128,(,0,0,1
0:22.614,8141,N,0,0,0
0:22.642,8151,),0,0,1
0:22.869,8233,(,0,0,2
0:22.914,8249,t,0,0,0
0:22.947,8261,),0,0,2
0:23.106,8318,(,0,0,0
0:23.147,8333,p,0,0,0
0:23.194,8350,),0,0,0
0:23.239,8366,(,0,0,1
0:23.275,8379,N,0,0,0
0:23.303,8389,),0,0,1
0:23.528,8470,(,0,0,2
0:23.575,8487,t,0,0,0
0:23.622,8504,),0,0,2
0:23.783,8562,(,0,0,0
0:23.819,8575,p,0,0,0
0:23.864,8591,),0,0,0
0:23.911,8608,(,0,0,1
0:23.947,8621,N,0,0,0
0:23.975,8631,),0,0,1
0:24.183,8706,(,0,0,2
0:24.222,8720,t,0,0,0
0:24.258,8733,),0,0,2
0:24.414,8789,(,0,0,0
0:24.458,8805,p,0,0,0
0:24.511,8824,),0,0,0
0:24.550,8838,(,0,0,1
0:24.589,8852,N,0,0,0
0:24.617,8862,),0,0,1
0:24.831,8939,(,0,0,2
0:24.872,8954,t,0,0,0
0:24.925,8973,),0,0,2
0:25.061,9022,(,0,0,0
0:25.106,9038,p,0,0,0
0:25.156,9056,),0,0,0
0:25.194,9070,(,0,0,1
0:25.231,9083,N,0,0,0
0:25.258,9093,),0,0,1
0:25.475,9171,(,0,0,2
0:25.528,9190,t,0,0,0
0:25.589,9212,),0,0,2
0:25.711,9256,(,0,0,0
0:25.761,9274,p,0,0,0
0:25.811,9292,),0,0,0
0:25.853,9307,(,0,0,1
0:25.892,9321,N,0,0,0
0:25.922,9332,),0,0,1
0:26.022,9368,(,0,0,2
0:26.200,9432,t,0,0,0
0:26.256,9452,),0,0,2
0:26.400,9504,(,0,0,0
0:26.442,9519,p,0,0,0
0:26.494,9538,),0,0,0
0:26.536,9553,(,0,0,1
0:26.575,9567,N,0,0,0
0:26.603,9577,),0,0,1
0:26.817,9654,(,0,0,2
0:26.861,9670,t,0,0,0
0:26.900,9684,),0,0,2
0:27.053,9739,(,0,0,0
0:27.097,9755,p,0,0,0
0:27.150,9774,),0,0,0
0:27.194,9790,(,0,0,1
0:27.233,9804,N,0,0,0
0:27.261,9814,),0,0,1
0:27.475,9891,(,0,0,2
0:27.517,9906,t,0,0,0
0:27.581,9929,),0,0,2
0:27.700,9972,(,0,0,0
0:27.742,9987,p,0,0,0
0:27.789,10004,),0,0,0
0:27.831,10019,(,0,0,1
0:27.869,10033,N,0,0,0
0:27.908,10047,),0,0,1
0:28.114,10121,(,0,0,2
0:28.161,10138,t,0,0,0
0:28.219,10159,),0,0,2
0:28.342,10203,(,0,0,0
0:28.383,10218,p,0,0,0
0:28.431,10235,),0,0,0
0:28.478,10252,(,0,0,1
0:28.514,10265,N,0,0,0
0:28.542,10275,),0,0,1
0:28.767,10356,(,0,0,2
0:28.811,10372,t,0,0,0
0:28.861,10390,),0,0,2
0:29.006,10442,(,0,0,0
0:29.044,10456,p,0,0,0
0:29.092,10473,),0,0,0
0:29.133,10488,(,0,0,1
0:29.172,10502,N,0,0,0
0:29.211,10516,),0,0,1
0:29.403,10585,(,0,0,2
0:29.464,10607,t,0,0,0
0:29.519,10627,),0,0,2
0:29.656,10676,(,0,0,0
0:29.706,10694,p,0,0,0
0:29.758,10713,),0,0,0
0:29.797,10727,(,0,0,1
0:29.836,10741,N,0,0,0
0:29.864,10751,),0,0,1
0:30.072,10826,(,0,0,2
0:30.122,10844,t,0,0,0
0:30.186,10867,),0,0,2
0:30.322,10916,(,0,0,0
0:30.367,10932,p,0,0,0
0:30.422,10952,),0,0,0
0:30.467,10968,(,0,0,1
0:30.503,10981,N,0,0,0
0:30.542,10995,),0,0,1
0:30.747,11069,(,0,0,2
0:30.786,11083,t,0,0,0
0:30.828,11098,),0,0,2
0:30.967,11148,(,0,0,0
0:31.011,11164,p,0,0,0
0:31.058,11181,),0,0,0
0:31.097,11195,(,0,0,1
0:31.139,11210,N,0,0,0
0:31.178,11224,),0,0,1
0:31.389,11300,(,0,0,2
0:31.431,11315,t,0,0,0
0:31.458,11325,),0,0,2
0:31.619,11383,(,0,0,0
0:31.656,11396,p,0,0,0
0:31.708,11415,),0,0,0
0:31.742,11427,(,0,0,1
0:31.778,11440,N,0,0,0
0:31.806,11450,),0,0,1
0:31.953,11503,(,0,0,2
0:32.061,11542,t,0,0,0
0:32.114,11561,),0,0,2
0:32.253,11611,(,0,0,0
0:32.294,11626,p,0,0,0
0:32.344,11644,),0,0,0
0:32.386,11659,(,0,0,1
0:32.422,11672,N,0,0,0
0:32.453,11683,),0,0,1
0:32.586,11731,(,0,0,2
0:32.717,11778,t,0,0,0
0:32.753,11791,),0,0,2
0:32.914,11849,(,0,0,0
0:32.958,11865,p,0,0,0
0:33.011,11884,),0,0,0
0:33.058,11901,(,0,0,1
0:33.094,11914,N,0,0,0
0:33.125,11925,),0,0,1
0:33.561,12082,(,0,0,0
0:33.606,12098,p,0,0,0
0:33.658,12117,),0,0,0
0:33.700,12132,(,0,0,1
0:33.739,12146,N,0,0,0
0:33.778,12160,),0,0,1
0:33.989,12236,(,0,0,2
0:34.028,12250,t,0,0,0
0:34.078,12268,),0,0,2
0:34.217,12318,(,0,0,0
0:34.256,12332,p,0,0,0
0:34.300,12348,),0,0,0
0:34.347,12365,(,0,0,1
0:34.381,12377,N,0,0,0
0:34.419,12391,),0,0,1
0:34.619,12463,(,0,0,2
0:34.669,12481,t,0,0,0
0:34.700,12492,),0,0,2
0:34.850,12546,(,0,0,0
0:34.894,12562,p,0,0,0
0:34.944,12580,),0,0,0
0:34.983,12594,(,0,0,1
0:35.019,12607,N,0,0,0
0:35.047,12617,),0,0,1
0:35.261,12694,(,0,0,2
0:35.308,12711,t,0,0,0
0:35.342,12723,),0,0,2
0:35.492,12777,(,0,0,0
0:35.542,12795,p,0,0,0
0:35.592,12813,),0,0,0
0:35.636,12829,(,0,0,1
0:35.675,12843,N,0,0,0
0:35.714,12857,),0,0,1
0:35.906,12926,(,0,0,2
0:35.950,12942,t,0,0,0
0:35.992,12957,),0,0,2
0:36.133,13008,(,0,0,0
0:36.178,13024,p,0,0,0
0:36.225,13041,),0,0,0
0:36.272,13058,(,0,0,1
0:36.311,13072,N,0,0,0
0:36.353,13087,),0,0,1
0:36.558,13161,(,0,0,2
0:36.606,13178,t,0,0,0
0:36.636,13189,),0,0,2
0:36.794,13246,(,0,0,0
0:36.836,13261,p,0,0,0
0:36.883,13278,),0,0,0
0:36.931,13295,(,0,0,1
0:36.972,13310,N,0,0,0
0:37.000,13320,),0,0,1
0:37.133,13368,(,0,0,2
0:37.275,13419,t,0,0,0
0:37.303,13429,),0,0,2
0:37.461,13486,(,0,0,0
0:37.503,13501,p,0,0,0
0:37.556,13520,),0,0,0
0:37.589,13532,(,0,0,1
0:37.625,13545,N,0,0,0
0:37.656,13556,),0,0,1
0:37.786,13603,(,0,0,2
0:37.908,13647,t,0,0,0
0:37.931,13655,),0,0,2
0:38.100,13716,(,0,0,0
0:38.147,13733,p,0,0,0
0:38.203,13753,),0,0,0
0:38.236,13765,(,0,0,1
0:38.275,13779,N,0,0,0
0:38.303,13789,),0,0,1
0:38.503,13861,(,0,0,2
0:38.558,13881,t,0,0,0
0:38.619,13903,),0,0,2
0:38.739,13946,(,0,0,0
0:38.781,13961,p,0,0,0
0:38.833,13980,),0,0,0
0:38.875,13995,(,0,0,1
0:38.911,14008,N,0,0,0
0:38.942,14019,),0,0,1
0:39.056,14060,(,0,0,2
0:39.208,14115,t,0,0,0
0:39.258,14133,),0,0,2
0:39.400,14184,(,0,0,0
0:39.442,14199,p,0,0,0
0:39.494,14218,),0,0,0
0:39.539,14234,(,0,0,1
0:39.581,14249,N,0,0,0
0:39.608,14259,),0,0,1
0:39.842,14343,(,0,0,2
0:39.886,14359,t,0,0,0
0:39.975,14391,),0,0,2
0:40.078,14428,(,0,0,0
0:40.114,14441,p,0,0,0
0:40.164,14459,),0,0,0
0:40.206,14474,(,0,0,1
0:40.244,14488,N,0,0,0
0:40.272,14498,),0,0,1
0:40.483,14574,(,0,0,2
0:40.528,14590,t,0,0,0
0:40.567,14604,),0,0,2
0:40.725,14661,(,0,0,0
0:40.761,14674,p,0,0,0
0:40.819,14695,),0,0,0
0:40.833,14700,(,0,0,1
0:40.894,14722,N,0,0,0
0:40.922,14732,),0,0,1
0:41.133,14808,(,0,0,2
0:41.178,14824,t,0,0,0
0:41.206,14834,),0,0,2
0:41.356,14888,(,0,0,0
0:41.400,14904,p,0,0,0
0:41.453,14923,),0,0,0
0:41.492,14937,(,0,0,1
0:41.531,14951,N,0,0,0
0:41.558,14961,),0,0,1
0:41.769,15037,(,0,0,2
0:41.817,15054,t,0,0,0
0:41.864,15071,),0,0,2
0:41.997,15119,(,0,0,0
0:42.044,15136,p,0,0,0
0:42.097,15155,),0,0,0
0:42.139,15170,(,0,0,1
0:42.178,15184,N,0,0,0
0:42.208,15195,),0,0,1
0:42.331,15239,(,0,0,2
0:42.469,15289,t,0,0,0
0:42.525,15309,),0,0,2
0:42.647,15353,(,0,0,0
0:42.692,15369,p,0,0,0
0:42.742,15387,),0,0,0
0:42.781,15401,(,0,0,1
0:42.817,15414,N,0,0,0
0:42.844,15424,),0,0,1
0:42.958,15465,(,0,0,2
0:43.114,15521,t,0,0,0
0:43.156,15536,),0,0,2
0:43.300,15588,(,0,0,0
0:43.344,15604,p,0,0,0
0:43.394,15622,),0,0,0
0:43.436,15637,(,0,0,1
0:43.472,15650,N,0,0,0
0:43.503,15661,),0,0,1
0:43.622,15704,(,0,0,2
0:43.772,15758,t,0,0,0
0:43.819,15775,),0,0,2
0:43.967,15828,(,0,0,0
0:44.008,15843,p,0,0,0
0:44.058,15861,),0,0,0
0:44.103,15877,(,0,0,1
0:44.142,15891,N,0,0,0
0:44.169,15901,),0,0,1
0:44.597,16055,(,0,0,0
0:44.644,16072,p,0,0,0
0:44.697,16091,),0,0,0
0:44.739,16106,(,0,0,1
0:44.775,16119,N,0,0,0
0:44.817,16134,),0,0,1
0:45.025,16209,(,0,0,2
0:45.064,16223,t,0,0,0
0:45.106,16238,),0,0,2
0:45.236,16285,(,0,0,0
0:45.283,16302,p,0,0,0
0:45.336,16321,),0,0,0
0:45.372,16334,(,0,0,1
0:45.408,16347,N,0,0,0
0:45.450,16362,),0,0,1
0:45.647,16433,(,0,0,2
0:45.700,16452,t,0,0,0
0:45.731,16463,),0,0,2
0:45.883,16518,(,0,0,0
0:45.922,16532,p,0,0,0
0:45.969,16549,),0,0,0
0:46.019,16567,(,0,0,1
0:46.056,16580,N,0,0,0
0:46.086,16591,),0,0,1
0:46.219,16639,(,0,0,2
0:46.378,16696,t,0,0,0
0:46.431,16715,),0,0,2
0:46.561,16762,(,0,0,0
0:46.603,16777,p,0,0,0
0:46.658,16797,),0,0,0
0:46.703,16813,(,0,0,1
0:46.742,16827,N,0,0,0
0:46.769,16837,),0,0,1
0:46.975,16911,(,0,0,2
0:47.025,16929,t,0,0,0
0:47.078,16948,),0,0,2
0:47.214,16997,(,0,0,0
0:47.253,17011,p,0,0,0
0:47.306,17030,),0,0,0
0:47.347,17045,(,0,0,1
0:47.386,17059,N,0,0,0
0:47.414,17069,),0,0,1
0:47.861,17230,(,0,0,0
0:47.897,17243,p,0,0,0
0:47.944,17260,),0,0,0
0:47.986,17275,(,0,0,1
0:48.019,17287,N,0,0,0
0:48.047,17297,),0,0,1
0:48.261,17374,(,0,0,2
0:48.314,17393,t,0,0,0
0:48.353,17407,),0,0,2
0:48.494,17458,(,0,0,0
0:48.533,17472,p,0,0,0
0:48.581,17489,),0,0,0
0:48.622,17504,(,0,0,1
0:48.658,17517,N,0,0,0
0:48.689,17528,),0,0,1
0:48.828,17578,(,0,0,2
0:48.956,17624,t,0,0,0
0:49.008,17643,),0,0,2
0:49.156,17696,(,0,0,0
0:49.194,17710,p,0,0,0
0:49.244,17728,),0,0,0
0:49.281,17741,(,0,0,1
0:49.319,17755,N,0,0,0
0:49.347,17765,),0,0,1
0:49.456,17804,(,0,0,2
0:49.600,17856,t,0,0,0
0:49.669,17881,),0,0,2
0:49.794,17926,(,0,0,0
0:49.839,17942,p,0,0,0
0:49.894,17962,),0,0,0
0:49.936,17977,(,0,0,1
0:49.975,17991,N,0,0,0
0:50.003,18001,),0,0,1
0:50.206,18074,(,0,0,2
0:50.256,18092,t,0,0,0
0:50.281,18101,),0,0,2
0:50.458,18165,(,0,0,0
0:50.500,18180,p,0,0,0
0:50.556,18200,),0,0,0
0:50.597,18215,(,0,0,1
0:50.636,18229,N,0,0,0
0:50.667,18240,),0,0,1
0:50.883,18318,(,0,0,2
0:50.931,18335,t,0,0,0
0:50.989,18356,),0,0,2
0:51.117,18402,(,0,0,0
0:51.156,18416,p,0,0,0
0:51.208,18435,),0,0,0
0:51.250,18450,(,0,0,1
0:51.283,18462,N,0,0,0
0:51.311,18472,),0,0,1
0:51.528,18550,(,0,0,2
0:51.583,18570,t,0,0,0
0:51.625,18585,),0,0,2
0:51.764,18635,(,0,0,0
0:51.808,18651,p,0,0,0
0:51.861,18670,),0,0,0
0:51.897,18683,(,0,0,1
0:51.933,18696,N,0,0,0
0:51.975,18711,),0,0,1
0:52.167,18780,(,0,0,2
0:52.217,18798,t,0,0,0
0:52.239,18806,),0,0,2
0:52.400,18864,(,0,0,0
0:52.444,18880,p,0,0,0
0:52.492,18897,),0,0,0
0:52.536,18913,(,0,0,1
0:52.572,18926,N,0,0,0
0:52.600,18936,),0,0,1
0:52.822,19016,(,0,0,2
0:52.878,19036,t,0,0,0
0:52.933,19056,),0,0,2
0:53.069,19105,(,0,0,0
0:53.111,19120,p,0,0,0
0:53.164,19139,),0,0,0
0:53.211,19156,(,0,0,1
0:53.250,19170,N,0,0,0
0:53.289,19184,),0,0,1
0:53.503,19261,(,0,0,2
0:53.550,19278,t,0,0,0
0:53.597,19295,),0,0,2
0:53.728,19342,(,0,0,0
0:53.769,19357,p,0,0,0
0:53.817,19374,),0,0,0
0:53.861,19390,(,0,0,1
0:53.897,19403,N,0,0,0
0:53.925,19413,),0,0,1
0:54.147,19493,(,0,0,2
0:54.194,19510,t,0,0,0
0:54.242,19527,),0,0,2
0:54.375,19575,(,0,0,0
0:54.419,19591,p,0,0,0
0:54.469,19609,),0,0,0
0:54.508,19623,(,0,0,1
0:54.544,19636,N,0,0,0
0:54.581,19649,),0,0,1
0:54.772,19718,(,0,0,2
0:54.825,19737,t,0,0,0
0:54.872,19754,),0,0,2
0:55.003,19801,(,0,0,0
0:55.044,19816,p,0,0,0
0:55.100,19836,),0,0,0
0:55.136,19849,(,0,0,1
0:55.172,19862,N,0,0,0
0:55.200,19872,),0,0,1
0:55.631,20027,(,0,0,0
0:55.681,20045,p,0,0,0
0:55.733,20064,),0,0,0
0:55.775,20079,(,0,0,1
0:55.814,20093,N,0,0,0
0:55.842,20103,),0,0,1
0:56.042,20175,(,0,0,2
0:56.097,20195,t,0,0,0
0:56.136,20209,),0,0,2
0:56.269,20257,(,0,0,0
0:56.308,20271,p,0,0,0
0:56.356,20288,),0,0,0
0:56.406,20306,(,0,0,1
0:56.442,20319,N,0,0,0
0:56.483,20334,),0,0,1
0:56.686,20407,(,0,0,2
0:56.739,20426,t,0,0,0
0:56.767,20436,),0,0,2
0:56.914,20489,(,0,0,0
0:56.956,20504,p,0,0,0
0:57.008,20523,),0,0,0
0:57.050,20538,(,0,0,1
0:57.089,20552,N,0,0,0
0:57.117,20562,),0,0,1
0:57.344,20644,(,0,0,2
0:57.389,20660,t,0,0,0
0:57.436,20677,),0,0,2
0:57.564,20723,(,0,0,0
0:57.606,20738,p,0,0,0
0:57.658,20757,),0,0,0
0:57.700,20772,(,0,0,1
0:57.733,20784,N,0,0,0
0:57.761,20794,),0,0,1
0:57.969,20869,(,0,0,2
0:58.019,20887,t,0,0,0
0:58.067,20904,),0,0,2
0:58.194,20950,(,0,0,0
0:58.233,20964,p,0,0,0
0:58.286,20983,),0,0,0
0:58.333,21000,(,0,0,1
0:58.369,21013,N,0,0,0
0:58.397,21023,),0,0,1
0:58.600,21096,(,0,0,2
0:58.656,21116,t,0,0,0
0:58.703,21133,),0,0,2
0:58.825,21177,(,0,0,0
0:58.864,21191,p,0,0,0
0:58.914,21209,),0,0,0
0:58.956,21224,(,0,0,1
0:58.992,21237,N,0,0,0
0:59.019,21247,),0,0,1
0:59.231,21323,(,0,0,2
0:59.281,21341,t,0,0,0
0:59.347,21365,),0,0,2
0:59.453,21403,(,0,0,0
0:59.497,21419,p,0,0,0
0:59.553,21439,),0,0,0
0:59.600,21456,(,0,0,1
0:59.636,21469,N,0,0,0
0:59.678,21484,),0,0,1
0:59.889,21560,(,0,0,2
0:59.931,21575,t,0,0,0
0:59.964,21587,),0,0,2
1:00.117,21642,(,0,0,0
1:00.164,21659,p,0,0,0
1:00.208,21675,),0,0,0
1:00.250,21690,(,0,0,1
1:00.289,21704,N,0,0,0
1:00.325,21717,),0,0,1
1:00.531,21791,(,0,0,2
1:00.575,21807,t,0,0,0
1:00.614,21821,),0,0,2
1:00.758,21873,(,0,0,0
1:00.797,21887,p,0,0,0
1:00.850,21906,),0,0,0
1:00.894,21922,(,0,0,1
1:00.931,21935,N,0,0,0
1:00.961,21946,),0,0,1
1:01.169,22021,(,0,0,2
1:01.219,22039,t,0,0,0
1:01.269,22057,),0,0,2
1:01.386,22099,(,0,0,0
1:01.431,22115,p,0,0,0
1:01.481,22133,),0,0,0
1:01.517,22146,(,0,0,1
1:01.558,22161,N,0,0,0
1:01.586,22171,),0,0,1
1:01.681,22205,(,0,0,2
1:01.697,22211,t,0,0,4
1:01.847,22265,t,0,0,4
1:01.886,22279,),0,0,2
1:02.022,22328,(,0,0,0
1:02.064,22343,p,0,0,0
1:02.117,22362,),0,0,0
1:02.161,22378,(,0,0,1
1:02.197,22391,N,0,0,0
1:02.228,22402,),0,0,1
1:02.453,22483,(,0,0,2
1:02.503,22501,t,0,0,0
1:02.539,22514,),0,0,2
1:02.672,22562,(,0,0,0
1:02.717,22578,p,0,0,0
1:02.767,22596,),0,0,0
1:02.806,22610,(,0,0,1
1:02.842,22623,N,0,0,0
1:02.881,22637,),0,0,1
1:03.081,22709,(,0,0,2
1:03.133,22728,t,0,0,0
1:03.156,22736,),0,0,2
1:03.322,22796,(,0,0,0
1:03.367,22812,p,0,0,0
1:03.414,22829,),0,0,0
1:03.458,22845,(,0,0,1
1:03.494,22858,N,0,0,0
1:03.522,22868,),0,0,1
1:03.742,22947,(,0,0,2
1:03.789,22964,t,0,0,0
1:03.836,22981,),0,0,2
1:03.978,23032,(,0,0,0
1:04.022,23048,p,0,0,0
1:04.078,23068,),0,0,0
1:04.117,23082,(,0,0,1
1:04.156,23096,N,0,0,0
1:04.183,23106,),0,0,1
1:04.611,23260,(,0,0,0
1:04.661,23278,p,0,0,0
1:04.711,23296,),0,0,0
1:04.756,23312,(,0,0,1
1:04.792,23325,N,0,0,0
1:04.819,23335,),0,0,1
1:05.036,23413,(,0,0,2
1:05.114,23441,t,0,0,0
1:05.164,23459,),0,0,2
1:05.267,23496,(,0,0,0
1:05.306,23510,p,0,0,0
1:05.353,23527,),0,0,0
1:05.400,23544,(,0,0,1
1:05.433,23556,N,0,0,0
1:05.472,23570,),0,0,1
1:05.669,23641,(,0,0,2
1:05.725,23661,t,0,0,0
1:05.756,23672,),0,0,2
1:05.897,23723,(,0,0,0
1:05.939,23738,p,0,0,0
1:05.989,23756,),0,0,0
1:06.031,23771,(,0,0,1
1:06.067,23784,N,0,0,0
1:06.097,23795,),0,0,1
1:06.317,23874,(,0,0,2
1:06.375,23895,t,0,0,0
1:06.408,23907,),0,0,2
1:06.564,23963,(,0,0,0
1:06.603,23977,p,0,0,0
1:06.658,23997,),0,0,0
1:06.700,24012,(,0,0,1
1:06.736,24025,N,0,0,0
1:06.767,24036,),0,0,1
1:06.978,24112,(,0,0,2
1:07.031,24131,t,0,0,0
1:07.075,24147,),0,0,2
1:07.206,24194,(,0,0,0
1:07.244,24208,p,0,0,0
1:07.297,24227,),0,0,0
1:07.336,24241,(,0,0,1
1:07.372,24254,N,0,0,0
1:07.400,24264,),0,0,1
1:07.617,24342,(,0,0,2
1:07.669,24361,t,0,0,0
1:07.725,24381,),0,0,2
1:07.844,24424,(,0,0,0
1:07.892,24441,p,0,0,0
1:07.942,24459,),0,0,0
1:07.978,24472,(,0,0,1
1:08.014,24485,N,0,0,0
1:08.050,24498,),0,0,1
1:08.242,24567,(,0,0,2
1:08.294,24586,t,0,0,0
1:08.342,24603,),0,0,2
1:08.478,24652,(,0,0,0
1:08.517,24666,p,0,0,0
1:08.564,24683,),0,0,0
1:08.606,24698,(,0,0,1
1:08.642,24711,N,0,0,0
1:08.681,24725,),0,0,1
1:08.875,24795,(,0,0,2
1:08.936,24817,t,0,0,0
1:08.964,24827,),0,0,2
1:09.103,24877,(,0,0,0
1:09.150,24894,p,0,0,0
1:09.200,24912,),0,0,0
1:09.244,24928,(,0,0,1
1:09.281,24941,N,0,0,0
1:09.319,24955,),0,0,1
1:09.514,25025,(,0,0,2
1:09.561,25042,t,0,0,0
1:09.608,25059,),0,0,2
1:09.728,25102,(,0,0,0
1:09.778,25120,p,0,0,0
1:09.828,25138,),0,0,0
1:09.869,25153,(,0,0,1
1:09.906,25166,N,0,0,0
1:09.933,25176,),0,0,1
1:10.158,25257,(,0,0,2
1:10.208,25275,t,0,0,0
1:10.242,25287,),0,0,2
1:10.383,25338,(,0,0,0
1:10.431,25355,p,0,0,0
1:10.478,25372,),0,0,0
1:10.522,25388,(,0,0,1
1:10.561,25402,N,0,0,0
1:10.589,25412,),0,0,1
1:10.692,25449,(,0,0,2
1:10.708,25455,t,0,0,4
1:10.867,25512,t,0,0,4
1:10.897,25523,),0,0,2
1:11.047,25577,(,0,0,0
1:11.097,25595,p,0,0,0
1:11.144,25612,),0,0,0
1:11.178,25624,(,0,0,1
1:11.214,25637,N,0,0,0
1:11.253,25651,),0,0,1
1:11.456,25724,(,0,0,2
1:11.503,25741,t,0,0,0
1:11.536,25753,),0,0,2
1:11.681,25805,(,0,0,0
1:11.725,25821,p,0,0,0
1:11.775,25839,),0,0,0
1:11.814,25853,(,0,0,1
1:11.850,25866,N,0,0,0
1:11.892,25881,),0,0,1
1:12.083,25950,(,0,0,2
1:12.136,25969,t,0,0,0
1:12.208,25995,),0,0,2
1:12.311,26032,(,0,0,0
1:12.347,26045,p,0,0,0
1:12.394,26062,),0,0,0
1:12.436,26077,(,0,0,1
1:12.469,26089,N,0,0,0
1:12.508,26103,),0,0,1
1:12.694,26170,(,0,0,2
1:12.711,26176,t,0,0,4
1:12.775,26199,t,0,0,4
1:12.806,26210,),0,0,2
1:12.961,26266,(,0,0,0
1:13.000,26280,p,0,0,0
1:13.047,26297,),0,0,0
1:13.094,26314,(,0,0,1
1:13.133,26328,N,0,0,0
1:13.164,26339,),0,0,1
1:13.386,26419,(,0,0,2
1:13.442,26439,t,0,0,0
1:13.508,26463,),0,0,2
1:13.628,26506,(,0,0,0
1:13.672,26522,p,0,0,0
1:13.722,26540,),0,0,0
1:13.764,26555,(,0,0,1
1:13.797,26567,N,0,0,0
1:13.828,26578,),0,0,1
1:14.031,26651,t,0,0,2
1:14.081,26669,),0,0,2
1:14.278,26740,(,0,0,0
1:14.317,26754,p,0,0,0
1:14.372,26774,),0,0,0
1:14.414,26789,(,0,0,1
1:14.453,26803,N,0,0,0
1:14.492,26817,),0,0,1
1:14.692,26889,(,0,0,2
1:14.739,26906,t,0,0,0
1:14.772,26918,),0,0,2
1:14.906,26966,(,0,0,0
1:14.942,26979,p,0,0,0
1:14.992,26997,),0,0,0
1:15.039,27014,(,0,0,1
1:15.075,27027,N,0,0,0
1:15.106,27038,),0,0,1
1:15.319,27115,(,0,0,2
1:15.364,27131,t,0,0,0
1:15.406,27146,),0,0,2
1:15.547,27197,(,0,0,0
1:15.583,27210,p,0,0,0
1:15.636,27229,),0,0,0
1:15.681,27245,(,0,0,1
1:15.717,27258,N,0,0,0
1:15.744,27268,),0,0,1
1:15.972,27350,(,0,0,2
1:16.017,27366,t,0,0,0
1:16.067,27384,),0,0,2
1:16.192,27429,(,0,0,0
1:16.231,27443,p,0,0,0
1:16.278,27460,),0,0,0
1:16.319,27475,(,0,0,1
1:16.358,27489,N,0,0,0
1:16.397,27503,),0,0,1
1:16.600,27576,(,0,0,2
1:16.656,27596,t,0,0,0
1:16.681,27605,),0,0,2
1:16.831,27659,(,0,0,0
1:16.881,27677,p,0,0,0
1:16.931,27695,),0,0,0
1:16.969,27709,(,0,0,1
1:17.006,27722,N,0,0,0
1:17.036,27733,),0,0,1
1:17.228,27802,(,0,0,2
1:17.242,27807,t,0,0,4
1:17.303,27829,t,0,0,4
1:17.372,27854,),0,0,2
1:17.506,27902,(,0,0,0
1:17.542,27915,p,0,0,0
1:17.594,27934,),0,0,0
1:17.636,27949,(,0,0,1
1:17.675,27963,N,0,0,0
1:17.703,27973,),0,0,1
1:18.144,28132,(,0,0,0
1:18.186,28147,p,0,0,0
1:18.233,28164,),0,0,0
1:18.278,28180,(,0,0,1
1:18.317,28194,N,0,0,0
1:18.344,28204,),0,0,1
1:18.783,28362,(,0,0,0
1:18.828,28378,p,0,0,0
1:18.878,28396,),0,0,0
1:18.914,28409,(,0,0,1
1:18.950,28422,N,0,0,0
1:18.978,28432,),0,0,1
1:19.194,28510,(,0,0,2
1:19.233,28524,t,0,0,0
1:19.261,28534,),0,0,2
1:19.422,28592,(,0,0,0
1:19.461,28606,p,0,0,0
1:19.514,28625,),0,0,0
1:19.553,28639,(,0,0,1
1:19.594,28654,N,0,0,0
1:19.622,28664,),0,0,1
1:19.847,28745,(,0,0,2
1:19.894,28762,t,0,0,0
1:19.950,28782,),0,0,2
1:20.086,28831,(,0,0,0
1:20.131,28847,p,0,0,0
1:20.181,28865,),0,0,0
1:20.228,28882,(,0,0,1
1:20.264,28895,N,0,0,0
1:20.292,28905,),0,0,1
1:20.503,28981,(,0,0,2
1:20.550,28998,t,0,0,0
1:20.606,29018,),0,0,2
1:20.736,29065,(,0,0,0
1:20.775,29079,p,0,0,0
1:20.825,29097,),0,0,0
1:20.872,29114,(,0,0,1
1:20.908,29127,N,0,0,0
1:20.936,29137,),0,0,1
1:21.158,29217,(,0,0,2
1:21.203,29233,t,0,0,0
1:21.233,29244,),0,0,2
1:21.381,29297,(,0,0,0
1:21.422,29312,p,0,0,0
1:21.469,29329,),0,0,0
1:21.508,29343,(,0,0,1
1:21.544,29356,N,0,0,0
1:21.572,29366,),0,0,1
1:21.783,29442,(,0,0,2
1:21.831,29459,t,0,0,0
1:21.867,29472,),0,0,2
1:22.017,29526,(,0,0,0
1:22.061,29542,p,0,0,0
1:22.108,29559,),0,0,0
1:22.150,29574,(,0,0,1
1:22.186,29587,N,0,0,0
1:22.211,29596,),0,0,1
1:22.433,29676,(,0,0,2
1:22.483,29694,t,0,0,0
1:22.519,29707,),0,0,2
1:22.678,29764,(,0,0,0
1:22.717,29778,p,0,0,0
1:22.767,29796,),0,0,0
1:22.808,29811,(,0,0,1
1:22.844,29824,N,0,0,0
1:22.872,29834,),0,0,1
1:23.081,29909,(,0,0,2
1:23.119,29923,t,0,0,0
1:23.164,29939,),0,0,2
1:23.314,29993,(,0,0,0
1:23.350,30006,p,0,0,0
1:23.406,30026,),0,0,0
1:23.447,30041,(,0,0,1
1:23.486,30055,N,0,0,0
1:23.514,30065,),0,0,1
1:23.733,30144,(,0,0,2
1:23.775,30159,t,0,0,0
1:23.814,30173,),0,0,2
1:23.958,30225,(,0,0,0
1:24.006,30242,p,0,0,0
1:24.058,30261,),0,0,0
1:24.103,30277,(,0,0,1
1:24.139,30290,N,0,0,0
1:24.167,30300,),0,0,1
1:24.383,30378,(,0,0,2
1:24.442,30399,t,0,0,0
1:24.486,30415,),0,0,2
1:24.611,30460,(,0,0,0
1:24.653,30475,p,0,0,0
1:24.703,30493,),0,0,0
1:24.747,30509,(,0,0,1
1:24.781,30521,N,0,0,0
1:24.811,30532,),0,0,1
1:25.025,30609,(,0,0,2
1:25.075,30627,t,0,0,0
1:25.114,30641,),0,0,2
1:25.258,30693,(,0,0,0
1:25.300,30708,p,0,0,0
1:25.350,30726,),0,0,0
1:25.392,30741,(,0,0,1
1:25.428,30754,N,0,0,0
1:25.467,30768,),0,0,1
1:25.658,30837,(,0,0,2
1:25.714,30857,t,0,0,0
1:25.744,30868,),0,0,2
1:25.881,30917,(,0,0,0
1:25.922,30932,p,0,0,0
1:25.975,30951,),0,0,0
1:26.017,30966,(,0,0,1
1:26.053,30979,N,0,0,0
1:26.083,30990,),0,0,1
1:26.303,31069,(,0,0,2
1:26.347,31085,t,0,0,0
1:26.383,31098,),0,0,2
1:26.531,31151,(,0,0,0
1:26.578,31168,p,0,0,0
1:26.625,31185,),0,0,0
1:26.672,31202,(,0,0,1
1:26.711,31216,N,0,0,0
1:26.739,31226,),0,0,1
1:26.969,31309,(,0,0,2
1:27.019,31327,t,0,0,0
1:27.050,31338,),0,0,2
1:27.197,31391,(,0,0,0
1:27.236,31405,p,0,0,0
1:27.283,31422,),0,0,0
1:27.325,31437,(,0,0,1
1:27.367,31452,N,0,0,0
1:27.408,31467,),0,0,1
1:27.611,31540,(,0,0,2
1:27.658,31557,t,0,0,0
1:27.692,31569,),0,0,2
1:27.844,31624,(,0,0,0
1:27.881,31637,p,0,0,0
1:27.939,31658,),0,0,0
1:27.972,31670,(,0,0,1
1:28.011,31684,N,0,0,0
1:28.039,31694,),0,0,1
1:28.239,31766,(,0,0,2
1:28.278,31780,t,0,0,0
1:28.317,31794,),0,0,2
1:28.458,31845,(,0,0,0
1:28.500,31860,p,0,0,0
1:28.558,31881,),0,0,0
1:28.594,31894,(,0,0,1
1:28.633,31908,N,0,0,0
1:28.661,31918,),0,0,1
1:28.867,31992,(,0,0,2
1:28.917,32010,t,0,0,0
1:28.953,32023,),0,0,2
1:29.100,32076,(,0,0,0
1:29.139,32090,p,0,0,0
1:29.189,32108,),0,0,0
1:29.233,32124,(,0,0,1
1:29.272,32138,N,0,0,0
1:29.300,32148,),0,0,1
1:29.522,32228,(,0,0,2
1:29.567,32244,t,0,0,0
1:29.611,32260,),0,0,2
1:29.739,32306,(,0,0,0
1:29.781,32321,p,0,0,0
1:29.825,32337,),0,0,0
1:29.867,32352,(,0,0,1
1:29.906,32366,N,0,0,0
1:29.933,32376,),0,0,1
1:30.156,32456,(,0,0,2
1:30.203,32473,t,0,0,0
1:30.233,32484,),0,0,2
1:30.383,32538,(,0,0,0
1:30.431,32555,p,0,0,0
1:30.481,32573,),0,0,0
1:30.522,32588,(,0,0,1
1:30.561,32602,N,0,0,0
1:30.600,32616,),0,0,1
1:30.803,32689,(,0,0,2
1:30.858,32709,t,0,0,0
1:30.892,32721,),0,0,2
1:31.044,32776,(,0,0,0
1:31.083,32790,p,0,0,0
1:31.142,32811,),0,0,0
1:31.175,32823,(,0,0,1
1:31.211,32836,N,0,0,0
1:31.239,32846,),0,0,1
1:31.447,32921,(,0,0,2
1:31.497,32939,t,0,0,0
1:31.533,32952,),0,0,2
1:31.678,33004,(,0,0,0
1:31.714,33017,p,0,0,0
1:31.764,33035,),0,0,0
1:31.808,33051,(,0,0,1
1:31.844,33064,N,0,0,0
1:31.875,33075,),0,0,1
1:32.086,33151,(,0,0,2
1:32.133,33168,t,0,0,0
1:32.172,33182,),0,0,2
1:32.308,33231,(,0,0,0
1:32.344,33244,p,0,0,0
1:32.397,33263,),0,0,0
1:32.433,33276,(,0,0,1
1:32.469,33289,N,0,0,0
1:32.497,33299,),0,0,1
1:32.619,33343,(,0,0,2
1:32.742,33387,t,0,0,0
1:32.767,33396,),0,0,2
1:32.936,33457,(,0,0,0
1:32.975,33471,p,0,0,0
1:33.028,33490,),0,0,0
1:33.067,33504,(,0,0,1
1:33.106,33518,N,0,0,0
1:33.133,33528,),0,0,1
1:33.350,33606,(,0,0,2
1:33.403,33625,t,0,0,0
1:33.444,33640,),0,0,2
1:33.589,33692,(,0,0,0
1:33.631,33707,p,0,0,0
1:33.683,33726,),0,0,0
1:33.728,33742,(,0,0,1
1:33.767,33756,N,0,0,0
1:33.794,33766,),0,0,1
1:34.011,33844,(,0,0,2
1:34.056,33860,t,0,0,0
1:34.094,33874,),0,0,2
1:34.231,33923,(,0,0,0
1:34.278,33940,p,0,0,0
1:34.328,33958,),0,0,0
1:34.369,33973,(,0,0,1
1:34.408,33987,N,0,0,0
1:34.436,33997,),0,0,1
1:34.656,34076,(,0,0,2
1:34.706,34094,t,0,0,0
1:34.733,34104,),0,0,2
1:34.881,34157,(,0,0,0
1:34.922,34172,p,0,0,0
1:34.967,34188,),0,0,0
1:35.006,34202,(,0,0,1
1:35.042,34215,N,0,0,0
1:35.069,34225,),0,0,1
1:35.281,34301,(,0,0,2
1:35.336,34321,t,0,0,0
1:35.375,34335,),0,0,2
1:35.500,34380,(,0,0,0
1:35.544,34396,p,0,0,0
1:35.594,34414,),0,0,0
1:35.628,34426,(,0,0,1
1:35.667,34440,N,0,0,0
1:35.703,34453,),0,0,1
1:35.908,34527,(,0,0,2
1:35.947,34541,t,0,0,0
1:36.011,34564,),0,0,2
1:36.147,34613,(,0,0,0
1:36.186,34627,p,0,0,0
1:36.242,34647,),0,0,0
1:36.281,34661,(,0,0,1
1:36.314,34673,N,0,0,0
1:36.342,34683,),0,0,1
1:36.542,34755,(,0,0,2
1:36.592,34773,t,0,0,0
1:36.619,34783,),0,0,2
1:36.778,34840,(,0,0,0
1:36.819,34855,p,0,0,0
1:36.869,34873,),0,0,0
1:36.917,34890,(,0,0,1
1:36.953,34903,N,0,0,0
1:36.983,34914,),0,0,1
1:37.203,34993,(,0,0,2
1:37.247,35009,t,0,0,0
1:37.286,35023,),0,0,2
1:37.428,35074,(,0,0,0
1:37.478,35092,p,0,0,0
1:37.531,35111,),0,0,0
1:37.572,35126,(,0,0,1
1:37.608,35139,N,0,0,0
1:37.639,35150,),0,0,1
1:37.869,35233,(,0,0,2
1:37.911,35248,t,0,0,0
1:37.953,35263,),0,0,2
1:38.089,35312,(,0,0,0
1:38.131,35327,p,0,0,0
1:38.183,35346,),0,0,0
1:38.222,35360,(,0,0,1
1:38.258,35373,N,0,0,0
1:38.286,35383,),0,0,1
1:38.497,35459,(,0,0,2
1:38.550,35478,t,0,0,0
1:38.594,35494,),0,0,2
1:38.739,35546,(,0,0,0
1:38.775,35559,p,0,0,0
1:38.825,35577,),0,0,0
1:38.861,35590,(,0,0,1
1:38.900,35604,N,0,0,0
1:38.925,35613,),0,0,1
1:39.139,35690,(,0,0,2
1:39.181,35705,t,0,0,0
1:39.222,35720,),0,0,2
1:39.356,35768,(,0,0,0
1:39.400,35784,p,0,0,0
1:39.450,35802,),0,0,0
1:39.492,35817,(,0,0,1
1:39.531,35831,N,0,0,0
1:39.558,35841,),0,0,1
1:39.778,35920,(,0,0,2
1:39.831,35939,t,0,0,0
1:39.883,35958,),0,0,2
1:40.017,36006,(,0,0,0
1:40.058,36021,p,0,0,0
1:40.111,36040,),0,0,0
1:40.156,36056,(,0,0,1
1:40.192,36069,N,0,0,0
1:40.219,36079,),0,0,1
1:40.436,36157,(,0,0,2
1:40.494,36178,t,0,0,0
1:40.542,36195,),0,0,2
1:40.686,36247,(,0,0,0
1:40.725,36261,p,0,0,0
1:40.778,36280,),0,0,0
1:40.817,36294,(,0,0,1
1:40.850,36306,N,0,0,0
1:40.878,36316,),0,0,1
1:41.089,36392,(,0,0,2
1:41.139,36410,t,0,0,0
1:41.181,36425,),0,0,2
1:41.325,36477,(,0,0,0
1:41.369,36493,p,0,0,0
1:41.425,36513,),0,0,0
1:41.464,36527,(,0,0,1
1:41.503,36541,N,0,0,0
1:41.531,36551,),0,0,1
1:41.733,36624,(,0,0,2
1:41.778,36640,t,0,0,0
1:41.814,36653,),0,0,2
1:41.956,36704,(,0,0,0
1:42.000,36720,p,0,0,0
1:42.047,36737,),0,0,0
1:42.092,36753,(,0,0,1
1:42.128,36766,N,0,0,0
1:42.156,36776,),0,0,1
1:42.367,36852,(,0,0,2
1:42.414,36869,t,0,0,0
1:42.456,36884,),0,0,2
1:42.589,36932,(,0,0,0
1:42.633,36948,p,0,0,0
1:42.689,36968,),0,0,0
1:42.731,36983,(,0,0,1
1:42.769,36997,N,0,0,0
1:42.797,37007,),0,0,1
1:43.017,37086,(,0,0,2
1:43.061,37102,t,0,0,0
1:43.100,37116,),0,0,2
1:43.233,37164,(,0,0,0
1:43.269,37177,p,0,0,0
1:43.319,37195,),0,0,0
1:43.361,37210,(,0,0,1
1:43.397,37223,N,0,0,0
1:43.425,37233,),0,0,1
1:43.883,37398,(,0,0,0
1:43.925,37413,p,0,0,0
1:43.978,37432,),0,0,0
1:44.017,37446,(,0,0,1
1:44.053,37459,N,0,0,0
1:44.081,37469,),0,0,1
1:44.289,37544,(,0,0,2
1:44.342,37563,t,0,0,0
1:44.394,37582,),0,0,2
1:44.525,37629,(,0,0,0
1:44.572,37646,p,0,0,0
1:44.625,37665,),0,0,0
1:44.667,37680,(,0,0,1
1:44.706,37694,N,0,0,0
1:44.733,37704,),0,0,1
1:44.850,37746,(,0,0,2
1:44.986,37795,t,0,0,0
1:45.025,37809,),0,0,2
1:45.169,37861,(,0,0,0
1:45.211,37876,p,0,0,0
1:45.264,37895,),0,0,0
1:45.300,37908,(,0,0,1
1:45.339,37922,N,0,0,0
1:45.369,37933,),0,0,1
1:45.586,38011,(,0,0,2
1:45.631,38027,t,0,0,0
1:45.667,38040,),0,0,2
1:45.808,38091,(,0,0,0
1:45.844,38104,p,0,0,0
1:45.894,38122,),0,0,0
1:45.936,38137,(,0,0,1
1:45.972,38150,N,0,0,0
1:46.011,38164,),0,0,1
1:46.211,38236,(,0,0,2
1:46.258,38253,t,0,0,0
1:46.308,38271,),0,0,2
1:46.453,38323,(,0,0,0
1:46.492,38337,p,0,0,0
1:46.542,38355,),0,0,0
1:46.586,38371,(,0,0,1
1:46.622,38384,N,0,0,0
1:46.653,38395,),0,0,1
1:46.872,38474,(,0,0,2
1:46.922,38492,t,0,0,0
1:46.958,38505,),0,0,2
1:47.117,38562,(,0,0,0
1:47.161,38578,p,0,0,0
1:47.214,38597,),0,0,0
1:47.258,38613,(,0,0,1
1:47.297,38627,N,0,0,0
1:47.325,38637,),0,0,1
1:47.539,38714,(,0,0,2
1:47.583,38730,t,0,0,0
1:47.625,38745,),0,0,2
1:47.769,38797,(,0,0,0
1:47.808,38811,p,0,0,0
1:47.861,38830,),0,0,0
1:47.903,38845,(,0,0,1
1:47.942,38859,N,0,0,0
1:47.972,38870,),0,0,1
1:48.189,38948,(,0,0,2
1:48.239,38966,t,0,0,0
1:48.281,38981,),0,0,2
1:48.422,39032,(,0,0,0
1:48.458,39045,p,0,0,0
1:48.508,39063,),0,0,0
1:48.544,39076,(,0,0,1
1:48.581,39089,N,0,0,0
1:48.606,39098,),0,0,1
1:48.828,39178,(,0,0,2
1:48.872,39194,t,0,0,0
1:48.908,39207,),0,0,2
1:49.053,39259,(,0,0,0
1:49.100,39276,p,0,0,0
1:49.150,39294,),0,0,0
1:49.192,39309,(,0,0,1
1:49.228,39322,N,0,0,0
1:49.256,39332,),0,0,1
1:49.472,39410,(,0,0,2
1:49.519,39427,t,0,0,0
1:49.564,39443,),0,0,2
1:49.711,39496,(,0,0,0
1:49.750,39510,p,0,0,0
1:49.800,39528,),0,0,0
1:49.842,39543,(,0,0,1
1:49.878,39556,N,0,0,0
1:49.906,39566,),0,0,1
1:50.117,39642,(,0,0,2
1:50.158,39657,t,0,0,0
1:50.194,39670,),0,0,2
1:50.347,39725,(,0,0,0
1:50.386,39739,p,0,0,0
1:50.436,39757,),0,0,0
1:50.486,39775,(,0,0,1
1:50.525,39789,N,0,0,0
1:50.553,39799,),0,0,1
1:50.769,39877,(,0,0,2
1:50.817,39894,t,0,0,0
1:50.858,39909,),0,0,2
1:51.000,39960,(,0,0,0
1:51.044,39976,p,0,0,0
1:51.094,39994,),0,0,0
1:51.142,40011,(,0,0,1
1:51.178,40024,N,0,0,0
1:51.206,40034,),0,0,1
1:51.433,40116,(,0,0,2
1:51.483,40134,t,0,0,0
1:51.519,40147,),0,0,2
1:51.669,40201,(,0,0,0
1:51.708,40215,p,0,0,0
1:51.758,40233,),0,0,0
1:51.794,40246,(,0,0,1
1:51.833,40260,N,0,0,0
1:51.872,40274,),0,0,1
1:52.081,40349,(,0,0,2
1:52.117,40362,t,0,0,0
1:52.169,40381,),0,0,2
1:52.311,40432,(,0,0,0
1:52.353,40447,p,0,0,0
1:52.406,40466,),0,0,0
1:52.444,40480,(,0,0,1
1:52.481,40493,N,0,0,0
1:52.508,40503,),0,0,1
1:52.936,40657,(,0,0,0
1:52.986,40675,p,0,0,0
1:53.036,40693,),0,0,0
1:53.078,40708,(,0,0,1
1:53.117,40722,N,0,0,0
1:53.144,40732,),0,0,1
1:53.361,40810,(,0,0,2
1:53.408,40827,t,0,0,0
1:53.431,40835,),0,0,2
1:53.603,40897,(,0,0,0
1:53.647,40913,p,0,0,0
1:53.697,40931,),0,0,0
1:53.744,40948,(,0,0,1
1:53.781,40961,N,0,0,0
1:53.811,40972,),0,0,1
1:54.031,41051,(,0,0,2
1:54.086,41071,t,0,0,0
1:54.128,41086,),0,0,2
1:54.283,41142,(,0,0,0
1:54.325,41157,p,0,0,0
1:54.372,41174,),0,0,0
1:54.414,41189,(,0,0,1
1:54.453,41203,N,0,0,0
1:54.481,41213,),0,0,1
1:54.692,41289,(,0,0,2
1:54.739,41306,t,0,0,0
1:54.783,41322,),0,0,2
1:54.933,41376,(,0,0,0
1:54.978,41392,p,0,0,0
1:55.028,41410,),0,0,0
1:55.072,41426,(,0,0,1
1:55.108,41439,N,0,0,0
1:55.136,41449,),0,0,1
1:55.336,41521,(,0,0,2
1:55.383,41538,t,0,0,0
1:55.436,41557,),0,0,2
1:55.567,41604,(,0,0,0
1:55.611,41620,p,0,0,0
1:55.661,41638,),0,0,0
1:55.708,41655,(,0,0,1
1:55.744,41668,N,0,0,0
1:55.775,41679,),0,0,1
1:55.978,41752,(,0,0,2
1:56.025,41769,t,0,0,0
1:56.075,41787,),0,0,2
1:56.219,41839,(,0,0,0
1:56.258,41853,p,0,0,0
1:56.306,41870,),0,0,0
1:56.350,41886,(,0,0,1
1:56.389,41900,N,0,0,0
1:56.417,41910,),0,0,1
1:56.633,41988,(,0,0,2
1:56.678,42004,t,0,0,0
1:56.722,42020,),0,0,2
1:56.864,42071,(,0,0,0
1:56.903,42085,p,0,0,0
1:56.950,42102,),0,0,0
1:56.994,42118,(,0,0,1
1:57.033,42132,N,0,0,0
1:57.061,42142,),0,0,1
1:57.281,42221,(,0,0,2
1:57.336,42241,t,0,0,0
1:57.389,42260,),0,0,2
1:57.522,42308,(,0,0,0
1:57.561,42322,p,0,0,0
1:57.614,42341,),0,0,0
1:57.653,42355,(,0,0,1
1:57.689,42368,N,0,0,0
1:57.719,42379,),0,0,1
1:57.847,42425,(,0,0,2
1:57.989,42476,t,0,0,0
1:58.036,42493,),0,0,2
1:58.189,42548,(,0,0,0
1:58.231,42563,p,0,0,0
1:58.286,42583,),0,0,0
1:58.328,42598,(,0,0,1
1:58.367,42612,N,0,0,0
1:58.394,42622,),0,0,1
1:58.581,42689,(,0,0,2
1:58.597,42695,t,0,0,4
1:58.644,42712,t,0,0,4
1:58.700,42732,),0,0,2
1:58.836,42781,(,0,0,0
1:58.875,42795,p,0,0,0
1:58.925,42813,),0,0,0
1:58.967,42828,(,0,0,1
1:59.006,42842,N,0,0,0
1:59.033,42852,),0,0,1
1:59.247,42929,(,0,0,2
1:59.289,42944,t,0,0,0
1:59.328,42958,),0,0,2
1:59.472,43010,(,0,0,0
1:59.511,43024,p,0,0,0
1:59.556,43040,),0,0,0
1:59.597,43055,(,0,0,1
1:59.633,43068,N,0,0,0
1:59.661,43078,),0,0,1
1:59.881,43157,(,0,0,2
1:59.925,43173,t,0,0,0
1:59.958,43185,),0,0,2
2:00.117,43242,(,0,0,0
2:00.150,43254,p,0,0,0
2:00.200,43272,),0,0,0
2:00.239,43286,(,0,0,1
2:00.281,43301,N,0,0,0
2:00.311,43312,),0,0,1
2:00.456,43364,(,0,0,2
2:00.569,43405,t,0,0,0
2:00.656,43436,),0,0,2
2:00.778,43480,(,0,0,0
2:00.822,43496,p,0,0,0
2:00.878,43516,),0,0,0
2:00.919,43531,(,0,0,1
2:00.958,43545,N,0,0,0
2:00.986,43555,),0,0,1
2:01.114,43601,(,0,0,2
2:01.247,43649,t,0,0,0
2:01.294,43666,),0,0,2
2:01.431,43715,(,0,0,0
2:01.475,43731,p,0,0,0
2:01.531,43751,),0,0,0
2:01.569,43765,(,0,0,1
2:01.608,43779,N,0,0,0
2:01.639,43790,),0,0,1
2:01.783,43842,(,0,0,2
2:01.900,43884,t,0,0,0
2:01.958,43905,),0,0,2
2:02.072,43946,(,0,0,0
2:02.114,43961,p,0,0,0
2:02.164,43979,),0,0,0
2:02.203,43993,(,0,0,1
2:02.242,44007,N,0,0,0
2:02.278,44020,),0,0,1
2:02.469,44089,(,0,0,2
2:02.539,44114,t,0,0,0
2:02.592,44133,),0,0,2
2:02.711,44176,(,0,0,0
2:02.747,44189,p,0,0,0
2:02.800,44208,),0,0,0
2:02.833,44220,(,0,0,1
2:02.872,44234,N,0,0,0
2:02.900,44244,),0,0,1
2:03.122,44324,(,0,0,2
2:03.172,44342,t,0,0,0
2:03.197,44351,),0,0,2
2:03.350,44406,(,0,0,0
2:03.397,44423,p,0,0,0
2:03.450,44442,),0,0,0
2:03.486,44455,(,0,0,1
2:03.522,44468,N,0,0,0
2:03.550,44478,),0,0,1
2:03.667,44520,(,0,0,2
2:03.811,44572,t,0,0,0
2:03.858,44589,),0,0,2
2:03.992,44637,(,0,0,0
2:04.039,44654,p,0,0,0
2:04.092,44673,),0,0,0
2:04.131,44687,(,0,0,1
2:04.169,44701,N,0,0,0
2:04.197,44711,),0,0,1
2:04.400,44784,(,0,0,2
2:04.444,44800,t,0,0,0
2:04.494,44818,),0,0,2
2:04.628,44866,(,0,0,0
2:04.678,44884,p,0,0,0
2:04.731,44903,),0,0,0
2:04.772,44918,(,0,0,1
2:04.808,44931,N,0,0,0
2:04.836,44941,),0,0,1
2:05.058,45021,(,0,0,2
2:05.103,45037,t,0,0,0
2:05.144,45052,),0,0,2
2:05.281,45101,(,0,0,0
2:05.319,45115,p,0,0,0
2:05.372,45134,),0,0,0
2:05.414,45149,(,0,0,1
2:05.450,45162,N,0,0,0
2:05.475,45171,),0,0,1
2:05.692,45249,(,0,0,2
2:05.733,45264,t,0,0,0
2:05.769,45277,),0,0,2
2:05.914,45329,(,0,0,0
2:05.953,45343,p,0,0,0
2:06.000,45360,),0,0,0
2:06.047,45377,(,0,0,1
2:06.083,45390,N,0,0,0
2:06.114,45401,),0,0,1
2:06.306,45470,(,0,0,2
2:06.353,45487,t,0,0,0
2:06.383,45498,),0,0,2
2:06.517,45546,(,0,0,0
2:06.567,45564,p,0,0,0
2:06.614,45581,),0,0,0
2:06.658,45597,(,0,0,1
2:06.694,45610,N,0,0,0
2:06.722,45620,),0,0,1
2:06.917,45690,(,0,0,2
2:06.931,45695,t,0,0,4
2:06.978,45712,t,0,0,4
2:07.000,45720,),0,0,2
2:07.167,45780,(,0,0,0
2:07.206,45794,p,0,0,0
2:07.250,45810,),0,0,0
2:07.292,45825,(,0,0,1
2:07.331,45839,N,0,0,0
2:07.358,45849,),0,0,1
2:07.581,45929,(,0,0,2
2:07.622,45944,t,0,0,0
2:07.706,45974,),0,0,2
2:07.822,46016,(,0,0,0
2:07.861,46030,p,0,0,0
2:07.911,46048,),0,0,0
2:07.953,46063,(,0,0,1
2:07.992,46077,N,0,0,0
2:08.019,46087,),0,0,1
2:08.472,46250,(,0,0,0
2:08.517,46266,p,0,0,0
2:08.564,46283,),0,0,0
2:08.603,46297,(,0,0,1
2:08.642,46311,N,0,0,0
2:08.669,46321,),0,0,1
2:09.103,46477,(,0,0,0
2:09.153,46495,p,0,0,0
2:09.208,46515,),0,0,0
2:09.244,46528,(,0,0,1
2:09.283,46542,N,0,0,0
2:09.311,46552,),0,0,1
2:09.522,46628,(,0,0,2
2:09.569,46645,t,0,0,0
2:09.608,46659,),0,0,2
2:09.761,46714,(,0,0,0
2:09.800,46728,p,0,0,0
2:09.850,46746,),0,0,0
2:09.897,46763,(,0,0,1
2:09.933,46776,N,0,0,0
2:09.961,46786,),0,0,1
2:10.186,46867,(,0,0,2
2:10.228,46882,t,0,0,0
2:10.267,46896,),0,0,2
2:10.408,46947,(,0,0,0
2:10.453,46963,p,0,0,0
2:10.500,46980,),0,0,0
2:10.544,46996,(,0,0,1
2:10.581,47009,N,0,0,0
2:10.608,47019,),0,0,1
2:10.836,47101,(,0,0,2
2:10.883,47118,t,0,0,0
2:10.939,47138,),0,0,2
2:11.064,47183,(,0,0,0
2:11.111,47200,p,0,0,0
2:11.164,47219,),0,0,0
2:11.203,47233,(,0,0,1
2:11.239,47246,N,0,0,0
2:11.278,47260,),0,0,1
2:11.486,47335,(,0,0,2
2:11.539,47354,t,0,0,0
2:11.569,47365,),0,0,2
2:11.731,47423,(,0,0,0
2:11.772,47438,p,0,0,0
2:11.822,47456,),0,0,0
2:11.867,47472,(,0,0,1
2:11.903,47485,N,0,0,0
2:11.942,47499,),0,0,1
2:12.133,47568,(,0,0,2
2:12.183,47586,t,0,0,0
2:12.228,47602,),0,0,2
2:12.361,47650,(,0,0,0
2:12.408,47667,p,0,0,0
2:12.461,47686,),0,0,0
2:12.503,47701,(,0,0,1
2:12.539,47714,N,0,0,0
2:12.567,47724,),0,0,1
2:12.781,47801,(,0,0,2
2:12.825,47817,t,0,0,0
2:12.864,47831,),0,0,2
2:13.011,47884,(,0,0,0
2:13.050,47898,p,0,0,0
2:13.103,47917,),0,0,0
2:13.142,47931,(,0,0,1
2:13.181,47945,N,0,0,0
2:13.208,47955,),0,0,1
2:13.428,48034,(,0,0,2
2:13.472,48050,t,0,0,0
2:13.503,48061,),0,0,2
2:13.661,48118,(,0,0,0
2:13.703,48133,p,0,0,0
2:13.753,48151,),0,0,0
2:13.794,48166,(,0,0,1
2:13.833,48180,N,0,0,0
2:13.861,48190,),0,0,1
2:14.089,48272,(,0,0,2
2:14.136,48289,t,0,0,0
2:14.164,48299,),0,0,2
2:14.331,48359,(,0,0,0
2:14.375,48375,p,0,0,0
2:14.433,48396,),0,0,0
2:14.472,48410,(,0,0,1
2:14.511,48424,N,0,0,0
2:14.539,48434,),0,0,1
2:14.992,48597,(,0,0,0
2:15.033,48612,p,0,0,0
2:15.086,48631,),0,0,0
2:15.131,48647,(,0,0,1
2:15.167,48660,N,0,0,0
2:15.197,48671,),0,0,1
2:15.406,48746,(,0,0,2
2:15.458,48765,t,0,0,0
2:15.494,48778,),0,0,2
2:15.650,48834,(,0,0,0
2:15.686,48847,p,0,0,0
2:15.733,48864,),0,0,0
2:15.775,48879,(,0,0,1
2:15.811,48892,N,0,0,0
2:15.839,48902,),0,0,1
2:16.058,48981,(,0,0,2
2:16.103,48997,t,0,0,0
2:16.142,49011,),0,0,2
2:16.289,49064,(,0,0,0
2:16.331,49079,p,0,0,0
2:16.383,49098,),0,0,0
2:16.425,49113,(,0,0,1
2:16.458,49125,N,0,0,0
2:16.489,49136,),0,0,1
2:16.703,49213,(,0,0,2
2:16.753,49231,t,0,0,0
2:16.800,49248,),0,0,2
2:16.956,49304,(,0,0,0
2:16.994,49318,p,0,0,0
2:17.042,49335,),0,0,0
2:17.081,49349,(,0,0,1
2:17.117,49362,N,0,0,0
2:17.144,49372,),0,0,1
2:17.367,49452,(,0,0,2
2:17.414,49469,t,0,0,0
2:17.456,49484,),0,0,2
2:17.617,49542,(,0,0,0
2:17.656,49556,p,0,0,0
2:17.706,49574,),0,0,0
2:17.756,49592,(,0,0,1
2:17.789,49604,N,0,0,0
2:17.817,49614,),0,0,1
2:18.031,49691,(,0,0,2
2:18.081,49709,t,0,0,0
2:18.117,49722,),0,0,2
2:18.281,49781,(,0,0,0
2:18.322,49796,p,0,0,0
2:18.372,49814,),0,0,0
2:18.425,49833,(,0,0,1
2:18.461,49846,N,0,0,0
2:18.489,49856,),0,0,1
2:18.700,49932,(,0,0,2
2:18.750,49950,t,0,0,0
2:18.797,49967,),0,0,2
2:18.933,50016,(,0,0,0
2:18.978,50032,p,0,0,0
2:19.028,50050,),0,0,0
2:19.069,50065,(,0,0,1
2:19.106,50078,N,0,0,0
2:19.133,50088,),0,0,1
2:19.356,50168,(,0,0,2
2:19.400,50184,t,0,0,0
2:19.436,50197,),0,0,2
2:19.583,50250,(,0,0,0
2:19.622,50264,p,0,0,0
2:19.675,50283,),0,0,0
2:19.714,50297,(,0,0,1
2:19.753,50311,N,0,0,0
2:19.781,50321,),0,0,1
2:19.989,50396,(,0,0,2
2:20.033,50412,t,0,0,0
2:20.086,50431,),0,0,2
2:20.222,50480,(,0,0,0
2:20.264,50495,p,0,0,0
2:20.314,50513,),0,0,0
2:20.358,50529,(,0,0,1
2:20.394,50542,N,0,0,0
2:20.425,50553,),0,0,1
2:20.639,50630,(,0,0,2
2:20.689,50648,t,0,0,0
2:20.733,50664,),0,0,2
2:20.894,50722,(,0,0,0
2:20.939,50738,p,0,0,0
2:20.994,50758,),0,0,0
2:21.036,50773,(,0,0,1
2:21.072,50786,N,0,0,0
2:21.103,50797,),0,0,1
2:21.319,50875,(,0,0,2
2:21.361,50890,t,0,0,0
2:21.394,50902,),0,0,2
2:21.556,50960,(,0,0,0
2:21.597,50975,p,0,0,0
2:21.644,50992,),0,0,0
2:21.689,51008,(,0,0,1
2:21.728,51022,N,0,0,0
2:21.756,51032,),0,0,1
2:21.978,51112,(,0,0,2
2:22.017,51126,t,0,0,0
2:22.058,51141,),0,0,2
2:22.217,51198,(,0,0,0
2:22.256,51212,p,0,0,0
2:22.306,51230,),0,0,0
2:22.342,51243,(,0,0,1
2:22.381,51257,N,0,0,0
2:22.406,51266,),0,0,1
2:22.614,51341,(,0,0,2
2:22.672,51362,t,0,0,0
2:22.697,51371,),0,0,2
2:22.850,51426,(,0,0,0
2:22.894,51442,p,0,0,0
2:22.944,51460,),0,0,0
2:22.983,51474,(,0,0,1
2:23.019,51487,N,0,0,0
2:23.050,51498,),0,0,1
2:23.258,51573,(,0,0,2
2:23.314,51593,t,0,0,0
2:23.347,51605,),0,0,2
2:23.500,51660,(,0,0,0
2:23.547,51677,p,0,0,0
2:23.597,51695,),0,0,0
2:23.642,51711,(,0,0,1
2:23.678,51724,N,0,0,0
2:23.706,51734,),0,0,1
2:23.906,51806,(,0,0,2
2:23.953,51823,t,0,0,0
2:23.994,51838,),0,0,2
2:24.150,51894,(,0,0,0
2:24.189,51908,p,0,0,0
2:24.244,51928,),0,0,0
2:24.289,51944,(,0,0,1
2:24.325,51957,N,0,0,0
2:24.353,51967,),0,0,1
2:24.569,52045,(,0,0,2
2:24.617,52062,t,0,0,0
2:24.644,52072,),0,0,2
2:24.811,52132,(,0,0,0
2:24.853,52147,p,0,0,0
2:24.908,52167,),0,0,0
2:24.947,52181,(,0,0,1
2:24.992,52197,N,0,0,0
2:25.019,52207,),0,0,1
2:25.247,52289,(,0,0,2
2:25.294,52306,t,0,0,0
2:25.339,52322,),0,0,2
2:25.481,52373,(,0,0,0
2:25.522,52388,p,0,0,0
2:25.569,52405,),0,0,0
2:25.603,52417,(,0,0,1
2:25.642,52431,N,0,0,0
2:25.669,52441,),0,0,1
2:25.889,52520,(,0,0,2
2:25.928,52534,t,0,0,0
2:25.967,52548,),0,0,2
2:26.122,52604,(,0,0,0
2:26.161,52618,p,0,0,0
2:26.211,52636,),0,0,0
2:26.250,52650,(,0,0,1
2:26.289,52664,N,0,0,0
2:26.317,52674,),0,0,1
2:26.522,52748,(,0,0,2
2:26.569,52765,t,0,0,0
2:26.603,52777,),0,0,2
2:26.758,52833,(,0,0,0
2:26.800,52848,p,0,0,0
2:26.847,52865,),0,0,0
2:26.892,52881,(,0,0,1
2:26.928,52894,N,0,0,0
2:26.956,52904,),0,0,1
2:27.178,52984,(,0,0,2
2:27.222,53000,t,0,0,0
2:27.269,53017,),0,0,2
2:27.428,53074,(,0,0,0
2:27.467,53088,p,0,0,0
2:27.522,53108,),0,0,0
2:27.567,53124,(,0,0,1
2:27.606,53138,N,0,0,0
2:27.633,53148,),0,0,1
2:27.861,53230,(,0,0,2
2:27.906,53246,t,0,0,0
2:27.936,53257,),0,0,2
2:28.097,53315,(,0,0,0
2:28.136,53329,p,0,0,0
2:28.186,53347,),0,0,0
2:28.228,53362,(,0,0,1
2:28.261,53374,N,0,0,0
2:28.289,53384,),0,0,1
2:28.500,53460,(,0,0,2
2:28.547,53477,t,0,0,0
2:28.578,53488,),0,0,2
2:28.744,53548,(,0,0,0
2:28.783,53562,p,0,0,0
2:28.836,53581,),0,0,0
2:28.875,53595,(,0,0,1
2:28.911,53608,N,0,0,0
2:28.950,53622,),0,0,1
2:29.147,53693,(,0,0,2
2:29.189,53708,t,0,0,0
2:29.228,53722,),0,0,2
2:29.381,53777,(,0,0,0
2:29.419,53791,p,0,0,0
2:29.469,53809,),0,0,0
2:29.511,53824,(,0,0,1
2:29.547,53837,N,0,0,0
2:29.575,53847,),0,0,1
2:29.789,53924,(,0,0,2
2:29.825,53937,t,0,0,0
2:29.872,53954,),0,0,2
2:30.017,54006,(,0,0,0
2:30.058,54021,p,0,0,0
2:30.108,54039,),0,0,0
2:30.153,54055,(,0,0,1
2:30.192,54069,N,0,0,0
2:30.219,54079,),0,0,1
2:30.661,54238,(,0,0,0
2:30.697,54251,p,0,0,0
2:30.750,54270,),0,0,0
2:30.792,54285,(,0,0,1
2:30.828,54298,N,0,0,0
2:30.856,54308,),0,0,1
2:31.306,54470,(,0,0,0
2:31.350,54486,p,0,0,0
2:31.403,54505,),0,0,0
2:31.442,54519,(,0,0,1
2:31.481,54533,N,0,0,0
2:31.508,54543,),0,0,1
2:31.733,54624,(,0,0,2
2:31.783,54642,t,0,0,0
2:31.839,54662,),0,0,2
2:31.975,54711,(,0,0,0
2:32.017,54726,p,0,0,0
2:32.067,54744,),0,0,0
2:32.108,54759,(,0,0,1
2:32.142,54771,N,0,0,0
2:32.169,54781,),0,0,1
2:32.378,54856,(,0,0,2
2:32.422,54872,t,0,0,0
2:32.469,54889,),0,0,2
2:32.606,54938,(,0,0,0
2:32.647,54953,p,0,0,0
2:32.697,54971,),0,0,0
2:32.744,54988,(,0,0,1
2:32.781,55001,N,0,0,0
2:32.819,55015,),0,0,1
2:33.019,55087,(,0,0,2
2:33.061,55102,t,0,0,0
2:33.094,55114,),0,0,2
2:33.239,55166,(,0,0,0
2:33.281,55181,p,0,0,0
2:33.331,55199,),0,0,0
2:33.369,55213,(,0,0,1
2:33.406,55226,N,0,0,0
2:33.433,55236,),0,0,1
2:33.644,55312,(,0,0,2
2:33.697,55331,t,0,0,0
2:33.739,55346,),0,0,2
2:33.881,55397,(,0,0,0
2:33.922,55412,p,0,0,0
2:33.972,55430,),0,0,0
2:34.022,55448,(,0,0,1
2:34.058,55461,N,0,0,0
2:34.089,55472,),0,0,1
2:34.319,55555,(,0,0,2
2:34.364,55571,t,0,0,0
2:34.406,55586,),0,0,2
2:34.556,55640,(,0,0,0
2:34.600,55656,p,0,0,0
2:34.650,55674,),0,0,0
2:34.694,55690,(,0,0,1
2:34.731,55703,N,0,0,0
2:34.758,55713,),0,0,1
2:34.967,55788,(,0,0,2
2:35.006,55802,t,0,0,0
2:35.061,55822,),0,0,2
2:35.194,55870,(,0,0,0
2:35.236,55885,p,0,0,0
2:35.289,55904,),0,0,0
2:35.331,55919,(,0,0,1
2:35.369,55933,N,0,0,0
2:35.397,55943,),0,0,1
2:35.828,56098,(,0,0,0
2:35.869,56113,p,0,0,0
2:35.917,56130,),0,0,0
2:35.961,56146,(,0,0,1
2:35.997,56159,N,0,0,0
2:36.025,56169,),0,0,1
2:36.242,56247,(,0,0,2
2:36.289,56264,t,0,0,0
2:36.322,56276,),0,0,2
2:36.469,56329,(,0,0,0
2:36.508,56343,p,0,0,0
2:36.556,56360,),0,0,0
2:36.600,56376,(,0,0,1
2:36.636,56389,N,0,0,0
2:36.667,56400,),0,0,1
2:36.892,56481,(,0,0,2
2:36.939,56498,t,0,0,0
2:36.986,56515,),0,0,2
2:37.122,56564,(,0,0,0
2:37.161,56578,p,0,0,0
2:37.214,56597,),0,0,0
2:37.253,56611,(,0,0,1
2:37.286,56623,N,0,0,0
2:37.325,56637,),0,0,1
2:37.772,56798,(,0,0,0
2:37.811,56812,p,0,0,0
2:37.864,56831,),0,0,0
2:37.906,56846,(,0,0,1
2:37.942,56859,N,0,0,0
2:37.981,56873,),0,0,1
2:38.156,56936,(,0,0,2
2:38.169,56941,t,0,0,4
2:38.231,56963,t,0,0,4
2:38.275,56979,),0,0,2
2:38.433,57036,(,0,0,0
2:38.469,57049,p,0,0,0
2:38.522,57068,),0,0,0
2:38.567,57084,(,0,0,1
2:38.606,57098,N,0,0,0
2:38.633,57108,),0,0,1
2:39.072,57266,(,0,0,0
2:39.119,57283,p,0,0,0
2:39.172,57302,),0,0,0
2:39.211,57316,(,0,0,1
2:39.250,57330,N,0,0,0
2:39.281,57341,),0,0,1
2:39.400,57384,(,0,0,2
2:39.553,57439,t,0,0,0
2:39.592,57453,),0,0,2
2:39.731,57503,(,0,0,0
2:39.769,57517,p,0,0,0
2:39.817,57534,),0,0,0
2:39.861,57550,(,0,0,1
2:39.897,57563,N,0,0,0
2:39.925,57573,),0,0,1
2:40.131,57647,(,0,0,2
2:40.178,57664,t,0,0,0
2:40.214,57677,),0,0,2
2:40.361,57730,(,0,0,0
2:40.400,57744,p,0,0,0
2:40.453,57763,),0,0,0
2:40.497,57779,(,0,0,1
2:40.533,57792,N,0,0,0
2:40.561,57802,),0,0,1
2:40.786,57883,(,0,0,2
2:40.825,57897,t,0,0,0
2:40.856,57908,),0,0,2
2:41.017,57966,(,0,0,0
2:41.061,57982,p,0,0,0
2:41.111,58000,),0,0,0
2:41.164,58019,(,0,0,1
2:41.200,58032,N,0,0,0
2:41.231,58043,),0,0,1
2:41.450,58122,(,0,0,2
2:41.494,58138,t,0,0,0
2:41.542,58155,),0,0,2
2:41.678,58204,(,0,0,0
2:41.719,58219,p,0,0,0
2:41.769,58237,),0,0,0
2:41.811,58252,(,0,0,1
2:41.847,58265,N,0,0,0
2:41.875,58275,),0,0,1
2:42.097,58355,(,0,0,2
2:42.142,58371,t,0,0,0
2:42.206,58394,),0,0,2
2:42.322,58436,(,0,0,0
2:42.361,58450,p,0,0,0
2:42.411,58468,),0,0,0
2:42.453,58483,(,0,0,1
2:42.489,58496,N,0,0,0
2:42.525,58509,),0,0,1
2:42.947,58661,(,0,0,0
2:42.994,58678,p,0,0,0
2:43.042,58695,),0,0,0
2:43.083,58710,(,0,0,1
2:43.119,58723,N,0,0,0
2:43.158,58737,),0,0,1
2:43.353,58807,(,0,0,2
2:43.403,58825,t,0,0,0
2:43.444,58840,),0,0,2
2:43.586,58891,(,0,0,0
2:43.631,58907,p,0,0,0
2:43.683,58926,),0,0,0
2:43.728,58942,(,0,0,1
2:43.764,58955,N,0,0,0
2:43.792,58965,),0,0,1
2:43.994,59038,(,0,0,2
2:44.039,59054,t,0,0,0
2:44.097,59075,),0,0,2
2:44.214,59117,(,0,0,0
2:44.258,59133,p,0,0,0
2:44.314,59153,),0,0,0
2:44.356,59168,(,0,0,1
2:44.394,59182,N,0,0,0
2:44.425,59193,),0,0,1
2:44.550,59238,(,0,0,2
2:44.683,59286,t,0,0,0
2:44.725,59301,),0,0,2
2:44.864,59351,(,0,0,0
2:44.906,59366,p,0,0,0
2:44.958,59385,),0,0,0
2:45.003,59401,(,0,0,1
2:45.042,59415,N,0,0,0
2:45.069,59425,),0,0,1
2:45.297,59507,(,0,0,2
2:45.344,59524,t,0,0,0
2:45.378,59536,),0,0,2
2:45.525,59589,(,0,0,0
2:45.567,59604,p,0,0,0
2:45.617,59622,),0,0,0
2:45.656,59636,(,0,0,1
2:45.692,59649,N,0,0,0
2:45.719,59659,),0,0,1
2:45.931,59735,(,0,0,2
2:45.975,59751,t,0,0,0
2:46.008,59763,),0,0,2
2:46.161,59818,(,0,0,0
2:46.206,59834,p,0,0,0
2:46.256,59852,),0,0,0
2:46.300,59868,(,0,0,1
2:46.336,59881,N,0,0,0
2:46.364,59891,),0,0,1
2:46.572,59966,(,0,0,2
2:46.625,59985,t,0,0,0
2:46.667,60000,),0,0,2
2:46.797,60047,(,0,0,0
2:46.836,60061,p,0,0,0
2:46.886,60079,),0,0,0
2:46.928,60094,(,0,0,1
2:46.964,60107,N,0,0,0
2:46.992,60117,),0,0,1
2:47.208,60195,(,0,0,2
2:47.253,60211,t,0,0,0
2:47.289,60224,),0,0,2
2:47.436,60277,(,0,0,0
2:47.489,60296,p,0,0,0
2:47.539,60314,),0,0,0
2:47.581,60329,(,0,0,1
2:47.619,60343,N,0,0,0
2:47.650,60354,),0,0,1
2:47.875,60435,(,0,0,2
2:47.922,60452,t,0,0,0
2:47.964,60467,),0,0,2
2:48.117,60522,(,0,0,0
2:48.161,60538,p,0,0,0
2:48.211,60556,),0,0,0
2:48.253,60571,(,0,0,1
2:48.289,60584,N,0,0,0
2:48.314,60593,),0,0,1
2:48.525,60669,(,0,0,2
2:48.569,60685,t,0,0,0
2:48.608,60699,),0,0,2
2:48.769,60757,(,0,0,0
2:48.811,60772,p,0,0,0
2:48.864,60791,),0,0,0
2:48.906,60806,(,0,0,1
2:48.942,60819,N,0,0,0
2:48.969,60829,),0,0,1
2:49.406,60986,(,0,0,0
2:49.444,61000,p,0,0,0
2:49.500,61020,),0,0,0
2:49.542,61035,(,0,0,1
2:49.575,61047,N,0,0,0
2:49.603,61057,),0,0,1
2:49.811,61132,(,0,0,2
2:49.858,61149,t,0,0,0
2:49.908,61167,),0,0,2
2:50.044,61216,(,0,0,0
2:50.086,61231,p,0,0,0
2:50.139,61250,),0,0,0
2:50.181,61265,(,0,0,1
2:50.222,61280,N,0,0,0
2:50.250,61290,),0,0,1
2:50.469,61369,(,0,0,2
2:50.525,61389,t,0,0,0
2:50.575,61407,),0,0,2
2:50.706,61454,(,0,0,0
2:50.742,61467,p,0,0,0
2:50.794,61486,),0,0,0
2:50.836,61501,(,0,0,1
2:50.872,61514,N,0,0,0
2:50.900,61524,),0,0,1
2:51.358,61689,(,0,0,0
2:51.403,61705,p,0,0,0
2:51.456,61724,),0,0,0
2:51.494,61738,(,0,0,1
2:51.531,61751,N,0,0,0
2:51.558,61761,),0,0,1
2:51.781,61841,(,0,0,2
2:51.828,61858,t,0,0,0
2:51.867,61872,),0,0,2
2:52.019,61927,(,0,0,0
2:52.067,61944,p,0,0,0
2:52.117,61962,),0,0,0
2:52.161,61978,(,0,0,1
2:52.197,61991,N,0,0,0
2:52.225,62001,),0,0,1
2:52.431,62075,(,0,0,2
2:52.478,62092,t,0,0,0
2:52.503,62101,),0,0,2
2:52.658,62157,(,0,0,0
2:52.708,62175,p,0,0,0
2:52.761,62194,),0,0,0
2:52.800,62208,(,0,0,1
2:52.839,62222,N,0,0,0
2:52.867,62232,),0,0,1
2:53.086,62311,(,0,0,2
2:53.131,62327,t,0,0,0
2:53.167,62340,),0,0,2
2:53.314,62393,(,0,0,0
2:53.358,62409,p,0,0,0
2:53.411,62428,),0,0,0
2:53.450,62442,(,0,0,1
2:53.486,62455,N,0,0,0
2:53.525,62469,),0,0,1
2:53.725,62541,(,0,0,2
2:53.769,62557,t,0,0,0
2:53.808,62571,),0,0,2
2:53.975,62631,(,0,0,0
2:54.014,62645,p,0,0,0
2:54.064,62663,),0,0,0
2:54.108,62679,(,0,0,1
2:54.147,62693,N,0,0,0
2:54.189,62708,),0,0,1
2:54.394,62782,(,0,0,2
2:54.442,62799,t,0,0,0
2:54.475,62811,),0,0,2
2:54.650,62874,(,0,0,0
2:54.694,62890,p,0,0,0
2:54.750,62910,),0,0,0
2:54.789,62924,(,0,0,1
2:54.828,62938,N,0,0,0
2:54.867,62952,),0,0,1
2:55.067,63024,(,0,0,2
2:55.111,63040,t,0,0,0
2:55.142,63051,),0,0,2
2:55.300,63108,(,0,0,0
2:55.336,63121,p,0,0,0
2:55.392,63141,),0,0,0
2:55.436,63157,(,0,0,1
2:55.472,63170,N,0,0,0
2:55.503,63181,),0,0,1
2:55.714,63257,(,0,0,2
2:55.764,63275,t,0,0,0
2:55.806,63290,),0,0,2
2:55.944,63340,(,0,0,0
2:55.981,63353,p,0,0,0
2:56.031,63371,),0,0,0
2:56.067,63384,(,0,0,1
2:56.103,63397,N,0,0,0
2:56.142,63411,),0,0,1
2:56.350,63486,(,0,0,2
2:56.394,63502,t,0,0,0
2:56.425,63513,),0,0,2
2:56.578,63568,(,0,0,0
2:56.614,63581,p,0,0,0
2:56.664,63599,),0,0,0
2:56.706,63614,(,0,0,1
2:56.744,63628,N,0,0,0
2:56.772,63638,),0,0,1
2:56.994,63718,(,0,0,2
2:57.031,63731,t,0,0,0
2:57.081,63749,),0,0,2
2:57.228,63802,(,0,0,0
2:57.269,63817,p,0,0,0
2:57.317,63834,),0,0,0
2:57.350,63846,(,0,0,1
2:57.392,63861,N,0,0,0
2:57.417,63870,),0,0,1
2:57.858,64029,(,0,0,0
2:57.908,64047,p,0,0,0
2:57.961,64066,),0,0,0
2:58.003,64081,(,0,0,1
2:58.039,64094,N,0,0,0
2:58.069,64105,),0,0,1
2:58.275,64179,(,0,0,2
2:58.328,64198,t,0,0,0
2:58.381,64217,),0,0,2
2:58.517,64266,(,0,0,0
2:58.567,64284,p,0,0,0
2:58.619,64303,),0,0,0
2:58.664,64319,(,0,0,1
2:58.703,64333,N,0,0,0
2:58.733,64344,),0,0,1
2:58.936,64417,(,0,0,2
2:58.992,64437,t,0,0,0
2:59.028,64450,),0,0,2
2:59.172,64502,(,0,0,0
2:59.211,64516,p,0,0,0
2:59.261,64534,),0,0,0
2:59.300,64548,(,0,0,1
2:59.336,64561,N,0,0,0
2:59.367,64572,),0,0,1
2:59.581,64649,(,0,0,2
2:59.631,64667,t,0,0,0
2:59.667,64680,),0,0,2
2:59.814,64733,(,0,0,0
2:59.853,64747,p,0,0,0
2:59.903,64765,),0,0,0
2:59.944,64780,(,0,0,1
2:59.981,64793,N,0,0,0
3:00.008,64803,),0,0,1
3:00.447,64961,(,0,0,0
3:00.486,64975,p,0,0,0
3:00.539,64994,),0,0,0
3:00.578,65008,(,0,0,1
3:00.617,65022,N,0,0,0
3:00.644,65032,),0,0,1
3:00.869,65113,(,0,0,2
3:00.911,65128,t,0,0,0
3:00.967,65148,),0,0,2
3:01.108,65199,(,0,0,0
3:01.153,65215,p,0,0,0
3:01.208,65235,),0,0,0
3:01.250,65250,(,0,0,1
3:01.289,65264,N,0,0,0
3:01.317,65274,),0,0,1
3:01.542,65355,(,0,0,2
3:01.589,65372,t,0,0,0
3:01.636,65389,),0,0,2
3:01.769,65437,(,0,0,0
3:01.811,65452,p,0,0,0
3:01.861,65470,),0,0,0
3:01.903,65485,(,0,0,1
3:01.942,65499,N,0,0,0
3:01.969,65509,),0,0,1
3:02.192,65589,(,0,0,2
3:02.233,65604,t,0,0,0
3:02.275,65619,),0,0,2
3:02.422,65672,(,0,0,0
3:02.467,65688,p,0,0,0
3:02.517,65706,),0,0,0
3:02.556,65720,(,0,0,1
3:02.592,65733,N,0,0,0
3:02.619,65743,),0,0,1
3:02.731,65783,(,0,0,2
3:02.872,65834,t,0,0,0
3:02.917,65850,),0,0,2
3:03.064,65903,(,0,0,0
3:03.106,65918,p,0,0,0
3:03.153,65935,),0,0,0
3:03.197,65951,(,0,0,1
3:03.233,65964,N,0,0,0
3:03.261,65974,),0,0,1
3:03.472,66050,(,0,0,2
3:03.514,66065,t,0,0,0
3:03.553,66079,),0,0,2
3:03.711,66136,(,0,0,0
3:03.753,66151,p,0,0,0
3:03.803,66169,),0,0,0
3:03.847,66185,(,0,0,1
3:03.886,66199,N,0,0,0
3:03.928,66214,),0,0,1
3:04.119,66283,(,0,0,2
3:04.164,66299,t,0,0,0
3:04.208,66315,),0,0,2
3:04.344,66364,(,0,0,0
3:04.392,66381,p,0,0,0
3:04.444,66400,),0,0,0
3:04.486,66415,(,0,0,1
3:04.525,66429,N,0,0,0
3:04.553,66439,),0,0,1
3:04.778,66520,(,0,0,2
3:04.819,66535,t,0,0,0
3:04.878,66556,),0,0,2
3:05.006,66602,(,0,0,0
3:05.050,66618,p,0,0,0
3:05.108,66639,),0,0,0
3:05.150,66654,(,0,0,1
3:05.189,66668,N,0,0,0
3:05.219,66679,),0,0,1
3:05.453,66763,(,0,0,2
3:05.492,66777,t,0,0,0
3:05.542,66795,),0,0,2
3:05.686,66847,(,0,0,0
3:05.725,66861,p,0,0,0
3:05.778,66880,),0,0,0
3:05.814,66893,(,0,0,1
3:05.850,66906,N,0,0,0
3:05.878,66916,),0,0,1
3:06.086,66991,(,0,0,2
3:06.133,67008,t,0,0,0
3:06.189,67028,),0,0,2
3:06.319,67075,(,0,0,0
3:06.367,67092,p,0,0,0
3:06.417,67110,),0,0,0
3:06.458,67125,(,0,0,1
3:06.500,67140,N,0,0,0
3:06.528,67150,),0,0,1
3:06.725,67221,(,0,0,2
3:06.781,67241,t,0,0,0
3:06.819,67255,),0,0,2
3:06.953,67303,(,0,0,0
3:06.994,67318,p,0,0,0
3:07.047,67337,),0,0,0
3:07.086,67351,(,0,0,1
3:07.125,67365,N,0,0,0
3:07.153,67375,),0,0,1
3:07.358,67449,(,0,0,2
3:07.414,67469,t,0,0,0
3:07.456,67484,),0,0,2
3:07.594,67534,(,0,0,0
3:07.644,67552,p,0,0,0
3:07.703,67573,),0,0,0
3:07.744,67588,(,0,0,1
3:07.781,67601,N,0,0,0
3:07.808,67611,),0,0,1
3:08.022,67688,(,0,0,2
3:08.086,67711,t,0,0,0
3:08.117,67722,),0,0,2
3:08.272,67778,(,0,0,0
3:08.314,67793,p,0,0,0
3:08.364,67811,),0,0,0
3:08.406,67826,(,0,0,1
3:08.442,67839,N,0,0,0
3:08.469,67849,),0,0,1
3:08.678,67924,(,0,0,2
3:08.719,67939,t,0,0,0
3:08.750,67950,),0,0,2
3:08.917,68010,(,0,0,0
3:08.958,68025,p,0,0,0
3:09.008,68043,),0,0,0
3:09.053,68059,(,0,0,1
3:09.092,68073,N,0,0,0
3:09.131,68087,),0,0,1
3:09.222,68120,(,0,0,2
3:09.369,68173,t,0,0,0
3:09.411,68188,),0,0,2
3:09.547,68237,(,0,0,0
3:09.586,68251,p,0,0,0
3:09.639,68270,),0,0,0
3:09.678,68284,(,0,0,1
3:09.714,68297,N,0,0,0
3:09.744,68308,),0,0,1
3:09.825,68337,(,0,0,2
3:10.000,68400,t,0,0,0
3:10.050,68418,),0,0,2
3:10.183,68466,(,0,0,0
3:10.219,68479,p,0,0,0
3:10.272,68498,),0,0,0
3:10.314,68513,(,0,0,1
3:10.353,68527,N,0,0,0
3:10.383,68538,),0,0,1
3:10.603,68617,(,0,0,2
3:10.650,68634,t,0,0,0
3:10.708,68655,),0,0,2
3:10.822,68696,(,0,0,0
3:10.867,68712,p,0,0,0
3:10.914,68729,),0,0,0
3:10.956,68744,(,0,0,1
3:10.992,68757,N,0,0,0
3:11.031,68771,),0,0,1
3:11.219,68839,(,0,0,2
3:11.286,68863,t,0,0,0
3:11.319,68875,),0,0,2
3:11.467,68928,(,0,0,0
3:11.506,68942,p,0,0,0
3:11.561,68962,),0,0,0
3:11.600,68976,(,0,0,1
3:11.639,68990,N,0,0,0
3:11.667,69000,),0,0,1
3:11.881,69077,(,0,0,2
3:11.931,69095,t,0,0,0
3:11.969,69109,),0,0,2
3:12.114,69161,(,0,0,0
3:12.158,69177,p,0,0,0
3:12.214,69197,),0,0,0
3:12.256,69212,(,0,0,1
3:12.292,69225,N,0,0,0
3:12.331,69239,),0,0,1
3:12.536,69313,(,0,0,2
3:12.586,69331,t,0,0,0
3:12.622,69344,),0,0,2
3:12.750,69390,(,0,0,0
3:12.794,69406,p,0,0,0
3:12.844,69424,),0,0,0
3:12.886,69439,(,0,0,1
3:12.925,69453,N,0,0,0
3:12.967,69468,),0,0,1
3:13.164,69539,(,0,0,2
3:13.217,69558,t,0,0,0
3:13.247,69569,),0,0,2
3:13.389,69620,(,0,0,0
3:13.433,69636,p,0,0,0
3:13.481,69653,),0,0,0
3:13.517,69666,(,0,0,1
3:13.556,69680,N,0,0,0
3:13.594,69694,),0,0,1
3:13.794,69766,(,0,0,2
3:13.839,69782,t,0,0,0
3:13.878,69796,),0,0,2
3:14.019,69847,(,0,0,0
3:14.061,69862,p,0,0,0
3:14.114,69881,),0,0,0
3:14.153,69895,(,0,0,1
3:14.194,69910,N,0,0,0
3:14.222,69920,),0,0,1
3:14.450,70002,(,0,0,2
3:14.492,70017,t,0,0,0
3:14.542,70035,),0,0,2
3:14.683,70086,(,0,0,0
3:14.728,70102,p,0,0,0
3:14.783,70122,),0,0,0
3:14.825,70137,(,0,0,1
3:14.867,70152,N,0,0,0
3:14.894,70162,),0,0,1
3:15.117,70242,(,0,0,2
3:15.161,70258,t,0,0,0
3:15.211,70276,),0,0,2
3:15.339,70322,(,0,0,0
3:15.381,70337,p,0,0,0
3:15.431,70355,),0,0,0
3:15.475,70371,(,0,0,1
3:15.511,70384,N,0,0,0
3:15.539,70394,),0,0,1
3:15.756,70472,(,0,0,2
3:15.806,70490,t,0,0,0
3:15.878,70516,),0,0,2
3:15.986,70555,(,0,0,0
3:16.025,70569,p,0,0,0
3:16.075,70587,),0,0,0
3:16.117,70602,(,0,0,1
3:16.150,70614,N,0,0,0
3:16.178,70624,),0,0,1
3:16.383,70698,(,0,0,2
3:16.431,70715,t,0,0,0
3:16.461,70726,),0,0,2
3:16.611,70780,(,0,0,0
3:16.656,70796,p,0,0,0
3:16.708,70815,),0,0,0
3:16.744,70828,(,0,0,1
3:16.781,70841,N,0,0,0
3:16.808,70851,),0,0,1
3:17.258,71013,(,0,0,0
3:17.303,71029,p,0,0,0
3:17.358,71049,),0,0,0
3:17.394,71062,(,0,0,1
3:17.439,71078,N,0,0,0
3:17.467,71088,),0,0,1
3:17.667,71160,(,0,0,2
3:17.717,71178,t,0,0,0
3:17.756,71192,),0,0,2
3:17.892,71241,(,0,0,0
3:17.939,71258,p,0,0,0
3:17.992,71277,),0,0,0
3:18.033,71292,(,0,0,1
3:18.072,71306,N,0,0,0
3:18.103,71317,),0,0,1
3:18.308,71391,(,0,0,2
3:18.369,71413,t,0,0,0
3:18.419,71431,),0,0,2
3:18.553,71479,(,0,0,0
3:18.594,71494,p,0,0,0
3:18.647,71513,),0,0,0
3:18.689,71528,(,0,0,1
3:18.728,71542,N,0,0,0
3:18.758,71553,),0,0,1
3:18.975,71631,(,0,0,2
3:19.028,71650,t,0,0,0
3:19.067,71664,),0,0,2
3:19.211,71716,(,0,0,0
3:19.250,71730,p,0,0,0
3:19.297,71747,),0,0,0
3:19.333,71760,(,0,0,1
3:19.375,71775,N,0,0,0
3:19.403,71785,),0,0,1
3:19.614,71861,(,0,0,2
3:19.653,71875,t,0,0,0
3:19.694,71890,),0,0,2
3:19.847,71945,(,0,0,0
3:19.889,71960,p,0,0,0
3:19.939,71978,),0,0,0
3:19.978,71992,(,0,0,1
3:20.017,72006,N,0,0,0
3:20.047,72017,),0,0,1
3:20.472,72170,(,0,0,0
3:20.508,72183,p,0,0,0
3:20.561,72202,),0,0,0
3:20.586,72211,(,0,0,1
3:20.639,72230,N,0,0,0
3:20.675,72243,),0,0,1
3:20.878,72316,(,0,0,2
3:20.931,72335,t,0,0,0
3:20.956,72344,),0,0,2
3:21.003,72361,(,0,0,0
3:21.017,72366,p,0,0,0
3:21.150,72414,),0,0,0
3:21.172,72422,(,0,0,1
3:21.292,72465,N,0,0,0
3:21.342,72483,),0,0,1
3:21.542,72555,(,0,0,2
3:21.606,72578,t,0,0,0
3:21.647,72593,),0,0,2
3:21.786,72643,(,0,0,0
3:21.828,72658,p,0,0,0
3:21.878,72676,),0,0,0
3:21.892,72681,(,0,0,1
3:21.953,72703,N,0,0,0
3:21.989,72716,),0,0,1
3:22.183,72786,(,0,0,2
3:22.242,72807,t,0,0,0
3:22.283,72822,),0,0,2
3:22.425,72873,(,0,0,0
3:22.472,72890,p,0,0,0
3:22.528,72910,),0,0,0
3:22.553,72919,(,0,0,1
3:22.606,72938,N,0,0,0
3:22.642,72951,),0,0,1
3:22.833,73020,(,0,0,2
3:22.886,73039,t,0,0,0
3:22.914,73049,),0,0,2
3:23.053,73099,(,0,0,0
3:23.103,73117,p,0,0,0
3:23.153,73135,),0,0,0
3:23.181,73145,(,0,0,1
3:23.231,73163,N,0,0,0
3:23.267,73176,),0,0,1
3:23.700,73332,(,0,0,0
3:23.744,73348,p,0,0,0
3:23.797,73367,),0,0,0
3:23.822,73376,(,0,0,1
3:23.875,73395,N,0,0,0
3:23.911,73408,),0,0,1
3:24.122,73484,(,0,0,2
3:24.175,73503,t,0,0,0
3:24.214,73517,),0,0,2
3:24.356,73568,(,0,0,0
3:24.397,73583,p,0,0,0
3:24.447,73601,),0,0,0
3:24.464,73607,(,0,0,1
3:24.522,73628,N,0,0,0
3:24.553,73639,),0,0,1
3:24.767,73716,(,0,0,2
3:24.831,73739,t,0,0,0
3:24.856,73748,),0,0,2
3:25.008,73803,(,0,0,0
3:25.056,73820,p,0,0,0
3:25.103,73837,),0,0,0
3:25.125,73845,(,0,0,1
3:25.183,73866,N,0,0,0
3:25.222,73880,),0,0,1
3:25.417,73950,(,0,0,2
3:25.494,73978,t,0,0,0
3:25.519,73987,),0,0,2
3:25.672,74042,(,0,0,0
3:25.719,74059,p,0,0,0
3:25.769,74077,),0,0,0
3:25.789,74084,(,0,0,1
3:25.853,74107,N,0,0,0
3:25.900,74124,),0,0,1
3:26.089,74192,(,0,0,2
3:26.144,74212,t,0,0,0
3:26.192,74229,),0,0,2
3:26.328,74278,(,0,0,0
3:26.372,74294,p,0,0,0
3:26.428,74314,),0,0,0
3:26.456,74324,(,0,0,1
3:26.506,74342,N,0,0,0
3:26.542,74355,),0,0,1
3:26.750,74430,(,0,0,2
3:26.808,74451,t,0,0,0
3:26.858,74469,),0,0,2
3:26.989,74516,(,0,0,0
3:27.033,74532,p,0,0,0
3:27.083,74550,),0,0,0
3:27.122,74564,(,0,0,1
3:27.161,74578,N,0,0,0
3:27.189,74588,),0,0,1
3:27.394,74662,(,0,0,2
3:27.444,74680,t,0,0,0
3:27.486,74695,),0,0,2
3:27.642,74751,(,0,0,0
3:27.681,74765,p,0,0,0
3:27.728,74782,),0,0,0
3:27.778,74800,(,0,0,1
3:27.814,74813,N,0,0,0
3:27.842,74823,),0,0,1
3:28.067,74904,(,0,0,2
3:28.111,74920,t,0,0,0
3:28.178,74944,),0,0,2
3:28.308,74991,(,0,0,0
3:28.347,75005,p,0,0,0
3:28.400,75024,),0,0,0
3:28.450,75042,(,0,0,1
3:28.486,75055,N,0,0,0
3:28.517,75066,),0,0,1
3:28.725,75141,(,0,0,2
3:28.775,75159,t,0,0,0
3:28.800,75168,),0,0,2
3:28.964,75227,(,0,0,0
3:29.006,75242,p,0,0,0
3:29.061,75262,),0,0,0
3:29.097,75275,(,0,0,1
3:29.136,75289,N,0,0,0
3:29.175,75303,),0,0,1
3:29.392,75381,(,0,0,2
3:29.439,75398,t,0,0,0
3:29.492,75417,),0,0,2
3:29.622,75464,(,0,0,0
3:29.658,75477,p,0,0,0
3:29.714,75497,),0,0,0
3:29.747,75509,(,0,0,1
3:29.781,75521,N,0,0,0
3:29.808,75531,),0,0,1
3:30.256,75692,(,0,0,0
3:30.297,75707,p,0,0,0
3:30.344,75724,),0,0,0
3:30.386,75739,(,0,0,1
3:30.422,75752,N,0,0,0
3:30.450,75762,),0,0,1
3:30.658,75837,(,0,0,2
3:30.708,75855,t,0,0,0
3:30.753,75871,),0,0,2
3:30.897,75923,(,0,0,0
3:30.942,75939,p,0,0,0
3:30.992,75957,),0,0,0
3:31.033,75972,(,0,0,1
3:31.069,75985,N,0,0,0
3:31.097,75995,),0,0,1
3:31.300,76068,(,0,0,2
3:31.344,76084,t,0,0,0
3:31.383,76098,),0,0,2
3:31.531,76151,(,0,0,0
3:31.575,76167,p,0,0,0
3:31.622,76184,),0,0,0
3:31.675,76203,(,0,0,1
3:31.714,76217,N,0,0,0
3:31.742,76227,),0,0,1
3:31.956,76304,(,0,0,2
3:32.006,76322,t,0,0,0
3:32.033,76332,),0,0,2
3:32.189,76388,(,0,0,0
3:32.231,76403,p,0,0,0
3:32.281,76421,),0,0,0
3:32.325,76437,(,0,0,1
3:32.361,76450,N,0,0,0
3:32.392,76461,),0,0,1
3:32.611,76540,(,0,0,2
3:32.664,76559,t,0,0,0
3:32.717,76578,),0,0,2
3:32.839,76622,(,0,0,0
3:32.883,76638,p,0,0,0
3:32.936,76657,),0,0,0
3:32.975,76671,(,0,0,1
3:33.008,76683,N,0,0,0
3:33.047,76697,),0,0,1
3:33.250,76770,(,0,0,2
3:33.294,76786,t,0,0,0
3:33.342,76803,),0,0,2
3:33.472,76850,(,0,0,0
3:33.519,76867,p,0,0,0
3:33.569,76885,),0,0,0
3:33.614,76901,(,0,0,1
3:33.650,76914,N,0,0,0
3:33.678,76924,),0,0,1
3:33.881,76997,(,0,0,2
3:33.922,77012,t,0,0,0
3:33.953,77023,),0,0,2
3:34.108,77079,(,0,0,0
3:34.150,77094,p,0,0,0
3:34.197,77111,),0,0,0
3:34.239,77126,(,0,0,1
3:34.275,77139,N,0,0,0
3:34.306,77150,),0,0,1
3:34.525,77229,(,0,0,2
3:34.572,77246,t,0,0,0
3:34.625,77265,),0,0,2
3:34.767,77316,(,0,0,0
3:34.803,77329,p,0,0,0
3:34.856,77348,),0,0,0
3:34.897,77363,(,0,0,1
3:34.936,77377,N,0,0,0
3:34.964,77387,),0,0,1
3:35.114,77441,(,0,0,2
3:35.208,77475,t,0,0,0
3:35.297,77507,),0,0,2
3:35.425,77553,(,0,0,0
3:35.467,77568,p,0,0,0
3:35.519,77587,),0,0,0
3:35.553,77599,(,0,0,1
3:35.592,77613,N,0,0,0
3:35.619,77623,),0,0,1
3:35.831,77699,(,0,0,2
3:35.881,77717,t,0,0,0
3:35.928,77734,),0,0,2
3:36.072,77786,(,0,0,0
3:36.114,77801,p,0,0,0
3:36.167,77820,),0,0,0
3:36.206,77834,(,0,0,1
3:36.244,77848,N,0,0,0
3:36.281,77861,),0,0,1
3:36.478,77932,(,0,0,2
3:36.519,77947,t,0,0,0
3:36.586,77971,),0,0,2
3:36.694,78010,(,0,0,0
3:36.739,78026,p,0,0,0
3:36.789,78044,),0,0,0
3:36.833,78060,(,0,0,1
3:36.872,78074,N,0,0,0
3:36.900,78084,),0,0,1
3:37.078,78148,(,0,0,2
3:37.094,78154,t,0,0,4
3:37.158,78177,t,0,0,4
3:37.192,78189,),0,0,2
3:37.347,78245,(,0,0,0
3:37.386,78259,p,0,0,0
3:37.444,78280,),0,0,0
3:37.486,78295,(,0,0,1
3:37.519,78307,N,0,0,0
3:37.550,78318,),0,0,1
3:37.761,78394,(,0,0,2
3:37.819,78415,t,0,0,0
3:37.856,78428,),0,0,2
3:37.994,78478,(,0,0,0
3:38.039,78494,p,0,0,0
3:38.089,78512,),0,0,0
3:38.128,78526,(,0,0,1
3:38.167,78540,N,0,0,0
3:38.197,78551,),0,0,1
3:38.667,78720,(,0,0,0
3:38.708,78735,p,0,0,0
3:38.758,78753,),0,0,0
3:38.800,78768,(,0,0,1
3:38.839,78782,N,0,0,0
3:38.867,78792,),0,0,1
3:39.089,78872,(,0,0,2
3:39.133,78888,t,0,0,0
3:39.183,78906,),0,0,2
3:39.333,78960,(,0,0,0
3:39.372,78974,p,0,0,0
3:39.425,78993,),0,0,0
3:39.472,79010,(,0,0,1
3:39.508,79023,N,0,0,0
3:39.544,79036,),0,0,1
3:39.747,79109,(,0,0,2
3:39.794,79126,t,0,0,0
3:39.844,79144,),0,0,2
3:39.972,79190,(,0,0,0
3:40.014,79205,p,0,0,0
3:40.064,79223,),0,0,0
3:40.114,79241,(,0,0,1
3:40.150,79254,N,0,0,0
3:40.178,79264,),0,0,1
3:40.386,79339,(,0,0,2
3:40.439,79358,t,0,0,0
3:40.475,79371,),0,0,2
3:40.617,79422,(,0,0,0
3:40.653,79435,p,0,0,0
3:40.708,79455,),0,0,0
3:40.744,79468,(,0,0,1
3:40.781,79481,N,0,0,0
3:40.808,79491,),0,0,1
3:41.028,79570,(,0,0,2
3:41.075,79587,t,0,0,0
3:41.114,79601,),0,0,2
3:41.267,79656,(,0,0,0
3:41.308,79671,p,0,0,0
3:41.358,79689,),0,0,0
3:41.406,79706,(,0,0,1
3:41.444,79720,N,0,0,0
3:41.483,79734,),0,0,1
3:41.692,79809,(,0,0,2
3:41.742,79827,t,0,0,0
3:41.808,79851,),0,0,2
3:41.942,79899,(,0,0,0
3:41.978,79912,p,0,0,0
3:42.039,79934,),0,0,0
3:42.072,79946,(,0,0,1
3:42.114,79961,N,0,0,0
3:42.144,79972,),0,0,1
3:42.589,80132,(,0,0,0
3:42.633,80148,p,0,0,0
3:42.681,80165,),0,0,0
3:42.728,80182,(,0,0,1
3:42.764,80195,N,0,0,0
3:42.792,80205,),0,0,1
3:43.003,80281,(,0,0,2
3:43.047,80297,t,0,0,0
3:43.097,80315,),0,0,2
3:43.231,80363,(,0,0,0
3:43.269,80377,p,0,0,0
3:43.322,80396,),0,0,0
3:43.361,80410,(,0,0,1
3:43.397,80423,N,0,0,0
3:43.425,80433,),0,0,1
3:43.639,80510,(,0,0,2
3:43.692,80529,t,0,0,0
3:43.731,80543,),0,0,2
3:43.875,80595,(,0,0,0
3:43.917,80610,p,0,0,0
3:43.961,80626,),0,0,0
3:44.006,80642,(,0,0,1
3:44.044,80656,N,0,0,0
3:44.083,80670,),0,0,1
3:44.286,80743,(,0,0,2
3:44.339,80762,t,0,0,0
3:44.369,80773,),0,0,2
3:44.522,80828,(,0,0,0
3:44.569,80845,p,0,0,0
3:44.619,80863,),0,0,0
3:44.658,80877,(,0,0,1
3:44.694,80890,N,0,0,0
3:44.722,80900,),0,0,1
3:44.925,80973,(,0,0,2
3:44.972,80990,t,0,0,0
3:45.011,81004,),0,0,2
3:45.169,81061,(,0,0,0
3:45.211,81076,p,0,0,0
3:45.264,81095,),0,0,0
3:45.308,81111,(,0,0,1
3:45.347,81125,N,0,0,0
3:45.375,81135,),0,0,1
3:45.583,81210,(,0,0,2
3:45.631,81227,t,0,0,0
3:45.669,81241,),0,0,2
3:45.833,81300,(,0,0,0
3:45.872,81314,p,0,0,0
3:45.925,81333,),0,0,0
3:45.967,81348,(,0,0,1
3:46.006,81362,N,0,0,0
3:46.033,81372,),0,0,1
3:46.261,81454,(,0,0,2
3:46.306,81470,t,0,0,0
3:46.339,81482,),0,0,2
3:46.489,81536,(,0,0,0
3:46.528,81550,p,0,0,0
3:46.581,81569,),0,0,0
3:46.617,81582,(,0,0,1
3:46.653,81595,N,0,0,0
3:46.683,81606,),0,0,1
3:46.897,81683,(,0,0,2
3:46.944,81700,t,0,0,0
3:46.992,81717,),0,0,2
3:47.128,81766,(,0,0,0
3:47.167,81780,p,0,0,0
3:47.219,81799,),0,0,0
3:47.256,81812,(,0,0,1
3:47.289,81824,N,0,0,0
3:47.317,81834,),0,0,1
3:47.522,81908,(,0,0,2
3:47.569,81925,t,0,0,0
3:47.619,81943,),0,0,2
3:47.756,81992,(,0,0,0
3:47.797,82007,p,0,0,0
3:47.850,82026,),0,0,0
3:47.892,82041,(,0,0,1
3:47.931,82055,N,0,0,0
3:47.958,82065,),0,0,1
3:48.161,82138,(,0,0,2
3:48.222,82160,t,0,0,0
3:48.250,82170,),0,0,2
3:48.411,82228,(,0,0,0
3:48.458,82245,p,0,0,0
3:48.508,82263,),0,0,0
3:48.553,82279,(,0,0,1
3:48.592,82293,N,0,0,0
3:48.622,82304,),0,0,1
3:48.842,82383,(,0,0,2
3:48.889,82400,t,0,0,0
3:48.950,82422,),0,0,2
3:49.072,82466,(,0,0,0
3:49.119,82483,p,0,0,0
3:49.169,82501,),0,0,0
3:49.214,82517,(,0,0,1
3:49.250,82530,N,0,0,0
3:49.278,82540,),0,0,1
3:49.389,82580,(,0,0,2
3:49.547,82637,t,0,0,0
3:49.592,82653,),0,0,2
3:49.731,82703,(,0,0,0
3:49.775,82719,p,0,0,0
3:49.822,82736,),0,0,0
3:49.864,82751,(,0,0,1
3:49.900,82764,N,0,0,0
3:49.928,82774,),0,0,1
3:50.378,82936,(,0,0,0
3:50.417,82950,p,0,0,0
3:50.467,82968,),0,0,0
3:50.508,82983,(,0,0,1
3:50.547,82997,N,0,0,0
3:50.575,83007,),0,0,1
3:50.786,83083,(,0,0,2
3:50.833,83100,t,0,0,0
3:50.881,83117,),0,0,2
3:51.028,83170,(,0,0,0
3:51.067,83184,p,0,0,0
3:51.122,83204,),0,0,0
3:51.167,83220,(,0,0,1
3:51.206,83234,N,0,0,0
3:51.233,83244,),0,0,1
3:51.444,83320,(,0,0,2
3:51.483,83334,t,0,0,0
3:51.517,83346,),0,0,2
3:51.667,83400,(,0,0,0
3:51.711,83416,p,0,0,0
3:51.761,83434,),0,0,0
3:51.806,83450,(,0,0,1
3:51.844,83464,N,0,0,0
3:51.875,83475,),0,0,1
3:52.078,83548,(,0,0,2
3:52.092,83553,t,0,0,4
3:52.144,83572,t,0,0,4
3:52.189,83588,),0,0,2
3:52.328,83638,(,0,0,0
3:52.372,83654,p,0,0,0
3:52.422,83672,),0,0,0
3:52.467,83688,(,0,0,1
3:52.503,83701,N,0,0,0
3:52.531,83711,),0,0,1
3:52.758,83793,(,0,0,2
3:52.803,83809,t,0,0,0
3:52.825,83817,),0,0,2
3:53.006,83882,(,0,0,0
3:53.044,83896,p,0,0,0
3:53.094,83914,),0,0,0
3:53.136,83929,(,0,0,1
3:53.172,83942,N,0,0,0
3:53.200,83952,),0,0,1
3:53.414,84029,(,0,0,2
3:53.453,84043,t,0,0,0
3:53.517,84066,),0,0,2
3:53.658,84117,(,0,0,0
3:53.697,84131,p,0,0,0
3:53.747,84149,),0,0,0
3:53.783,84162,(,0,0,1
3:53.825,84177,N,0,0,0
3:53.853,84187,),0,0,1
3:54.061,84262,(,0,0,2
3:54.103,84277,t,0,0,0
3:54.131,84287,),0,0,2
3:54.292,84345,(,0,0,0
3:54.328,84358,p,0,0,0
3:54.381,84377,),0,0,0
3:54.422,84392,(,0,0,1
3:54.461,84406,N,0,0,0
3:54.492,84417,),0,0,1
3:54.939,84578,(,0,0,0
3:54.983,84594,p,0,0,0
3:55.039,84614,),0,0,0
3:55.083,84630,(,0,0,1
3:55.119,84643,N,0,0,0
3:55.150,84654,),0,0,1
3:55.617,84822,(,0,0,0
3:55.658,84837,p,0,0,0
3:55.717,84858,),0,0,0
3:55.758,84873,(,0,0,1
3:55.792,84885,N,0,0,0
3:55.819,84895,),0,0,1
3:56.033,84972,(,0,0,2
3:56.089,84992,t,0,0,0
3:56.122,85004,),0,0,2
3:56.267,85056,(,0,0,0
3:56.311,85072,p,0,0,0
3:56.361,85090,),0,0,0
3:56.406,85106,(,0,0,1
3:56.442,85119,N,0,0,0
3:56.481,85133,),0,0,1
3:56.678,85204,(,0,0,2
3:56.725,85221,t,0,0,0
3:56.750,85230,),0,0,2
3:56.892,85281,(,0,0,0
3:56.936,85297,p,0,0,0
3:56.981,85313,),0,0,0
3:57.033,85332,(,0,0,1
3:57.069,85345,N,0,0,0
3:57.097,85355,),0,0,1
3:57.314,85433,(,0,0,2
3:57.358,85449,t,0,0,0
3:57.389,85460,),0,0,2
3:57.536,85513,(,0,0,0
3:57.578,85528,p,0,0,0
3:57.628,85546,),0,0,0
3:57.675,85563,(,0,0,1
3:57.714,85577,N,0,0,0
3:57.742,85587,),0,0,1
3:57.967,85668,(,0,0,2
3:58.006,85682,t,0,0,0
3:58.058,85701,),0,0,2
3:58.189,85748,(,0,0,0
3:58.228,85762,p,0,0,0
3:58.275,85779,),0,0,0
3:58.322,85796,(,0,0,1
3:58.358,85809,N,0,0,0
3:58.386,85819,),0,0,1
3:58.603,85897,(,0,0,2
3:58.653,85915,t,0,0,0
3:58.683,85926,),0,0,2
3:58.850,85986,(,0,0,0
3:58.892,86001,p,0,0,0
3:58.942,86019,),0,0,0
3:58.978,86032,(,0,0,1
3:59.017,86046,N,0,0,0
3:59.044,86056,),0,0,1
3:59.267,86136,(,0,0,2
3:59.311,86152,t,0,0,0
3:59.358,86169,),0,0,2
3:59.511,86224,(,0,0,0
3:59.553,86239,p,0,0,0
3:59.606,86258,),0,0,0
3:59.650,86274,(,0,0,1
3:59.689,86288,N,0,0,0
3:59.717,86298,),0,0,1
3:59.919,86371,(,0,0,2
3:59.967,86388,t,0,0,0
3:59.992,86397,),0,0,2
4:00.161,86458,(,0,0,0
4:00.200,86472,p,0,0,0
4:00.256,86492,),0,0,0
4:00.294,86506,(,0,0,1
4:00.331,86519,N,0,0,0
4:00.361,86530,),0,0,1
4:00.578,86608,(,0,0,2
4:00.619,86623,t,0,0,0
4:00.656,86636,),0,0,2
4:00.806,86690,(,0,0,0
4:00.847,86705,p,0,0,0
4:00.897,86723,),0,0,0
4:00.942,86739,(,0,0,1
4:00.978,86752,N,0,0,0
4:01.006,86762,),0,0,1
4:01.211,86836,(,0,0,2
4:01.267,86856,t,0,0,0
4:01.306,86870,),0,0,2
4:01.464,86927,(,0,0,0
4:01.503,86941,p,0,0,0
4:01.553,86959,),0,0,0
4:01.600,86976,(,0,0,1
4:01.642,86991,N,0,0,0
4:01.669,87001,),0,0,1
4:01.900,87084,(,0,0,2
4:01.942,87099,t,0,0,0
4:01.972,87110,),0,0,2
4:02.144,87172,(,0,0,0
4:02.194,87190,p,0,0,0
4:02.247,87209,),0,0,0
4:02.294,87226,(,0,0,1
4:02.331,87239,N,0,0,0
4:02.358,87249,),0,0,1
4:02.572,87326,(,0,0,2
4:02.625,87345,t,0,0,0
4:02.669,87361,),0,0,2
4:02.825,87417,(,0,0,0
4:02.861,87430,p,0,0,0
4:02.919,87451,),0,0,0
4:02.961,87466,(,0,0,1
4:03.000,87480,N,0,0,0
4:03.028,87490,),0,0,1
4:03.242,87567,(,0,0,2
4:03.297,87587,t,0,0,0
4:03.328,87598,),0,0,2
4:03.483,87654,(,0,0,0
4:03.519,87667,p,0,0,0
4:03.567,87684,),0,0,0
4:03.606,87698,(,0,0,1
4:03.644,87712,N,0,0,0
4:03.672,87722,),0,0,1
4:03.894,87802,(,0,0,2
4:03.942,87819,t,0,0,0
4:03.994,87838,),0,0,2
4:04.131,87887,(,0,0,0
4:04.172,87902,p,0,0,0
4:04.225,87921,),0,0,0
4:04.264,87935,(,0,0,1
4:04.300,87948,N,0,0,0
4:04.328,87958,),0,0,1
4:04.550,88038,(,0,0,2
4:04.592,88053,t,0,0,0
4:04.647,88073,),0,0,2
4:04.800,88128,(,0,0,0
4:04.839,88142,p,0,0,0
4:04.886,88159,),0,0,0
4:04.908,88167,(,0,0,1
4:04.964,88187,N,0,0,0
4:04.992,88197,),0,0,1
4:05.206,88274,(,0,0,2
4:05.256,88292,t,0,0,0
4:05.303,88309,),0,0,2
4:05.472,88370,(,0,0,0
4:05.511,88384,p,0,0,0
4:05.561,88402,),0,0,0
4:05.606,88418,(,0,0,1
4:05.642,88431,N,0,0,0
4:05.681,88445,),0,0,1
4:05.886,88519,(,0,0,2
4:05.933,88536,t,0,0,0
4:05.961,88546,),0,0,2
4:06.139,88610,(,0,0,0
4:06.183,88626,p,0,0,0
4:06.233,88644,),0,0,0
4:06.278,88660,(,0,0,1
4:06.319,88675,N,0,0,0
4:06.347,88685,),0,0,1
4:06.561,88762,(,0,0,2
4:06.606,88778,t,0,0,0
4:06.639,88790,),0,0,2
4:06.808,88851,(,0,0,0
4:06.842,88863,p,0,0,0
4:06.892,88881,),0,0,0
4:06.908,88887,(,0,0,1
4:06.972,88910,N,0,0,0
4:07.003,88921,),0,0,1
4:07.225,89001,(,0,0,2
4:07.264,89015,t,0,0,0
4:07.303,89029,),0,0,2
4:07.458,89085,(,0,0,0
4:07.500,89100,p,0,0,0
4:07.550,89118,),0,0,0
4:07.589,89132,(,0,0,1
4:07.625,89145,N,0,0,0
4:07.653,89155,),0,0,1
4:08.117,89322,(,0,0,0
4:08.158,89337,p,0,0,0
4:08.206,89354,),0,0,0
4:08.253,89371,(,0,0,1
4:08.289,89384,N,0,0,0
4:08.328,89398,),0,0,1
4:08.444,89440,(,0,0,2
4:08.458,89445,t,0,0,4
4:08.589,89492,t,0,0,4
4:08.619,89503,),0,0,2
4:08.800,89568,(,0,0,0
4:08.836,89581,p,0,0,0
4:08.892,89601,),0,0,0
4:08.936,89617,(,0,0,1
4:08.975,89631,N,0,0,0
4:09.003,89641,),0,0,1
4:09.192,89709,(,0,0,2
4:09.206,89714,t,0,0,4
4:09.261,89734,t,0,0,4
4:09.303,89749,),0,0,2
4:09.464,89807,(,0,0,0
4:09.500,89820,p,0,0,0
4:09.547,89837,),0,0,0
4:09.597,89855,(,0,0,1
4:09.633,89868,N,0,0,0
4:09.664,89879,),0,0,1
4:09.875,89955,(,0,0,2
4:09.925,89973,t,0,0,0
4:09.964,89987,),0,0,2
4:10.125,90045,(,0,0,0
4:10.158,90057,p,0,0,0
4:10.208,90075,),0,0,0
4:10.244,90088,(,0,0,1
4:10.283,90102,N,0,0,0
4:10.314,90113,),0,0,1
4:10.533,90192,(,0,0,2
4:10.578,90208,t,0,0,0
4:10.633,90228,),0,0,2
4:10.778,90280,(,0,0,0
4:10.819,90295,p,0,0,0
4:10.867,90312,),0,0,0
4:10.906,90326,(,0,0,1
4:10.944,90340,N,0,0,0
4:10.972,90350,),0,0,1
4:11.200,90432,(,0,0,2
4:11.242,90447,t,0,0,0
4:11.292,90465,),0,0,2
4:11.442,90519,(,0,0,0
4:11.486,90535,p,0,0,0
4:11.531,90551,),0,0,0
4:11.575,90567,(,0,0,1
4:11.611,90580,N,0,0,0
4:11.636,90589,),0,0,1
4:11.850,90666,(,0,0,2
4:11.900,90684,t,0,0,0
4:11.936,90697,),0,0,2
4:12.100,90756,(,0,0,0
4:12.156,90776,p,0,0,0
4:12.206,90794,),0,0,0
4:12.247,90809,(,0,0,1
4:12.286,90823,N,0,0,0
4:12.314,90833,),0,0,1
4:12.536,90913,(,0,0,2
4:12.603,90937,t,0,0,0
4:12.661,90958,),0,0,2
4:12.783,91002,(,0,0,0
4:12.828,91018,p,0,0,0
4:12.878,91036,),0,0,0
4:12.925,91053,(,0,0,1
4:12.967,91068,N,0,0,0
4:12.994,91078,),0,0,1
4:13.214,91157,(,0,0,2
4:13.264,91175,t,0,0,0
4:13.300,91188,),0,0,2
4:13.461,91246,(,0,0,0
4:13.500,91260,p,0,0,0
4:13.553,91279,),0,0,0
4:13.592,91293,(,0,0,1
4:13.628,91306,N,0,0,0
4:13.658,91317,),0,0,1
4:13.883,91398,(,0,0,2
4:13.922,91412,t,0,0,0
4:13.947,91421,),0,0,2
4:14.125,91485,(,0,0,0
4:14.161,91498,p,0,0,0
4:14.214,91517,),0,0,0
4:14.256,91532,(,0,0,1
4:14.294,91546,N,0,0,0
4:14.333,91560,),0,0,1
4:14.539,91634,(,0,0,2
4:14.586,91651,t,0,0,0
4:14.636,91669,),0,0,2
4:14.783,91722,(,0,0,0
4:14.828,91738,p,0,0,0
4:14.878,91756,),0,0,0
4:14.922,91772,(,0,0,1
4:14.958,91785,N,0,0,0
4:15.058,91821,),0,0,1
4:15.217,91878,(,0,0,2
4:15.267,91896,t,0,0,0
4:15.303,91909,),0,0,2
4:15.467,91968,(,0,0,0
4:15.517,91986,p,0,0,0
4:15.572,92006,),0,0,0
4:15.614,92021,(,0,0,1
4:15.656,92036,N,0,0,0
4:15.686,92047,),0,0,1
4:15.903,92125,(,0,0,2
4:15.950,92142,t,0,0,0
4:16.003,92161,),0,0,2
4:16.144,92212,(,0,0,0
4:16.189,92228,p,0,0,0
4:16.233,92244,),0,0,0
4:16.281,92261,(,0,0,1
4:16.317,92274,N,0,0,0
4:16.347,92285,),0,0,1
4:16.564,92363,(,0,0,2
4:16.617,92382,t,0,0,0
4:16.647,92393,),0,0,2
4:16.811,92452,(,0,0,0
4:16.850,92466,p,0,0,0
4:16.900,92484,),0,0,0
4:16.936,92497,(,0,0,1
4:16.972,92510,N,0,0,0
4:17.000,92520,),0,0,1
4:17.228,92602,(,0,0,2
4:17.267,92616,t,0,0,0
4:17.311,92632,),0,0,2
4:17.472,92690,(,0,0,0
4:17.508,92703,p,0,0,0
4:17.556,92720,),0,0,0
4:17.597,92735,(,0,0,1
4:17.633,92748,N,0,0,0
4:17.661,92758,),0,0,1
4:17.872,92834,(,0,0,2
4:17.922,92852,t,0,0,0
4:17.942,92859,),0,0,2
4:18.131,92927,(,0,0,0
4:18.172,92942,p,0,0,0
4:18.219,92959,),0,0,0
4:18.264,92975,(,0,0,1
4:18.300,92988,N,0,0,0
4:18.328,92998,),0,0,1
4:18.542,93075,(,0,0,2
4:18.586,93091,t,0,0,0
4:18.631,93107,),0,0,2
4:18.786,93163,(,0,0,0
4:18.833,93180,p,0,0,0
4:18.883,93198,),0,0,0
4:18.925,93213,(,0,0,1
4:18.964,93227,N,0,0,0
4:18.992,93237,),0,0,1
4:19.206,93314,(,0,0,2
4:19.244,93328,t,0,0,0
4:19.283,93342,),0,0,2
4:19.464,93407,(,0,0,0
4:19.506,93422,p,0,0,0
4:19.556,93440,),0,0,0
4:19.600,93456,(,0,0,1
4:19.639,93470,N,0,0,0
4:19.669,93481,),0,0,1
4:19.886,93559,(,0,0,2
4:19.939,93578,t,0,0,0
4:19.972,93590,),0,0,2
4:20.122,93644,(,0,0,0
4:20.167,93660,p,0,0,0
4:20.211,93676,),0,0,0
4:20.250,93690,(,0,0,1
4:20.292,93705,N,0,0,0
4:20.319,93715,),0,0,1
4:20.533,93792,(,0,0,2
4:20.589,93812,t,0,0,0
4:20.617,93822,),0,0,2
4:20.781,93881,(,0,0,0
4:20.817,93894,p,0,0,0
4:20.864,93911,),0,0,0
4:20.906,93926,(,0,0,1
4:20.944,93940,N,0,0,0
4:20.972,93950,),0,0,1
4:21.164,94019,(,0,0,2
4:21.225,94041,t,0,0,0
4:21.253,94051,),0,0,2
4:21.422,94112,(,0,0,0
4:21.464,94127,p,0,0,0
4:21.514,94145,),0,0,0
4:21.558,94161,(,0,0,1
4:21.597,94175,N,0,0,0
4:21.625,94185,),0,0,1
4:21.822,94256,(,0,0,2
4:21.839,94262,t,0,0,4
4:21.894,94282,t,0,0,4
4:21.928,94294,),0,0,2
4:22.106,94358,(,0,0,0
4:22.142,94371,p,0,0,0
4:22.194,94390,),0,0,0
4:22.242,94407,(,0,0,1
4:22.283,94422,N,0,0,0
4:22.311,94432,),0,0,1
4:22.531,94511,(,0,0,2
4:22.572,94526,t,0,0,0
4:22.636,94549,),0,0,2
4:22.772,94598,(,0,0,0
4:22.814,94613,p,0,0,0
4:22.864,94631,),0,0,0
4:22.908,94647,(,0,0,1
4:22.947,94661,N,0,0,0
4:22.975,94671,),0,0,1
4:23.197,94751,(,0,0,2
4:23.236,94765,t,0,0,0
4:23.269,94777,),0,0,2
4:23.442,94839,(,0,0,0
4:23.475,94851,p,0,0,0
4:23.522,94868,),0,0,0
4:23.561,94882,(,0,0,1
4:23.597,94895,N,0,0,0
4:23.633,94908,),0,0,1
4:24.083,95070,(,0,0,0
4:24.125,95085,p,0,0,0
4:24.178,95104,),0,0,0
4:24.211,95116,(,0,0,1
4:24.247,95129,N,0,0,0
4:24.275,95139,),0,0,1
4:24.739,95306,(,0,0,0
4:24.783,95322,p,0,0,0
4:24.833,95340,),0,0,0
4:24.875,95355,(,0,0,1
4:24.914,95369,N,0,0,0
4:24.942,95379,),0,0,1
4:25.144,95452,(,0,0,2
4:25.192,95469,t,0,0,0
4:25.264,95495,),0,0,2
4:25.403,95545,(,0,0,0
4:25.442,95559,p,0,0,0
4:25.494,95578,),0,0,0
4:25.539,95594,(,0,0,1
4:25.578,95608,N,0,0,0
4:25.606,95618,),0,0,1
4:25.806,95690,(,0,0,2
4:25.864,95711,t,0,0,0
4:25.906,95726,),0,0,2
4:26.067,95784,(,0,0,0
4:26.111,95800,p,0,0,0
4:26.161,95818,),0,0,0
4:26.211,95836,(,0,0,1
4:26.247,95849,N,0,0,0
4:26.275,95859,),0,0,1
4:26.506,95942,(,0,0,2
4:26.553,95959,t,0,0,0
4:26.594,95974,),0,0,2
4:26.747,96029,(,0,0,0
4:26.783,96042,p,0,0,0
4:26.833,96060,),0,0,0
4:26.878,96076,(,0,0,1
4:26.914,96089,N,0,0,0
4:26.942,96099,),0,0,1
4:27.164,96179,(,0,0,2
4:27.206,96194,t,0,0,0
4:27.242,96207,),0,0,2
4:27.403,96265,(,0,0,0
4:27.439,96278,p,0,0,0
4:27.492,96297,),0,0,0
4:27.508,96303,(,0,0,1
4:27.567,96324,N,0,0,0
4:27.594,96334,),0,0,1
4:27.800,96408,(,0,0,2
4:27.853,96427,t,0,0,0
4:27.894,96442,),0,0,2
4:28.036,96493,(,0,0,0
4:28.078,96508,p,0,0,0
4:28.131,96527,),0,0,0
4:28.175,96543,(,0,0,1
4:28.214,96557,N,0,0,0
4:28.253,96571,),0,0,1
4:28.464,96647,(,0,0,2
4:28.508,96663,t,0,0,0
4:28.542,96675,),0,0,2
4:28.703,96733,(,0,0,0
4:28.744,96748,p,0,0,0
4:28.794,96766,),0,0,0
4:28.842,96783,(,0,0,1
4:28.881,96797,N,0,0,0
4:28.911,96808,),0,0,1
4:29.139,96890,(,0,0,2
4:29.183,96906,t,0,0,0
4:29.211,96916,),0,0,2
4:29.372,96974,(,0,0,0
4:29.414,96989,p,0,0,0
4:29.469,97009,),0,0,0
4:29.506,97022,(,0,0,1
4:29.542,97035,N,0,0,0
4:29.569,97045,),0,0,1
4:29.786,97123,(,0,0,2
4:29.833,97140,t,0,0,0
4:29.867,97152,),0,0,2
4:30.019,97207,(,0,0,0
4:30.058,97221,p,0,0,0
4:30.108,97239,),0,0,0
4:30.147,97253,(,0,0,1
4:30.183,97266,N,0,0,0
4:30.225,97281,),0,0,1
4:30.647,97433,(,0,0,0
4:30.689,97448,p,0,0,0
4:30.739,97466,),0,0,0
4:30.778,97480,(,0,0,1
4:30.817,97494,N,0,0,0
4:30.844,97504,),0,0,1
4:31.053,97579,(,0,0,2
4:31.100,97596,t,0,0,0
4:31.142,97611,),0,0,2
4:31.281,97661,(,0,0,0
4:31.325,97677,p,0,0,0
4:31.375,97695,),0,0,0
4:31.422,97712,(,0,0,1
4:31.464,97727,N,0,0,0
4:31.492,97737,),0,0,1
4:31.706,97814,(,0,0,2
4:31.753,97831,t,0,0,0
4:31.783,97842,),0,0,2
4:31.917,97890,(,0,0,0
4:31.961,97906,p,0,0,0
4:32.011,97924,),0,0,0
4:32.056,97940,(,0,0,1
4:32.094,97954,N,0,0,0
4:32.122,97964,),0,0,1
4:32.339,98042,(,0,0,2
4:32.392,98061,t,0,0,0
4:32.425,98073,),0,0,2
4:32.569,98125,(,0,0,0
4:32.603,98137,p,0,0,0
4:32.653,98155,),0,0,0
4:32.697,98171,(,0,0,1
4:32.733,98184,N,0,0,0
4:32.764,98195,),0,0,1
4:32.981,98273,(,0,0,2
4:33.033,98292,t,0,0,0
4:33.089,98312,),0,0,2
4:33.214,98357,(,0,0,0
4:33.253,98371,p,0,0,0
4:33.308,98391,),0,0,0
4:33.344,98404,(,0,0,1
4:33.381,98417,N,0,0,0
4:33.408,98427,),0,0,1
4:33.597,98495,(,0,0,2
4:33.611,98500,t,0,0,4
4:33.664,98519,t,0,0,4
4:33.697,98531,),0,0,2
4:33.842,98583,(,0,0,0
4:33.878,98596,p,0,0,0
4:33.939,98618,),0,0,0
4:33.953,98623,(,0,0,1
4:34.008,98643,N,0,0,0
4:34.036,98653,),0,0,1
4:34.253,98731,(,0,0,2
4:34.300,98748,t,0,0,0
4:34.344,98764,),0,0,2
4:34.464,98807,(,0,0,0
4:34.503,98821,p,0,0,0
4:34.556,98840,),0,0,0
4:34.592,98853,(,0,0,1
4:34.631,98867,N,0,0,0
4:34.658,98877,),0,0,1
4:34.875,98955,(,0,0,2
4:34.931,98975,t,0,0,0
4:34.956,98984,),0,0,2
4:35.100,99036,(,0,0,0
4:35.139,99050,p,0,0,0
4:35.186,99067,),0,0,0
4:35.228,99082,(,0,0,1
4:35.267,99096,N,0,0,0
4:35.294,99106,),0,0,1
4:35.525,99189,(,0,0,2
4:35.564,99203,t,0,0,0
4:35.611,99220,),0,0,2
4:35.889,99320,(,0,0,1
4:35.922,99332,N,0,0,0
4:35.950,99342,),0,0,1
4:36.114,99401,t,0,0,2
4:36.208,99435,),0,0,2
4:36.525,99549,(,0,0,1
4:36.558,99561,N,0,0,0
4:36.586,99571,),0,0,1
4:36.811,99652,(,0,0,2
4:36.853,99667,t,0,0,0
4:36.883,99678,),0,0,2
4:36.892,99681,(,0,0,0
4:36.972,99710,p,0,0,0
4:37.056,99740,),0,0,0
4:37.133,99768,(,0,0,1
4:37.183,99786,N,0,0,0
4:37.211,99796,),0,0,1
4:37.436,99877,(,0,0,2
4:37.481,99893,t,0,0,0
4:37.517,99906,),0,0,2
4:37.783,100002,(,0,0,1
4:37.814,100013,N,0,0,0
4:37.842,100023,),0,0,1
4:38.064,100103,(,0,0,2
4:38.108,100119,t,0,0,0
4:38.142,100131,),0,0,2
4:38.408,100227,(,0,0,1
4:38.456,100244,N,0,0,0
4:38.481,100253,),0,0,1
4:38.692,100329,(,0,0,2
4:38.744,100348,t,0,0,0
4:38.792,100365,),0,0,2
4:39.075,100467,(,0,0,1
4:39.103,100477,N,0,0,0
4:39.131,100487,),0,0,1
4:39.344,100564,(,0,0,2
4:39.394,100582,t,0,0,0
4:39.444,100600,),0,0,2
4:39.722,100700,(,0,0,1
4:39.753,100711,N,0,0,0
4:39.781,100721,),0,0,1
4:40.003,100801,(,0,0,2
4:40.053,100819,t,0,0,0
4:40.108,100839,),0,0,2
4:40.358,100929,(,0,0,1
4:40.386,100939,N,0,0,0
4:40.417,100950,),0,0,1
4:40.631,101027,(,0,0,2
4:40.675,101043,t,0,0,0
4:40.711,101056,),0,0,2
4:40.989,101156,(,0,0,1
4:41.019,101167,N,0,0,0
4:41.047,101177,),0,0,1
4:41.253,101251,(,0,0,2
4:41.303,101269,t,0,0,0
4:41.347,101285,),0,0,2
4:41.617,101382,(,0,0,1
4:41.642,101391,N,0,0,0
4:41.669,101401,),0,0,1
4:41.883,101478,(,0,0,2
4:41.933,101496,t,0,0,0
4:41.969,101509,),0,0,2
4:42.258,101613,(,0,0,1
4:42.292,101625,N,0,0,0
4:42.319,101635,),0,0,1
4:42.908,101847,(,0,0,2
4:42.939,101858,t,0,0,0
4:42.981,101873,),0,0,2
5:01.475,108531,(,0,0,1
5:01.539,108554,N,0,0,0
5:01.564,108563,),0,0,1
5:02.139,108770,(,0,0,2
5:02.172,108782,t,0,0,0
5:02.214,108797,),0,0,2
5:30.347,118925,(,0,0,1
5:30.378,118936,N,0,0,0
5:30.406,118946,),0,0,1
5:31.003,119161,(,0,0,2
5:31.033,119172,t,0,0,0
5:31.075,119187,),0,0,2
5:34.264,120335,(,0,0,1
5:34.294,120346,N,0,0,0
5:34.319,120355,),0,0,1
5:34.911,120568,(,0,0,2
5:34.944,120580,t,0,0,0
5:34.986,120595,),0,0,2
5:35.567,120804,(,0,0,1
5:35.592,120813,N,0,0,0
5:35.619,120823,),0,0,1
5:36.247,121049,(,0,0,2
5:36.281,121061,t,0,0,0
5:36.319,121075,),0,0,2
5:37.592,121533,(,0,0,1
5:37.619,121543,N,0,0,0
5:37.647,121553,),0,0,1
5:38.236,121765,(,0,0,2
5:38.269,121777,t,0,0,0
5:38.308,121791,),0,0,2
5:40.222,122480,(,0,0,1
5:40.253,122491,N,0,0,0
5:40.281,122501,),0,0,1
5:40.889,122720,(,0,0,2
5:40.919,122731,t,0,0,0
5:40.961,122746,),0,0,2
5:52.122,126764,(,0,0,1
5:52.186,126787,N,0,0,0
5:52.214,126797,),0,0,1
5:52.817,127014,(,0,0,2
5:52.847,127025,t,0,0,0
5:52.889,127040,),0,0,2
5:54.203,127513,(,0,0,1
5:54.231,127523,N,0,0,0
5:54.258,127533,),0,0,1
5:54.867,127752,(,0,0,2
5:54.897,127763,t,0,0,0
5:54.939,127778,),0,0,2
5:56.206,128234,(,0,0,1
5:56.233,128244,N,0,0,0
5:56.261,128254,),0,0,1
5:56.881,128477,(,0,0,2
5:56.914,128489,t,0,0,0
5:56.953,128503,),0,0,2
5:59.531,129431,(,0,0,1
5:59.561,129442,N,0,0,0
5:59.589,129452,),0,0,1
5:59.817,129534,(,0,0,2
5:59.869,129553,t,0,0,0
5:59.903,129565,),0,0,2
6:00.189,129668,(,0,0,1
6:00.242,129687,N,0,0,0
6:00.272,129698,),0,0,1
6:00.892,129921,(,0,0,2
6:00.922,129932,t,0,0,0
6:00.964,129947,),0,0,2
6:02.911,130648,(,0,0,1
6:02.939,130658,N,0,0,0
6:02.967,130668,),0,0,1
6:03.594,130894,(,0,0,2
6:03.628,130906,t,0,0,0
6:03.669,130921,),0,0,2
6:06.972,132110,(,0,0,1
6:07.003,132121,N,0,0,0
6:07.031,132131,),0,0,1
6:07.656,132356,(,0,0,2
6:07.689,132368,t,0,0,0
6:07.731,132383,),0,0,2
6:26.786,139243,(,0,0,1
6:26.814,139253,N,0,0,0
6:26.844,139264,),0,0,1
6:27.056,139340,(,0,0,2
6:27.103,139357,t,0,0,0
6:27.156,139376,),0,0,2
6:27.450,139482,(,0,0,1
6:27.478,139492,N,0,0,0
6:27.506,139502,),0,0,1
6:27.733,139584,(,0,0,2
6:27.781,139601,t,0,0,0
6:27.828,139618,),0,0,2
6:28.111,139720,(,0,0,1
6:28.136,139729,N,0,0,0
6:28.164,139739,),0,0,1
6:28.381,139817,(,0,0,2
6:28.428,139834,t,0,0,0
6:28.450,139842,),0,0,2
6:28.761,139954,(,0,0,1
6:28.789,139964,N,0,0,0
6:28.814,139973,),0,0,1
6:29.036,140053,(,0,0,2
6:29.075,140067,t,0,0,0
6:29.111,140080,),0,0,2
6:29.406,140186,(,0,0,1
6:29.436,140197,N,0,0,0
6:29.464,140207,),0,0,1
6:29.678,140284,(,0,0,2
6:29.736,140305,t,0,0,0
6:29.789,140324,),0,0,2
6:30.083,140430,(,0,0,1
6:30.111,140440,N,0,0,0
6:30.139,140450,),0,0,1
6:30.375,140535,(,0,0,2
6:30.422,140552,t,0,0,0
6:30.458,140565,),0,0,2
6:30.753,140671,(,0,0,1
6:30.778,140680,N,0,0,0
6:30.833,140700,),0,0,1
6:31.019,140767,(,0,0,2
6:31.075,140787,t,0,0,0
6:31.108,140799,),0,0,2
6:31.414,140909,(,0,0,1
6:31.439,140918,N,0,0,0
6:31.464,140927,),0,0,1
6:31.667,141000,(,0,0,2
6:31.711,141016,t,0,0,0
6:31.750,141030,),0,0,2
6:32.056,141140,(,0,0,1
6:32.083,141150,N,0,0,0
6:32.108,141159,),0,0,1
6:32.311,141232,(,0,0,2
6:32.358,141249,t,0,0,0
6:32.417,141270,),0,0,2
6:32.661,141358,(,0,0,1
6:32.725,141381,N,0,0,0
6:32.753,141391,),0,0,1
6:32.964,141467,(,0,0,2
6:33.014,141485,t,0,0,0
6:33.053,141499,),0,0,2
6:33.344,141604,(,0,0,1
6:33.369,141613,N,0,0,0
6:33.397,141623,),0,0,1
6:33.594,141694,(,0,0,2
6:33.611,141700,t,0,0,4
6:33.672,141722,t,0,0,4
6:33.708,141735,),0,0,2
6:33.994,141838,(,0,0,1
6:34.025,141849,N,0,0,0
6:34.053,141859,),0,0,1
6:34.278,141940,(,0,0,2
6:34.331,141959,t,0,0,0
6:34.383,141978,),0,0,2
6:34.661,142078,(,0,0,1
6:34.692,142089,N,0,0,0
6:34.719,142099,),0,0,1
6:34.847,142145,(,0,0,2
6:34.975,142191,t,0,0,0
6:35.025,142209,),0,0,2
6:35.303,142309,(,0,0,1
6:35.331,142319,N,0,0,0
6:35.358,142329,),0,0,1
6:35.572,142406,(,0,0,2
6:35.622,142424,t,0,0,0
6:35.661,142438,),0,0,2
6:35.942,142539,(,0,0,1
6:35.969,142549,N,0,0,0
6:35.997,142559,),0,0,1
6:36.214,142637,(,0,0,2
6:36.261,142654,t,0,0,0
6:36.322,142676,),0,0,2
6:36.594,142774,(,0,0,1
6:36.622,142784,N,0,0,0
6:36.647,142793,),0,0,1
6:36.878,142876,(,0,0,2
6:36.925,142893,t,0,0,0
6:36.958,142905,),0,0,2
6:37.269,143017,(,0,0,1
6:37.297,143027,N,0,0,0
6:37.322,143036,),0,0,1
6:37.536,143113,(,0,0,2
6:37.586,143131,t,0,0,0
6:37.619,143143,),0,0,2
6:37.917,143250,(,0,0,1
6:37.947,143261,N,0,0,0
6:37.978,143272,),0,0,1
6:38.194,143350,(,0,0,2
6:38.244,143368,t,0,0,0
6:38.289,143384,),0,0,2
6:38.564,143483,(,0,0,1
6:38.592,143493,N,0,0,0
6:38.619,143503,),0,0,1
6:38.847,143585,(,0,0,2
6:38.894,143602,t,0,0,0
6:38.939,143618,),0,0,2
6:39.211,143716,(,0,0,1
6:39.242,143727,N,0,0,0
6:39.269,143737,),0,0,1
6:39.492,143817,(,0,0,2
6:39.533,143832,t,0,0,0
6:39.558,143841,),0,0,2
6:39.842,143943,(,0,0,1
6:39.900,143964,N,0,0,0
6:39.925,143973,),0,0,1
6:40.147,144053,(,0,0,2
6:40.183,144066,t,0,0,0
6:40.256,144092,),0,0,2
6:40.542,144195,(,0,0,1
6:40.569,144205,N,0,0,0
6:40.594,144214,),0,0,1
6:40.675,144243,(,0,0,2
6:40.692,144249,t,0,0,4
6:40.861,144310,t,0,0,4
6:40.917,144330,),0,0,2
6:41.219,144439,(,0,0,1
6:41.250,144450,N,0,0,0
6:41.278,144460,),0,0,1
6:41.867,144672,(,0,0,2
6:41.900,144684,t,0,0,0
6:41.939,144698,),0,0,2
6:44.511,145624,(,0,0,1
6:44.539,145634,N,0,0,0
6:44.567,145644,),0,0,1
6:45.153,145855,(,0,0,2
6:45.183,145866,t,0,0,0
6:45.222,145880,),0,0,2
6:48.433,147036,(,0,0,1
6:48.506,147062,N,0,0,0
6:48.533,147072,),0,0,1
6:48.747,147149,(,0,0,2
6:48.789,147164,t,0,0,0
6:48.844,147184,),0,0,2
6:49.142,147291,(,0,0,1
6:49.172,147302,N,0,0,0
6:49.197,147311,),0,0,1
6:49.403,147385,(,0,0,2
6:49.456,147404,t,0,0,0
6:49.506,147422,),0,0,2
6:49.806,147530,(,0,0,1
6:49.833,147540,N,0,0,0
6:49.861,147550,),0,0,1
6:50.081,147629,(,0,0,2
6:50.136,147649,t,0,0,0
6:50.178,147664,),0,0,2
6:50.506,147782,(,0,0,1
6:50.536,147793,N,0,0,0
6:50.561,147802,),0,0,1
6:50.781,147881,(,0,0,2
6:50.836,147901,t,0,0,0
6:50.883,147918,),0,0,2
6:51.164,148019,(,0,0,1
6:51.197,148031,N,0,0,0
6:51.225,148041,),0,0,1
6:51.444,148120,(,0,0,2
6:51.489,148136,t,0,0,0
6:51.531,148151,),0,0,2
6:51.828,148258,(,0,0,1
6:51.853,148267,N,0,0,0
6:51.881,148277,),0,0,1
6:52.472,148490,(,0,0,2
6:52.506,148502,t,0,0,0
6:52.544,148516,),0,0,2
6:53.153,148735,(,0,0,1
6:53.178,148744,N,0,0,0
6:53.206,148754,),0,0,1
6:53.411,148828,(,0,0,2
6:53.456,148844,t,0,0,0
6:53.486,148855,),0,0,2
6:53.797,148967,(,0,0,1
6:53.831,148979,N,0,0,0
6:53.858,148989,),0,0,1
6:54.075,149067,(,0,0,2
6:54.122,149084,t,0,0,0
6:54.161,149098,),0,0,2
6:54.300,149148,(,0,0,0
6:54.325,149157,p,0,0,0
6:54.353,149167,),0,0,0
6:54.444,149200,(,0,0,1
6:54.497,149219,N,0,0,0
6:54.528,149230,),0,0,1
6:54.747,149309,(,0,0,2
6:54.794,149326,t,0,0,0
6:54.833,149340,),0,0,2
6:55.125,149445,(,0,0,1
6:55.156,149456,N,0,0,0
6:55.183,149466,),0,0,1
6:55.397,149543,(,0,0,2
6:55.439,149558,t,0,0,0
6:55.481,149573,),0,0,2
6:55.781,149681,(,0,0,1
6:55.808,149691,N,0,0,0
6:55.836,149701,),0,0,1
6:56.039,149774,(,0,0,2
6:56.086,149791,t,0,0,0
6:56.142,149811,),0,0,2
6:56.417,149910,(,0,0,1
6:56.450,149922,N,0,0,0
6:56.478,149932,),0,0,1
6:56.692,150009,(,0,0,2
6:56.733,150024,t,0,0,0
6:56.772,150038,),0,0,2
6:57.086,150151,(,0,0,1
6:57.119,150163,N,0,0,0
6:57.147,150173,),0,0,1
6:57.372,150254,(,0,0,2
6:57.422,150272,t,0,0,0
6:57.467,150288,),0,0,2
6:57.569,150325,(,0,0,0
6:57.614,150341,p,0,0,0
6:57.658,150357,),0,0,0
6:57.758,150393,(,0,0,1
6:57.786,150403,N,0,0,0
6:57.811,150412,),0,0,1
6:58.031,150491,(,0,0,2
6:58.078,150508,t,0,0,0
6:58.133,150528,),0,0,2
6:58.414,150629,(,0,0,1
6:58.444,150640,N,0,0,0
6:58.472,150650,),0,0,1
6:58.675,150723,(,0,0,2
6:58.717,150738,t,0,0,0
6:58.761,150754,),0,0,2
6:59.039,150854,(,0,0,1
6:59.092,150873,N,0,0,0
6:59.119,150883,),0,0,1
6:59.728,151102,(,0,0,2
6:59.761,151114,t,0,0,0
6:59.803,151129,),0,0,2
7:00.386,151339,(,0,0,1
7:00.417,151350,N,0,0,0
7:00.444,151360,),0,0,1
7:00.664,151439,(,0,0,2
7:00.711,151456,t,0,0,0
7:00.744,151468,),0,0,2
7:01.061,151582,(,0,0,1
7:01.089,151592,N,0,0,0
7:01.114,151601,),0,0,1
7:01.344,151684,(,0,0,2
7:01.389,151700,t,0,0,0
7:01.436,151717,),0,0,2
7:01.731,151823,(,0,0,1
7:01.761,151834,N,0,0,0
7:01.789,151844,),0,0,1
7:02.006,151922,(,0,0,2
7:02.050,151938,t,0,0,0
7:02.083,151950,),0,0,2
7:02.381,152057,(,0,0,1
7:02.428,152074,N,0,0,0
7:02.456,152084,),0,0,1
7:02.553,152119,(,0,0,2
7:02.714,152177,t,0,0,0
7:02.769,152197,),0,0,2
7:03.050,152298,(,0,0,1
7:03.081,152309,N,0,0,0
7:03.106,152318,),0,0,1
7:03.319,152395,(,0,0,2
7:03.372,152414,t,0,0,0
7:03.431,152435,),0,0,2
7:03.728,152542,(,0,0,1
7:03.756,152552,N,0,0,0
7:03.786,152563,),0,0,1
7:04.025,152649,(,0,0,2
7:04.064,152663,t,0,0,0
7:04.108,152679,),0,0,2
7:04.408,152787,(,0,0,1
7:04.436,152797,N,0,0,0
7:04.464,152807,),0,0,1
7:04.678,152884,(,0,0,2
7:04.728,152902,t,0,0,0
7:04.764,152915,),0,0,2
7:05.072,153026,(,0,0,1
7:05.103,153037,N,0,0,0
7:05.131,153047,),0,0,1
7:05.333,153120,(,0,0,2
7:05.378,153136,t,0,0,0
7:05.431,153155,),0,0,2
7:05.561,153202,(,0,0,0
7:05.581,153209,p,0,0,0
7:05.608,153219,),0,0,0
7:05.700,153252,(,0,0,1
7:05.744,153268,N,0,0,0
7:05.797,153287,),0,0,1
7:05.983,153354,(,0,0,2
7:06.025,153369,t,0,0,0
7:06.056,153380,),0,0,2
7:06.372,153494,(,0,0,1
7:06.400,153504,N,0,0,0
7:06.428,153514,),0,0,1
7:06.525,153549,(,0,0,2
7:06.661,153598,t,0,0,0
7:06.750,153630,),0,0,2
7:07.031,153731,(,0,0,1
7:07.058,153741,N,0,0,0
7:07.086,153751,),0,0,1
7:07.692,153969,(,0,0,2
7:07.725,153981,t,0,0,0
7:07.764,153995,),0,0,2
7:08.383,154218,(,0,0,1
7:08.411,154228,N,0,0,0
7:08.433,154236,),0,0,1
7:08.656,154316,(,0,0,2
7:08.692,154329,t,0,0,0
7:08.742,154347,),0,0,2
7:09.039,154454,(,0,0,1
7:09.072,154466,N,0,0,0
7:09.097,154475,),0,0,1
7:09.700,154692,(,0,0,2
7:09.731,154703,t,0,0,0
7:09.769,154717,),0,0,2
7:18.489,157856,(,0,0,1
7:18.533,157872,N,0,0,0
7:18.561,157882,),0,0,1
7:18.764,157955,(,0,0,2
7:18.811,157972,t,0,0,0
7:18.842,157983,),0,0,2
7:19.125,158085,(,0,0,1
7:19.183,158106,N,0,0,0
7:19.211,158116,),0,0,1
7:19.414,158189,(,0,0,2
7:19.458,158205,t,0,0,0
7:19.497,158219,),0,0,2
7:19.789,158324,(,0,0,1
7:19.842,158343,N,0,0,0
7:19.869,158353,),0,0,1
7:20.422,158552,(,0,0,1
7:20.489,158576,N,0,0,0
7:20.517,158586,),0,0,1
7:21.119,158803,(,0,0,2
7:21.153,158815,t,0,0,0
7:21.194,158830,),0,0,2
7:21.656,158996,(,0,0,0
7:21.667,159000,p,0,0,0
7:21.689,159008,),0,0,0
7:21.797,159047,(,0,0,1
7:21.825,159057,N,0,0,0
7:21.850,159066,),0,0,1
7:22.058,159141,(,0,0,2
7:22.117,159162,t,0,0,0
7:22.144,159172,),0,0,2
7:22.447,159281,(,0,0,1
7:22.481,159293,N,0,0,0
7:22.508,159303,),0,0,1
7:22.719,159379,(,0,0,2
7:22.767,159396,t,0,0,0
7:22.811,159412,),0,0,2
7:23.064,159503,(,0,0,1
7:23.117,159522,N,0,0,0
7:23.144,159532,),0,0,1
7:23.364,159611,(,0,0,2
7:23.419,159631,t,0,0,0
7:23.450,159642,),0,0,2
7:23.758,159753,(,0,0,1
7:23.789,159764,N,0,0,0
7:23.817,159774,),0,0,1
7:24.428,159994,(,0,0,2
7:24.461,160006,t,0,0,0
7:24.503,160021,),0,0,2
7:28.389,161420,(,0,0,1
7:28.417,161430,N,0,0,0
7:28.444,161440,),0,0,1
7:28.650,161514,(,0,0,2
7:28.703,161533,t,0,0,0
7:28.736,161545,),0,0,2
7:29.039,161654,(,0,0,1
7:29.069,161665,N,0,0,0
7:29.097,161675,),0,0,1
7:29.678,161884,(,0,0,2
7:29.711,161896,t,0,0,0
7:29.753,161911,),0,0,2
7:31.031,162371,(,0,0,1
7:31.058,162381,N,0,0,0
7:31.083,162390,),0,0,1
7:31.297,162467,(,0,0,2
7:31.344,162484,t,0,0,0
7:31.378,162496,),0,0,2
7:31.681,162605,(,0,0,1
7:31.711,162616,N,0,0,0
7:31.739,162626,),0,0,1
7:31.961,162706,(,0,0,2
7:32.003,162721,t,0,0,0
7:32.044,162736,),0,0,2
7:32.317,162834,(,0,0,1
7:32.347,162845,N,0,0,0
7:32.372,162854,),0,0,1
7:32.594,162934,(,0,0,2
7:32.633,162948,t,0,0,0
7:32.681,162965,),0,0,2
7:32.958,163065,(,0,0,1
7:32.989,163076,N,0,0,0
7:33.017,163086,),0,0,1
7:33.247,163169,(,0,0,2
7:33.289,163184,t,0,0,0
7:33.336,163201,),0,0,2
7:33.617,163302,(,0,0,1
7:33.647,163313,N,0,0,0
7:33.672,163322,),0,0,1
7:33.897,163403,(,0,0,2
7:33.942,163419,t,0,0,0
7:33.978,163432,),0,0,2
7:34.281,163541,(,0,0,1
7:34.311,163552,N,0,0,0
7:34.339,163562,),0,0,1
7:34.944,163780,(,0,0,2
7:34.978,163792,t,0,0,0
7:35.019,163807,),0,0,2
7:35.597,164015,(,0,0,1
7:35.625,164025,N,0,0,0
7:35.650,164034,),0,0,1
7:35.875,164115,(,0,0,2
7:35.925,164133,t,0,0,0
7:35.969,164149,),0,0,2
7:36.244,164248,(,0,0,1
7:36.269,164257,N,0,0,0
7:36.297,164267,),0,0,1
7:36.503,164341,(,0,0,2
7:36.550,164358,t,0,0,0
7:36.608,164379,),0,0,2
7:36.611,164380,(,0,0,0
7:36.714,164417,p,0,0,0
7:36.789,164444,),0,0,0
7:36.861,164470,(,0,0,1
7:36.922,164492,N,0,0,0
7:36.950,164502,),0,0,1
7:37.575,164727,(,0,0,2
7:37.606,164738,t,0,0,0
7:37.647,164753,),0,0,2
7:38.236,164965,(,0,0,1
7:38.264,164975,N,0,0,0
7:38.292,164985,),0,0,1
7:38.519,165067,(,0,0,2
7:38.564,165083,t,0,0,0
7:38.600,165096,),0,0,2
7:38.883,165198,(,0,0,1
7:38.908,165207,N,0,0,0
7:38.936,165217,),0,0,1
7:39.525,165429,(,0,0,2
7:39.556,165440,t,0,0,0
7:39.600,165456,),0,0,2
7:43.447,166841,(,0,0,1
7:43.478,166852,N,0,0,0
7:43.506,166862,),0,0,1
7:43.731,166943,(,0,0,2
7:43.778,166960,t,0,0,0
7:43.814,166973,),0,0,2
7:43.864,166991,(,0,0,0
7:43.931,167015,p,0,0,0
7:44.008,167043,),0,0,0
7:44.114,167081,(,0,0,1
7:44.144,167092,N,0,0,0
7:44.172,167102,),0,0,1
7:44.758,167313,(,0,0,2
7:44.789,167324,t,0,0,0
7:44.831,167339,),0,0,2
7:45.219,167479,(,0,0,0
7:45.269,167497,p,0,0,0
7:45.317,167514,),0,0,0
7:45.417,167550,(,0,0,1
7:45.444,167560,N,0,0,0
7:45.469,167569,),0,0,1
7:45.678,167644,(,0,0,2
7:45.728,167662,t,0,0,0
7:45.775,167679,),0,0,2
7:46.053,167779,(,0,0,1
7:46.078,167788,N,0,0,0
7:46.106,167798,),0,0,1
7:46.314,167873,(,0,0,2
7:46.361,167890,t,0,0,0
7:46.408,167907,),0,0,2
7:46.700,168012,(,0,0,1
7:46.728,168022,N,0,0,0
7:46.756,168032,),0,0,1
7:47.328,168238,(,0,0,2
7:47.361,168250,t,0,0,0
7:47.403,168265,),0,0,2
7:47.994,168478,(,0,0,1
7:48.019,168487,N,0,0,0
7:48.047,168497,),0,0,1
7:48.275,168579,(,0,0,2
7:48.319,168595,t,0,0,0
7:48.353,168607,),0,0,2
7:48.650,168714,(,0,0,1
7:48.675,168723,N,0,0,0
7:48.700,168732,),0,0,1
7:48.911,168808,(,0,0,2
7:48.958,168825,t,0,0,0
7:49.006,168842,),0,0,2
7:49.264,168935,(,0,0,1
7:49.322,168956,N,0,0,0
7:49.347,168965,),0,0,1
7:49.917,169170,(,0,0,2
7:49.950,169182,t,0,0,0
7:49.992,169197,),0,0,2
7:50.561,169402,(,0,0,1
7:50.614,169421,N,0,0,0
7:50.642,169431,),0,0,1
7:50.869,169513,(,0,0,2
7:50.919,169531,t,0,0,0
7:50.953,169543,),0,0,2
7:51.250,169650,(,0,0,1
7:51.278,169660,N,0,0,0
7:51.306,169670,),0,0,1
7:51.519,169747,(,0,0,2
7:51.564,169763,t,0,0,0
7:51.606,169778,),0,0,2
7:51.900,169884,(,0,0,1
7:51.931,169895,N,0,0,0
7:51.958,169905,),0,0,1
7:52.519,170107,(,0,0,2
7:52.553,170119,t,0,0,0
7:52.594,170134,),0,0,2
7:53.800,170568,(,0,0,1
7:53.831,170579,N,0,0,0
7:53.856,170588,),0,0,1
7:54.072,170666,(,0,0,2
7:54.117,170682,t,0,0,0
7:54.153,170695,),0,0,2
7:54.450,170802,(,0,0,1
7:54.481,170813,N,0,0,0
7:54.533,170832,),0,0,1
7:55.108,171039,(,0,0,2
7:55.139,171050,t,0,0,0
7:55.183,171066,),0,0,2
7:55.747,171269,(,0,0,1
7:55.772,171278,N,0,0,0
7:55.800,171288,),0,0,1
7:56.017,171366,(,0,0,2
7:56.067,171384,t,0,0,0
7:56.117,171402,),0,0,2
7:56.367,171492,(,0,0,1
7:56.397,171503,N,0,0,0
7:56.425,171513,),0,0,1
7:56.631,171587,(,0,0,2
7:56.683,171606,t,0,0,0
7:56.717,171618,),0,0,2
7:57.000,171720,(,0,0,1
7:57.031,171731,N,0,0,0
7:57.058,171741,),0,0,1
7:57.664,171959,(,0,0,2
7:57.697,171971,t,0,0,0
7:57.742,171987,),0,0,2
7:58.314,172193,(,0,0,1
7:58.339,172202,N,0,0,0
7:58.367,172212,),0,0,1
7:58.583,172290,(,0,0,2
7:58.633,172308,t,0,0,0
7:58.656,172316,),0,0,2
7:58.950,172422,(,0,0,1
7:58.975,172431,N,0,0,0
7:59.000,172440,),0,0,1
7:59.208,172515,(,0,0,2
7:59.250,172530,t,0,0,0
7:59.281,172541,),0,0,2
7:59.583,172650,(,0,0,1
7:59.608,172659,N,0,0,0
7:59.633,172668,),0,0,1
8:00.219,172879,(,0,0,2
8:00.253,172891,t,0,0,0
8:00.294,172906,),0,0,2
8:01.503,173341,(,0,0,1
8:01.533,173352,N,0,0,0
8:01.564,173363,),0,0,1
8:02.150,173574,(,0,0,2
8:02.183,173586,t,0,0,0
8:02.225,173601,),0,0,2
8:02.769,173797,(,0,0,1
8:02.831,173819,N,0,0,0
8:02.858,173829,),0,0,1
8:03.419,174031,(,0,0,2
8:03.453,174043,t,0,0,0
8:03.494,174058,),0,0,2
8:04.747,174509,(,0,0,1
8:04.775,174519,N,0,0,0
8:04.803,174529,),0,0,1
8:05.011,174604,(,0,0,2
8:05.061,174622,t,0,0,0
8:05.092,174633,),0,0,2
8:05.394,174742,(,0,0,1
8:05.422,174752,N,0,0,0
8:05.450,174762,),0,0,1
8:06.017,174966,(,0,0,2
8:06.050,174978,t,0,0,0
8:06.092,174993,),0,0,2
8:07.317,175434,(,0,0,1
8:07.342,175443,N,0,0,0
8:07.367,175452,),0,0,1
8:07.586,175531,(,0,0,2
8:07.631,175547,t,0,0,0
8:07.650,175554,),0,0,2
8:07.967,175668,(,0,0,1
8:07.997,175679,N,0,0,0
8:08.022,175688,),0,0,1
8:08.242,175767,(,0,0,2
8:08.283,175782,t,0,0,0
8:08.328,175798,),0,0,2
8:08.622,175904,(,0,0,1
8:08.650,175914,N,0,0,0
8:08.681,175925,),0,0,1
8:09.261,176134,(,0,0,2
8:09.292,176145,t,0,0,0
8:09.336,176161,),0,0,2
8:09.875,176355,(,0,0,1
8:09.933,176376,N,0,0,0
8:09.958,176385,),0,0,1
8:10.172,176462,(,0,0,2
8:10.217,176478,t,0,0,0
8:10.267,176496,),0,0,2
8:10.542,176595,(,0,0,1
8:10.572,176606,N,0,0,0
8:10.597,176615,),0,0,1
8:10.825,176697,(,0,0,2
8:10.872,176714,t,0,0,0
8:10.900,176724,),0,0,2
8:11.194,176830,(,0,0,1
8:11.239,176846,N,0,0,0
8:11.267,176856,),0,0,1
8:11.489,176936,(,0,0,2
8:11.536,176953,t,0,0,0
8:11.575,176967,),0,0,2
8:11.856,177068,(,0,0,1
8:11.883,177078,N,0,0,0
8:11.911,177088,),0,0,1
8:12.142,177171,(,0,0,2
8:12.183,177186,t,0,0,0
8:12.228,177202,),0,0,2
8:12.500,177300,(,0,0,1
8:12.528,177310,N,0,0,0
8:12.556,177320,),0,0,1
8:12.756,177392,(,0,0,2
8:12.808,177411,t,0,0,0
8:12.833,177420,),0,0,2
8:13.136,177529,(,0,0,1
8:13.164,177539,N,0,0,0
8:13.189,177548,),0,0,1
8:13.400,177624,(,0,0,2
8:13.447,177641,t,0,0,0
8:13.494,177658,),0,0,2
8:13.789,177764,(,0,0,1
8:13.817,177774,N,0,0,0
8:13.844,177784,),0,0,1
8:14.053,177859,(,0,0,2
8:14.103,177877,t,0,0,0
8:14.131,177887,),0,0,2
8:14.242,177927,(,0,0,0
8:14.247,177929,p,0,0,0
8:14.253,177931,),0,0,0
8:14.431,177995,(,0,0,1
8:14.461,178006,N,0,0,0
8:14.492,178017,),0,0,1
8:14.717,178098,(,0,0,2
8:14.761,178114,t,0,0,0
8:14.794,178126,),0,0,2
8:15.092,178233,(,0,0,1
8:15.119,178243,N,0,0,0
8:15.178,178264,),0,0,1
8:15.744,178468,(,0,0,2
8:15.778,178480,t,0,0,0
8:15.819,178495,),0,0,2
8:17.647,179153,(,0,0,1
8:17.708,179175,N,0,0,0
8:17.736,179185,),0,0,1
8:18.342,179403,(,0,0,2
8:18.372,179414,t,0,0,0
8:18.414,179429,),0,0,2
8:19.619,179863,(,0,0,1
8:19.653,179875,N,0,0,0
8:19.681,179885,),0,0,1
8:19.889,179960,(,0,0,2
8:19.942,179979,t,0,0,0
8:19.986,179995,),0,0,2
8:20.244,180088,(,0,0,1
8:20.292,180105,N,0,0,0
8:20.319,180115,),0,0,1
8:20.897,180323,(,0,0,2
8:20.931,180335,t,0,0,0
8:20.972,180350,),0,0,2
8:21.564,180563,(,0,0,1
8:21.589,180572,N,0,0,0
8:21.614,180581,),0,0,1
8:21.831,180659,(,0,0,2
8:21.883,180678,t,0,0,0
8:21.925,180693,),0,0,2
8:22.219,180799,(,0,0,1
8:22.247,180809,N,0,0,0
8:22.275,180819,),0,0,1
8:22.483,180894,(,0,0,2
8:22.533,180912,t,0,0,0
8:22.567,180924,),0,0,2
8:22.833,181020,(,0,0,1
8:22.883,181038,N,0,0,0
8:22.942,181059,),0,0,1
8:23.128,181126,(,0,0,2
8:23.175,181143,t,0,0,0
8:23.206,181154,),0,0,2
8:23.497,181259,(,0,0,1
8:23.522,181268,N,0,0,0
8:23.572,181286,),0,0,1
8:24.139,181490,(,0,0,1
8:24.169,181501,N,0,0,0
8:24.194,181510,),0,0,1
8:24.806,181730,(,0,0,1
8:24.833,181740,N,0,0,0
8:24.861,181750,),0,0,1
8:25.075,181827,(,0,0,2
8:25.119,181843,t,0,0,0
8:25.167,181860,),0,0,2
8:25.447,181961,(,0,0,1
8:25.478,181972,N,0,0,0
8:25.506,181982,),0,0,1
8:26.078,182188,(,0,0,2
8:26.111,182200,t,0,0,0
8:26.153,182215,),0,0,2
8:26.728,182422,(,0,0,1
8:26.756,182432,N,0,0,0
8:26.783,182442,),0,0,1
8:26.978,182512,(,0,0,2
8:26.994,182518,t,0,0,4
8:27.047,182537,t,0,0,4
8:27.086,182551,),0,0,2
8:27.347,182645,(,0,0,1
8:27.403,182665,N,0,0,0
8:27.431,182675,),0,0,1
8:28.014,182885,(,0,0,2
8:28.047,182897,t,0,0,0
8:28.089,182912,),0,0,2
8:29.956,183584,(,0,0,1
8:29.986,183595,N,0,0,0
8:30.011,183604,),0,0,1
8:30.583,183810,(,0,0,2
8:30.617,183822,t,0,0,0
8:30.658,183837,),0,0,2
8:31.842,184263,(,0,0,1
8:31.914,184289,N,0,0,0
8:31.939,184298,),0,0,1
8:32.517,184506,(,0,0,2
8:32.547,184517,t,0,0,0
8:32.589,184532,),0,0,2
8:33.753,184951,(,0,0,1
8:33.806,184970,N,0,0,0
8:33.833,184980,),0,0,1
8:34.047,185057,(,0,0,2
8:34.106,185078,t,0,0,0
8:34.139,185090,),0,0,2
8:34.200,185112,(,0,0,0
8:34.228,185122,p,0,0,0
8:34.308,185151,),0,0,0
8:34.406,185186,(,0,0,1
8:34.433,185196,N,0,0,0
8:34.461,185206,),0,0,1
8:34.686,185287,(,0,0,2
8:34.736,185305,t,0,0,0
8:34.783,185322,),0,0,2
8:35.017,185406,(,0,0,1
8:35.081,185429,N,0,0,0
8:35.108,185439,),0,0,1
8:35.711,185656,(,0,0,1
8:35.739,185666,N,0,0,0
8:35.767,185676,),0,0,1
8:35.969,185749,(,0,0,2
8:36.022,185768,t,0,0,0
8:36.067,185784,),0,0,2
8:36.339,185882,(,0,0,1
8:36.367,185892,N,0,0,0
8:36.394,185902,),0,0,1
8:36.608,185979,(,0,0,2
8:36.656,185996,t,0,0,0
8:36.692,186009,),0,0,2
8:36.967,186108,(,0,0,1
8:36.989,186116,N,0,0,0
8:37.017,186126,),0,0,1
8:37.597,186335,(,0,0,2
8:37.631,186347,t,0,0,0
8:37.672,186362,),0,0,2
8:38.272,186578,(,0,0,1
8:38.303,186589,N,0,0,0
8:38.331,186599,),0,0,1
8:38.550,186678,(,0,0,2
8:38.600,186696,t,0,0,0
8:38.642,186711,),0,0,2
8:38.919,186811,(,0,0,1
8:38.950,186822,N,0,0,0
8:38.978,186832,),0,0,1
8:39.542,187035,(,0,0,2
8:39.572,187046,t,0,0,0
8:39.614,187061,),0,0,2
8:40.181,187265,(,0,0,1
8:40.208,187275,N,0,0,0
8:40.233,187284,),0,0,1
8:40.453,187363,(,0,0,2
8:40.497,187379,t,0,0,0
8:40.533,187392,),0,0,2
8:40.792,187485,(,0,0,1
8:40.850,187506,N,0,0,0
8:40.878,187516,),0,0,1
8:41.456,187724,(,0,0,2
8:41.486,187735,t,0,0,0
8:41.531,187751,),0,0,2
8:43.981,188633,(,0,0,1
8:44.008,188643,N,0,0,0
8:44.033,188652,),0,0,1
8:44.622,188864,(,0,0,2
8:44.656,188876,t,0,0,0
8:44.697,188891,),0,0,2
8:45.919,189331,(,0,0,1
8:45.944,189340,N,0,0,0
8:45.972,189350,),0,0,1
8:46.117,189402,t,0,0,2
8:46.214,189437,),0,0,2
8:46.539,189554,(,0,0,1
8:46.564,189563,N,0,0,0
8:46.594,189574,),0,0,1
8:46.800,189648,(,0,0,2
8:46.853,189667,t,0,0,0
8:46.897,189683,),0,0,2
8:47.169,189781,(,0,0,1
8:47.197,189791,N,0,0,0
8:47.225,189801,),0,0,1
8:47.444,189880,(,0,0,2
8:47.492,189897,t,0,0,0
8:47.536,189913,),0,0,2
8:47.806,190010,(,0,0,1
8:47.833,190020,N,0,0,0
8:47.861,190030,),0,0,1
8:48.450,190242,(,0,0,1
8:48.481,190253,N,0,0,0
8:48.508,190263,),0,0,1
8:48.731,190343,(,0,0,2
8:48.781,190361,t,0,0,0
8:48.828,190378,),0,0,2
8:49.111,190480,(,0,0,1
8:49.139,190490,N,0,0,0
8:49.167,190500,),0,0,1
8:49.372,190574,(,0,0,2
8:49.419,190591,t,0,0,0
8:49.456,190604,),0,0,2
8:49.744,190708,(,0,0,1
8:49.772,190718,N,0,0,0
8:49.803,190729,),0,0,1
8:50.008,190803,(,0,0,2
8:50.056,190820,t,0,0,0
8:50.106,190838,),0,0,2
8:50.378,190936,(,0,0,1
8:50.406,190946,N,0,0,0
8:50.431,190955,),0,0,1
8:51.019,191167,(,0,0,2
8:51.053,191179,t,0,0,0
8:51.097,191195,),0,0,2
8:51.697,191411,(,0,0,1
8:51.725,191421,N,0,0,0
8:51.753,191431,),0,0,1
8:51.964,191507,(,0,0,2
8:52.022,191528,t,0,0,0
8:52.058,191541,),0,0,2
8:52.339,191642,(,0,0,1
8:52.367,191652,N,0,0,0
8:52.394,191662,),0,0,1
8:52.589,191732,(,0,0,2
8:52.606,191738,t,0,0,4
8:52.661,191758,t,0,0,4
8:52.697,191771,),0,0,2
8:52.967,191868,(,0,0,1
8:52.997,191879,N,0,0,0
8:53.022,191888,),0,0,1
8:53.603,192097,(,0,0,2
8:53.636,192109,t,0,0,0
8:53.675,192123,),0,0,2
8:54.861,192550,(,0,0,1
8:54.925,192573,N,0,0,0
8:54.953,192583,),0,0,1
8:55.164,192659,(,0,0,2
8:55.214,192677,t,0,0,0
8:55.267,192696,),0,0,2
8:55.544,192796,(,0,0,1
8:55.572,192806,N,0,0,0
8:55.603,192817,),0,0,1
8:56.172,193022,(,0,0,2
8:56.206,193034,t,0,0,0
8:56.244,193048,),0,0,2
9:01.275,194859,(,0,0,1
9:01.303,194869,N,0,0,0
9:01.331,194879,),0,0,1
9:01.558,194961,(,0,0,2
9:01.603,194977,t,0,0,0
9:01.642,194991,),0,0,2
9:01.928,195094,(,0,0,1
9:01.956,195104,N,0,0,0
9:01.983,195114,),0,0,1
9:02.214,195197,(,0,0,2
9:02.258,195213,t,0,0,0
9:02.308,195231,),0,0,2
9:02.597,195335,(,0,0,1
9:02.628,195346,N,0,0,0
9:02.653,195355,),0,0,1
9:03.228,195562,(,0,0,2
9:03.261,195574,t,0,0,0
9:03.303,195589,),0,0,2
9:03.833,195780,(,0,0,1
9:03.889,195800,N,0,0,0
9:03.917,195810,),0,0,1
9:04.511,196024,(,0,0,1
9:04.542,196035,N,0,0,0
9:04.569,196045,),0,0,1
9:05.172,196262,(,0,0,2
9:05.206,196274,t,0,0,0
9:05.247,196289,),0,0,2
9:05.797,196487,(,0,0,1
9:05.853,196507,N,0,0,0
9:05.881,196517,),0,0,1
9:06.089,196592,(,0,0,2
9:06.136,196609,t,0,0,0
9:06.172,196622,),0,0,2
9:06.450,196722,(,0,0,1
9:06.478,196732,N,0,0,0
9:06.506,196742,),0,0,1
9:06.728,196822,(,0,0,2
9:06.775,196839,t,0,0,0
9:06.819,196855,),0,0,2
9:07.056,196940,(,0,0,1
9:07.117,196962,N,0,0,0
9:07.144,196972,),0,0,1
9:07.339,197042,(,0,0,2
9:07.356,197048,t,0,0,4
9:07.414,197069,t,0,0,4
9:07.444,197080,),0,0,2
9:07.728,197182,(,0,0,1
9:07.758,197193,N,0,0,0
9:07.783,197202,),0,0,1
9:07.994,197278,(,0,0,2
9:08.039,197294,t,0,0,0
9:08.106,197318,),0,0,2
9:08.381,197417,(,0,0,1
9:08.406,197426,N,0,0,0
9:08.431,197435,),0,0,1
9:08.644,197512,(,0,0,2
9:08.694,197530,t,0,0,0
9:08.747,197549,),0,0,2
9:09.031,197651,(,0,0,1
9:09.061,197662,N,0,0,0
9:09.089,197672,),0,0,1
9:09.664,197879,(,0,0,2
9:09.694,197890,t,0,0,0
9:09.736,197905,),0,0,2
9:10.931,198335,(,0,0,1
9:10.961,198346,N,0,0,0
9:10.989,198356,),0,0,1
9:11.211,198436,(,0,0,2
9:11.253,198451,t,0,0,0
9:11.303,198469,),0,0,2
9:11.592,198573,(,0,0,1
9:11.622,198584,N,0,0,0
9:11.650,198594,),0,0,1
9:12.228,198802,(,0,0,2
9:12.258,198813,t,0,0,0
9:12.303,198829,),0,0,2
9:13.458,199245,(,0,0,1
9:13.525,199269,N,0,0,0
9:13.553,199279,),0,0,1
9:14.139,199490,(,0,0,2
9:14.172,199502,t,0,0,0
9:14.214,199517,),0,0,2
9:24.306,203150,(,0,0,1
9:24.333,203160,N,0,0,0
9:24.361,203170,),0,0,1
9:24.953,203383,(,0,0,2
9:24.983,203394,t,0,0,0
9:25.025,203409,),0,0,2
9:26.886,204079,(,0,0,1
9:26.911,204088,N,0,0,0
9:26.939,204098,),0,0,1
9:27.508,204303,(,0,0,2
9:27.542,204315,t,0,0,0
9:27.583,204330,),0,0,2
9:28.147,204533,(,0,0,1
9:28.175,204543,N,0,0,0
9:28.203,204553,),0,0,1
9:28.783,204762,(,0,0,2
9:28.817,204774,t,0,0,0
9:28.858,204789,),0,0,2
9:29.444,205000,(,0,0,1
9:29.469,205009,N,0,0,0
9:29.497,205019,),0,0,1
9:30.058,205221,(,0,0,2
9:30.092,205233,t,0,0,0
9:30.133,205248,),0,0,2
9:31.944,205900,(,0,0,1
9:32.011,205924,N,0,0,0
9:32.039,205934,),0,0,1
9:32.608,206139,(,0,0,2
9:32.642,206151,t,0,0,0
9:32.683,206166,),0,0,2
9:41.100,209196,(,0,0,1
9:41.128,209206,N,0,0,0
9:41.158,209217,),0,0,1
9:41.742,209427,(,0,0,2
9:41.775,209439,t,0,0,0
9:41.817,209454,),0,0,2
9:43.744,210148,(,0,0,1
9:43.772,210158,N,0,0,0
9:43.800,210168,),0,0,1
9:44.378,210376,(,0,0,2
9:44.408,210387,t,0,0,0
9:44.450,210402,),0,0,2
9:53.611,213700,(,0,0,1
9:53.639,213710,N,0,0,0
9:53.667,213720,),0,0,1
9:54.247,213929,(,0,0,2
9:54.281,213941,t,0,0,0
9:54.322,213956,),0,0,2
9:54.878,214156,(,0,0,1
9:54.936,214177,N,0,0,0
9:54.964,214187,),0,0,1
9:55.169,214261,(,0,0,2
9:55.219,214279,t,0,0,0
9:55.261,214294,),0,0,2
9:55.561,214402,(,0,0,1
9:55.589,214412,N,0,0,0
9:55.617,214422,),0,0,1
9:56.211,214636,(,0,0,2
9:56.244,214648,t,0,0,0
9:56.286,214663,),0,0,2
10:34.394,228382,(,0,0,1
10:34.422,228392,N,0,0,0
10:34.447,228401,),0,0,1
10:35.047,228617,(,0,0,2
10:35.081,228629,t,0,0,0
10:35.119,228643,),0,0,2
10:52.672,234962,(,0,0,1
10:52.700,234972,N,0,0,0
10:52.725,234981,),0,0,1
10:53.319,235195,(,0,0,2
10:53.353,235207,t,0,0,0
10:53.392,235221,),0,0,2
10:55.917,236130,(,0,0,1
10:55.942,236139,N,0,0,0
10:55.969,236149,),0,0,1
10:56.183,236226,(,0,0,2
10:56.228,236242,t,0,0,0
10:56.283,236262,),0,0,2
10:56.569,236365,(,0,0,1
10:56.600,236376,N,0,0,0
10:56.628,236386,),0,0,1
10:57.206,236594,(,0,0,2
10:57.239,236606,t,0,0,0
10:57.281,236621,),0,0,2
11:00.456,237764,(,0,0,1
11:00.478,237772,N,0,0,0
11:00.503,237781,),0,0,1
11:00.700,237852,(,0,0,2
11:00.761,237874,t,0,0,0
11:00.794,237886,),0,0,2
11:01.078,237988,(,0,0,1
11:01.108,237999,N,0,0,0
11:01.133,238008,),0,0,1
11:01.731,238223,(,0,0,2
11:01.764,238235,t,0,0,0
11:01.806,238250,),0,0,2
11:02.386,238459,(,0,0,1
11:02.414,238469,N,0,0,0
11:02.442,238479,),0,0,1
11:02.603,238537,(,0,0,2
11:02.708,238575,t,0,0,0
11:02.739,238586,),0,0,2
11:03.047,238697,(,0,0,1
11:03.075,238707,N,0,0,0
11:03.100,238716,),0,0,1
11:03.219,238759,(,0,0,2
11:03.342,238803,t,0,0,0
11:03.417,238830,),0,0,2
11:03.703,238933,(,0,0,1
11:03.731,238943,N,0,0,0
11:03.756,238952,),0,0,1
11:03.858,238989,(,0,0,2
11:04.028,239050,t,0,0,0
11:04.064,239063,),0,0,2
11:04.353,239167,(,0,0,1
11:04.381,239177,N,0,0,0
11:04.408,239187,),0,0,1
11:04.511,239224,(,0,0,2
11:04.656,239276,t,0,0,0
11:04.714,239297,),0,0,2
11:04.986,239395,(,0,0,1
11:05.014,239405,N,0,0,0
11:05.042,239415,),0,0,1
11:05.258,239493,(,0,0,2
11:05.306,239510,t,0,0,0
11:05.331,239519,),0,0,2
11:05.658,239637,(,0,0,1
11:05.689,239648,N,0,0,0
11:05.717,239658,),0,0,1
11:06.328,239878,(,0,0,1
11:06.356,239888,N,0,0,0
11:06.383,239898,),0,0,1
11:06.511,239944,(,0,0,2
11:06.650,239994,t,0,0,0
11:06.692,240009,),0,0,2
11:06.992,240117,(,0,0,1
11:07.017,240126,N,0,0,0
11:07.042,240135,),0,0,1
11:07.250,240210,(,0,0,2
11:07.292,240225,t,0,0,0
11:07.325,240237,),0,0,2
11:07.625,240345,(,0,0,1
11:07.650,240354,N,0,0,0
11:07.678,240364,),0,0,1
11:08.228,240562,(,0,0,1
11:08.292,240585,N,0,0,0
11:08.322,240596,),0,0,1
11:08.431,240635,(,0,0,2
11:08.578,240688,t,0,0,0
11:08.619,240703,),0,0,2
11:08.908,240807,(,0,0,1
11:08.936,240817,N,0,0,0
11:08.961,240826,),0,0,1
11:09.186,240907,(,0,0,2
11:09.236,240925,t,0,0,0
11:09.275,240939,),0,0,2
11:09.564,241043,(,0,0,1
11:09.592,241053,N,0,0,0
11:09.619,241063,),0,0,1
11:09.844,241144,(,0,0,2
11:09.889,241160,t,0,0,0
11:09.928,241174,),0,0,2
11:09.953,241183,(,0,0,0
11:09.978,241192,p,0,0,0
11:09.997,241199,),0,0,0
11:10.228,241282,(,0,0,1
11:10.253,241291,N,0,0,0
11:10.281,241301,),0,0,1
11:10.383,241338,(,0,0,2
11:10.503,241381,t,0,0,0
11:10.586,241411,),0,0,2
11:10.864,241511,(,0,0,1
11:10.897,241523,N,0,0,0
11:10.925,241533,),0,0,1
11:11.033,241572,(,0,0,2
11:11.183,241626,t,0,0,0
11:11.228,241642,),0,0,2
11:11.500,241740,(,0,0,1
11:11.531,241751,N,0,0,0
11:11.558,241761,),0,0,1
11:11.783,241842,(,0,0,2
11:11.817,241854,t,0,0,0
11:11.883,241878,),0,0,2
11:12.161,241978,(,0,0,1
11:12.189,241988,N,0,0,0
11:12.217,241998,),0,0,1
11:12.439,242078,(,0,0,2
11:12.481,242093,t,0,0,0
11:12.544,242116,),0,0,2
11:12.828,242218,(,0,0,1
11:12.858,242229,N,0,0,0
11:12.886,242239,),0,0,1
11:13.100,242316,(,0,0,2
11:13.142,242331,t,0,0,0
11:13.189,242348,),0,0,2
11:13.481,242453,(,0,0,1
11:13.508,242463,N,0,0,0
11:13.539,242474,),0,0,1
11:14.117,242682,(,0,0,1
11:14.144,242692,N,0,0,0
11:14.172,242702,),0,0,1
11:14.392,242781,(,0,0,2
11:14.436,242797,t,0,0,0
11:14.478,242812,),0,0,2
11:14.761,242914,(,0,0,1
11:14.792,242925,N,0,0,0
11:14.819,242935,),0,0,1
11:14.956,242984,(,0,0,2
11:15.083,243030,t,0,0,0
11:15.131,243047,),0,0,2
11:15.414,243149,(,0,0,1
11:15.442,243159,N,0,0,0
11:15.467,243168,),0,0,1
11:15.550,243198,(,0,0,2
11:15.697,243251,t,0,0,0
11:15.783,243282,),0,0,2
11:16.069,243385,(,0,0,1
11:16.100,243396,N,0,0,0
11:16.128,243406,),0,0,1
11:16.247,243449,(,0,0,2
11:16.394,243502,t,0,0,0
11:16.442,243519,),0,0,2
11:16.731,243623,(,0,0,1
11:16.758,243633,N,0,0,0
11:16.786,243643,),0,0,1
11:17.372,243854,(,0,0,1
11:17.408,243867,N,0,0,0
11:17.433,243876,),0,0,1
11:17.650,243954,(,0,0,2
11:17.700,243972,t,0,0,0
11:17.742,243987,),0,0,2
11:18.022,244088,(,0,0,1
11:18.053,244099,N,0,0,0
11:18.078,244108,),0,0,1
11:18.178,244144,(,0,0,2
11:18.339,244202,t,0,0,0
11:18.394,244222,),0,0,2
11:18.667,244320,(,0,0,1
11:18.697,244331,N,0,0,0
11:18.725,244341,),0,0,1
11:18.800,244368,(,0,0,2
11:18.997,244439,t,0,0,0
11:19.025,244449,),0,0,2
11:19.325,244557,(,0,0,1
11:19.356,244568,N,0,0,0
11:19.383,244578,),0,0,1
11:19.603,244657,(,0,0,2
11:19.647,244673,t,0,0,0
11:19.689,244688,),0,0,2
11:19.969,244789,(,0,0,1
11:19.994,244798,N,0,0,0
11:20.019,244807,),0,0,1
11:20.244,244888,(,0,0,2
11:20.286,244903,t,0,0,0
11:20.331,244919,),0,0,2
11:20.603,245017,(,0,0,1
11:20.631,245027,N,0,0,0
11:20.656,245036,),0,0,1
11:20.781,245081,(,0,0,2
11:20.903,245125,t,0,0,0
11:20.958,245145,),0,0,2
11:21.231,245243,(,0,0,1
11:21.258,245253,N,0,0,0
11:21.286,245263,),0,0,1
11:21.492,245337,(,0,0,2
11:21.539,245354,t,0,0,0
11:21.556,245360,),0,0,2
11:21.861,245470,(,0,0,1
11:21.894,245482,N,0,0,0
11:21.922,245492,),0,0,1
11:22.047,245537,(,0,0,2
11:22.169,245581,t,0,0,0
11:22.222,245600,),0,0,2
11:22.486,245695,(,0,0,1
11:22.519,245707,N,0,0,0
11:22.547,245717,),0,0,1
11:22.672,245762,(,0,0,2
11:22.836,245821,t,0,0,0
11:22.889,245840,),0,0,2
11:23.108,245919,(,0,0,1
11:23.172,245942,N,0,0,0
11:23.200,245952,),0,0,1
11:23.800,246168,(,0,0,1
11:23.833,246180,N,0,0,0
11:23.858,246189,),0,0,1
11:24.075,246267,(,0,0,2
11:24.117,246282,t,0,0,0
11:24.161,246298,),0,0,2
11:24.444,246400,(,0,0,1
11:24.472,246410,N,0,0,0
11:24.497,246419,),0,0,1
11:25.067,246624,(,0,0,2
11:25.100,246636,t,0,0,0
11:25.142,246651,),0,0,2
11:25.736,246865,(,0,0,1
11:25.764,246875,N,0,0,0
11:25.792,246885,),0,0,1
11:26.022,246968,(,0,0,2
11:26.067,246984,t,0,0,0
11:26.100,246996,),0,0,2
11:26.414,247109,(,0,0,1
11:26.444,247120,N,0,0,0
11:26.469,247129,),0,0,1
11:26.689,247208,(,0,0,2
11:26.731,247223,t,0,0,0
11:26.794,247246,),0,0,2
11:27.067,247344,(,0,0,1
11:27.094,247354,N,0,0,0
11:27.119,247363,),0,0,1
11:27.256,247412,(,0,0,2
11:27.372,247454,t,0,0,0
11:27.400,247464,),0,0,2
11:27.694,247570,(,0,0,1
11:27.722,247580,N,0,0,0
11:27.750,247590,),0,0,1
11:27.881,247637,(,0,0,2
11:28.014,247685,t,0,0,0
11:28.050,247698,),0,0,2
11:28.303,247789,(,0,0,1
11:28.369,247813,N,0,0,0
